3.500700000000000000e+04,-2.000000000000000164e-05,2.000000000000000164e-05,8.000000000000000654e-05,-2.000000000000000164e-05,0.000000000000000000e+00,-1.000000000000000082e-05,-1.000000000000000082e-05,-2.000000000000000164e-05,1.000000000000000000e+00,1.300000000000000000e+01
3.500800000000000000e+04,-2.000000000000000164e-05,2.000000000000000164e-05,8.000000000000000654e-05,-2.000000000000000164e-05,0.000000000000000000e+00,-1.000000000000000082e-05,-1.000000000000000082e-05,-2.000000000000000164e-05,1.000000000000000000e+00,1.300000000000000000e+01
3.500900000000000000e+04,-2.000000000000000164e-05,2.000000000000000164e-05,8.000000000000000654e-05,-2.000000000000000164e-05,0.000000000000000000e+00,-1.000000000000000082e-05,-1.000000000000000082e-05,-2.000000000000000164e-05,1.000000000000000000e+00,1.300000000000000000e+01
3.501000000000000000e+04,-2.000000000000000164e-05,2.000000000000000164e-05,8.000000000000000654e-05,-2.000000000000000164e-05,0.000000000000000000e+00,-1.000000000000000082e-05,-1.000000000000000082e-05,-2.000000000000000164e-05,1.000000000000000000e+00,1.300000000000000000e+01
3.501100000000000000e+04,-2.000000000000000164e-05,2.000000000000000164e-05,8.000000000000000654e-05,-2.000000000000000164e-05,0.000000000000000000e+00,-1.000000000000000082e-05,-1.000000000000000082e-05,-2.000000000000000164e-05,1.000000000000000000e+00,1.300000000000000000e+01
3.501200000000000000e+04,-2.000000000000000164e-05,2.000000000000000164e-05,8.000000000000000654e-05,-2.000000000000000164e-05,0.000000000000000000e+00,-1.000000000000000082e-05,-1.000000000000000082e-05,-2.000000000000000164e-05,1.000000000000000000e+00,1.300000000000000000e+01
3.501300000000000000e+04,-2.000000000000000164e-05,2.000000000000000164e-05,8.000000000000000654e-05,-2.000000000000000164e-05,0.000000000000000000e+00,-1.000000000000000082e-05,-1.000000000000000082e-05,-2.000000000000000164e-05,1.000000000000000000e+00,1.300000000000000000e+01
3.501400000000000000e+04,-2.000000000000000164e-05,2.000000000000000164e-05,8.000000000000000654e-05,-2.000000000000000164e-05,0.000000000000000000e+00,-1.000000000000000082e-05,-1.000000000000000082e-05,-2.000000000000000164e-05,1.000000000000000000e+00,1.300000000000000000e+01
3.501500000000000000e+04,-2.000000000000000164e-05,2.000000000000000164e-05,8.000000000000000654e-05,-2.000000000000000164e-05,0.000000000000000000e+00,-1.000000000000000082e-05,-1.000000000000000082e-05,-2.000000000000000164e-05,1.000000000000000000e+00,1.300000000000000000e+01
3.501600000000000000e+04,-2.000000000000000164e-05,2.000000000000000164e-05,8.000000000000000654e-05,-2.000000000000000164e-05,0.000000000000000000e+00,-1.000000000000000082e-05,-1.000000000000000082e-05,-2.000000000000000164e-05,1.000000000000000000e+00,1.300000000000000000e+01
3.501700000000000000e+04,-2.000000000000000164e-05,2.000000000000000164e-05,8.000000000000000654e-05,-2.000000000000000164e-05,0.000000000000000000e+00,-1.000000000000000082e-05,-1.000000000000000082e-05,-2.000000000000000164e-05,1.000000000000000000e+00,1.300000000000000000e+01
3.501800000000000000e+04,-2.000000000000000164e-05,2.000000000000000164e-05,8.000000000000000654e-05,-2.000000000000000164e-05,0.000000000000000000e+00,-1.000000000000000082e-05,-1.000000000000000082e-05,-2.000000000000000164e-05,1.000000000000000000e+00,1.300000000000000000e+01
3.501900000000000000e+04,-2.000000000000000164e-05,2.000000000000000164e-05,8.000000000000000654e-05,-2.000000000000000164e-05,0.000000000000000000e+00,-1.000000000000000082e-05,-1.000000000000000082e-05,-2.000000000000000164e-05,1.000000000000000000e+00,1.300000000000000000e+01
3.502000000000000000e+04,-2.000000000000000164e-05,2.000000000000000164e-05,8.000000000000000654e-05,-2.000000000000000164e-05,0.000000000000000000e+00,-1.000000000000000082e-05,-1.000000000000000082e-05,-2.000000000000000164e-05,1.000000000000000000e+00,1.300000000000000000e+01
3.502100000000000000e+04,-1.000000000000000082e-05,-4.000000000000000327e-05,-5.999999999999999474e-05,-2.999999999999999737e-05,-2.000000000000000164e-05,-1.000000000000000082e-05,0.000000000000000000e+00,-1.000000000000000082e-05,1.000000000000000000e+00,1.300000000000000000e+01
3.502200000000000000e+04,-2.000000000000000164e-05,-6.999999999999999387e-05,-2.000000000000000164e-05,-1.000000000000000082e-05,-2.000000000000000164e-05,-1.000000000000000082e-05,-1.000000000000000082e-05,-1.000000000000000082e-05,1.000000000000000000e+00,1.300000000000000000e+01
3.502300000000000000e+04,-2.000000000000000164e-05,-6.999999999999999387e-05,-2.000000000000000164e-05,-1.000000000000000082e-05,-2.000000000000000164e-05,-1.000000000000000082e-05,-1.000000000000000082e-05,-1.000000000000000082e-05,1.000000000000000000e+00,1.300000000000000000e+01
3.502400000000000000e+04,-2.000000000000000164e-05,-6.999999999999999387e-05,-2.000000000000000164e-05,-1.000000000000000082e-05,-2.000000000000000164e-05,-1.000000000000000082e-05,-1.000000000000000082e-05,-1.000000000000000082e-05,1.000000000000000000e+00,1.300000000000000000e+01
3.502500000000000000e+04,-2.000000000000000164e-05,-6.999999999999999387e-05,-2.000000000000000164e-05,-1.000000000000000082e-05,-2.000000000000000164e-05,-1.000000000000000082e-05,-1.000000000000000082e-05,-1.000000000000000082e-05,1.000000000000000000e+00,1.300000000000000000e+01
3.502600000000000000e+04,-2.000000000000000164e-05,-6.999999999999999387e-05,-2.000000000000000164e-05,-1.000000000000000082e-05,-2.000000000000000164e-05,-1.000000000000000082e-05,-1.000000000000000082e-05,-1.000000000000000082e-05,1.000000000000000000e+00,1.300000000000000000e+01
3.502700000000000000e+04,-2.000000000000000164e-05,-6.999999999999999387e-05,-2.000000000000000164e-05,-1.000000000000000082e-05,-2.000000000000000164e-05,-1.000000000000000082e-05,-1.000000000000000082e-05,-1.000000000000000082e-05,1.000000000000000000e+00,1.300000000000000000e+01
3.502800000000000000e+04,-2.000000000000000164e-05,-6.999999999999999387e-05,-2.000000000000000164e-05,-1.000000000000000082e-05,-2.000000000000000164e-05,-1.000000000000000082e-05,-1.000000000000000082e-05,-1.000000000000000082e-05,1.000000000000000000e+00,1.300000000000000000e+01
3.502900000000000000e+04,-2.000000000000000164e-05,-6.999999999999999387e-05,-2.000000000000000164e-05,-1.000000000000000082e-05,-2.000000000000000164e-05,-1.000000000000000082e-05,-1.000000000000000082e-05,-1.000000000000000082e-05,1.000000000000000000e+00,1.300000000000000000e+01
3.503000000000000000e+04,-2.000000000000000164e-05,-6.999999999999999387e-05,-2.000000000000000164e-05,-1.000000000000000082e-05,-2.000000000000000164e-05,-1.000000000000000082e-05,-1.000000000000000082e-05,-1.000000000000000082e-05,1.000000000000000000e+00,1.300000000000000000e+01
3.503100000000000000e+04,-2.000000000000000164e-05,-6.999999999999999387e-05,-2.000000000000000164e-05,-1.000000000000000082e-05,-2.000000000000000164e-05,-1.000000000000000082e-05,-1.000000000000000082e-05,-1.000000000000000082e-05,1.000000000000000000e+00,1.300000000000000000e+01
3.503300000000000000e+04,-2.000000000000000164e-05,-6.999999999999999387e-05,-2.000000000000000164e-05,-1.000000000000000082e-05,-2.000000000000000164e-05,-1.000000000000000082e-05,-1.000000000000000082e-05,-1.000000000000000082e-05,1.000000000000000000e+00,1.300000000000000000e+01
3.503400000000000000e+04,-2.000000000000000164e-05,-6.999999999999999387e-05,-2.000000000000000164e-05,-1.000000000000000082e-05,-2.000000000000000164e-05,-1.000000000000000082e-05,-1.000000000000000082e-05,-1.000000000000000082e-05,1.000000000000000000e+00,1.300000000000000000e+01
3.503500000000000000e+04,-2.000000000000000164e-05,-6.999999999999999387e-05,-2.000000000000000164e-05,-1.000000000000000082e-05,-2.000000000000000164e-05,-1.000000000000000082e-05,-1.000000000000000082e-05,-1.000000000000000082e-05,1.000000000000000000e+00,1.300000000000000000e+01
3.503600000000000000e+04,-2.000000000000000164e-05,-6.999999999999999387e-05,-2.000000000000000164e-05,-1.000000000000000082e-05,-2.000000000000000164e-05,-1.000000000000000082e-05,-1.000000000000000082e-05,-1.000000000000000082e-05,1.000000000000000000e+00,1.300000000000000000e+01
3.503900000000000000e+04,-2.000000000000000164e-05,-6.999999999999999387e-05,-2.000000000000000164e-05,-1.000000000000000082e-05,-2.000000000000000164e-05,-1.000000000000000082e-05,-1.000000000000000082e-05,-1.000000000000000082e-05,1.000000000000000000e+00,1.300000000000000000e+01
3.504000000000000000e+04,-2.000000000000000164e-05,-6.999999999999999387e-05,-2.000000000000000164e-05,-1.000000000000000082e-05,-2.000000000000000164e-05,-1.000000000000000082e-05,-1.000000000000000082e-05,-1.000000000000000082e-05,1.000000000000000000e+00,1.300000000000000000e+01
3.504100000000000000e+04,-2.000000000000000164e-05,-6.999999999999999387e-05,-2.000000000000000164e-05,-1.000000000000000082e-05,-2.000000000000000164e-05,-1.000000000000000082e-05,-1.000000000000000082e-05,-1.000000000000000082e-05,1.000000000000000000e+00,1.300000000000000000e+01
3.504200000000000000e+04,-2.000000000000000164e-05,-6.999999999999999387e-05,-2.000000000000000164e-05,-1.000000000000000082e-05,-2.000000000000000164e-05,-1.000000000000000082e-05,-1.000000000000000082e-05,-1.000000000000000082e-05,1.000000000000000000e+00,1.300000000000000000e+01
3.504300000000000000e+04,-1.000000000000000082e-05,-2.000000000000000164e-05,-1.000000000000000082e-05,0.000000000000000000e+00,0.000000000000000000e+00,0.000000000000000000e+00,-2.000000000000000164e-05,-2.000000000000000164e-05,1.000000000000000000e+00,1.300000000000000000e+01
3.504400000000000000e+04,-1.000000000000000082e-05,-2.000000000000000164e-05,-1.000000000000000082e-05,0.000000000000000000e+00,0.000000000000000000e+00,0.000000000000000000e+00,-2.000000000000000164e-05,-2.000000000000000164e-05,1.000000000000000000e+00,1.300000000000000000e+01
3.504500000000000000e+04,0.000000000000000000e+00,-1.000000000000000082e-05,-1.000000000000000082e-05,0.000000000000000000e+00,1.000000000000000082e-05,5.000000000000000240e-05,0.000000000000000000e+00,-1.000000000000000082e-05,1.000000000000000000e+00,1.300000000000000000e+01
3.504700000000000000e+04,0.000000000000000000e+00,-1.000000000000000082e-05,-1.000000000000000082e-05,0.000000000000000000e+00,1.000000000000000082e-05,5.000000000000000240e-05,0.000000000000000000e+00,-1.000000000000000082e-05,1.000000000000000000e+00,1.300000000000000000e+01
3.504800000000000000e+04,0.000000000000000000e+00,-1.000000000000000082e-05,-1.000000000000000082e-05,0.000000000000000000e+00,1.000000000000000082e-05,5.000000000000000240e-05,0.000000000000000000e+00,-1.000000000000000082e-05,1.000000000000000000e+00,1.300000000000000000e+01
3.504900000000000000e+04,0.000000000000000000e+00,-1.000000000000000082e-05,-1.000000000000000082e-05,0.000000000000000000e+00,1.000000000000000082e-05,5.000000000000000240e-05,0.000000000000000000e+00,-1.000000000000000082e-05,1.000000000000000000e+00,1.300000000000000000e+01
3.505000000000000000e+04,0.000000000000000000e+00,-1.000000000000000082e-05,-1.000000000000000082e-05,0.000000000000000000e+00,1.000000000000000082e-05,5.000000000000000240e-05,0.000000000000000000e+00,-1.000000000000000082e-05,1.000000000000000000e+00,1.300000000000000000e+01
3.505100000000000000e+04,0.000000000000000000e+00,-1.000000000000000082e-05,-1.000000000000000082e-05,0.000000000000000000e+00,1.000000000000000082e-05,5.000000000000000240e-05,0.000000000000000000e+00,-1.000000000000000082e-05,1.000000000000000000e+00,1.300000000000000000e+01
3.505200000000000000e+04,0.000000000000000000e+00,-1.000000000000000082e-05,-1.000000000000000082e-05,0.000000000000000000e+00,1.000000000000000082e-05,5.000000000000000240e-05,0.000000000000000000e+00,-1.000000000000000082e-05,1.000000000000000000e+00,1.300000000000000000e+01
3.505300000000000000e+04,0.000000000000000000e+00,-1.000000000000000082e-05,-1.000000000000000082e-05,0.000000000000000000e+00,1.000000000000000082e-05,5.000000000000000240e-05,0.000000000000000000e+00,-1.000000000000000082e-05,1.000000000000000000e+00,1.300000000000000000e+01
3.505400000000000000e+04,0.000000000000000000e+00,-1.000000000000000082e-05,-1.000000000000000082e-05,0.000000000000000000e+00,1.000000000000000082e-05,5.000000000000000240e-05,0.000000000000000000e+00,-1.000000000000000082e-05,1.000000000000000000e+00,1.300000000000000000e+01
3.505500000000000000e+04,0.000000000000000000e+00,-1.000000000000000082e-05,-1.000000000000000082e-05,0.000000000000000000e+00,1.000000000000000082e-05,5.000000000000000240e-05,0.000000000000000000e+00,-1.000000000000000082e-05,1.000000000000000000e+00,1.300000000000000000e+01
3.505600000000000000e+04,0.000000000000000000e+00,-1.000000000000000082e-05,-1.000000000000000082e-05,0.000000000000000000e+00,1.000000000000000082e-05,5.000000000000000240e-05,0.000000000000000000e+00,-1.000000000000000082e-05,1.000000000000000000e+00,1.300000000000000000e+01
3.505700000000000000e+04,0.000000000000000000e+00,-1.000000000000000082e-05,-1.000000000000000082e-05,0.000000000000000000e+00,1.000000000000000082e-05,5.000000000000000240e-05,0.000000000000000000e+00,-1.000000000000000082e-05,1.000000000000000000e+00,1.300000000000000000e+01
3.505800000000000000e+04,0.000000000000000000e+00,-1.000000000000000082e-05,-1.000000000000000082e-05,0.000000000000000000e+00,1.000000000000000082e-05,5.000000000000000240e-05,0.000000000000000000e+00,-1.000000000000000082e-05,1.000000000000000000e+00,1.300000000000000000e+01
3.505900000000000000e+04,0.000000000000000000e+00,-1.000000000000000082e-05,-1.000000000000000082e-05,0.000000000000000000e+00,1.000000000000000082e-05,5.000000000000000240e-05,0.000000000000000000e+00,-1.000000000000000082e-05,1.000000000000000000e+00,1.300000000000000000e+01
3.506000000000000000e+04,0.000000000000000000e+00,-1.000000000000000082e-05,-1.000000000000000082e-05,0.000000000000000000e+00,1.000000000000000082e-05,5.000000000000000240e-05,0.000000000000000000e+00,-1.000000000000000082e-05,1.000000000000000000e+00,1.300000000000000000e+01
3.506100000000000000e+04,0.000000000000000000e+00,-1.000000000000000082e-05,-1.000000000000000082e-05,0.000000000000000000e+00,1.000000000000000082e-05,5.000000000000000240e-05,0.000000000000000000e+00,-1.000000000000000082e-05,1.000000000000000000e+00,1.300000000000000000e+01
3.506200000000000000e+04,0.000000000000000000e+00,-1.000000000000000082e-05,-1.000000000000000082e-05,0.000000000000000000e+00,1.000000000000000082e-05,5.000000000000000240e-05,0.000000000000000000e+00,-1.000000000000000082e-05,1.000000000000000000e+00,1.300000000000000000e+01
3.506300000000000000e+04,0.000000000000000000e+00,-1.000000000000000082e-05,-1.000000000000000082e-05,0.000000000000000000e+00,1.000000000000000082e-05,5.000000000000000240e-05,0.000000000000000000e+00,-1.000000000000000082e-05,1.000000000000000000e+00,1.300000000000000000e+01
3.506400000000000000e+04,0.000000000000000000e+00,-1.000000000000000082e-05,-1.000000000000000082e-05,0.000000000000000000e+00,1.000000000000000082e-05,5.000000000000000240e-05,0.000000000000000000e+00,-1.000000000000000082e-05,1.000000000000000000e+00,1.300000000000000000e+01
3.506500000000000000e+04,0.000000000000000000e+00,-1.000000000000000082e-05,-1.000000000000000082e-05,0.000000000000000000e+00,1.000000000000000082e-05,5.000000000000000240e-05,0.000000000000000000e+00,-1.000000000000000082e-05,1.000000000000000000e+00,1.300000000000000000e+01
3.506600000000000000e+04,0.000000000000000000e+00,-1.000000000000000082e-05,1.000000000000000082e-05,-2.000000000000000164e-05,-2.999999999999999737e-05,-2.000000000000000164e-05,-2.000000000000000164e-05,1.000000000000000082e-05,1.000000000000000000e+00,1.300000000000000000e+01
3.506700000000000000e+04,-5.000000000000000240e-05,-5.000000000000000240e-05,-2.999999999999999737e-05,0.000000000000000000e+00,-2.000000000000000164e-05,-1.000000000000000082e-05,0.000000000000000000e+00,-2.000000000000000164e-05,1.000000000000000000e+00,1.300000000000000000e+01
3.506800000000000000e+04,-5.000000000000000240e-05,-5.000000000000000240e-05,-2.999999999999999737e-05,0.000000000000000000e+00,-2.000000000000000164e-05,-1.000000000000000082e-05,0.000000000000000000e+00,-2.000000000000000164e-05,1.000000000000000000e+00,1.300000000000000000e+01
3.506900000000000000e+04,-5.000000000000000240e-05,-5.000000000000000240e-05,-2.999999999999999737e-05,0.000000000000000000e+00,-2.000000000000000164e-05,-1.000000000000000082e-05,0.000000000000000000e+00,-2.000000000000000164e-05,1.000000000000000000e+00,1.300000000000000000e+01
3.507000000000000000e+04,-5.000000000000000240e-05,-5.000000000000000240e-05,-2.999999999999999737e-05,0.000000000000000000e+00,-2.000000000000000164e-05,-1.000000000000000082e-05,0.000000000000000000e+00,-2.000000000000000164e-05,1.000000000000000000e+00,1.300000000000000000e+01
3.507100000000000000e+04,-5.000000000000000240e-05,-5.000000000000000240e-05,-2.999999999999999737e-05,0.000000000000000000e+00,-2.000000000000000164e-05,-1.000000000000000082e-05,0.000000000000000000e+00,-2.000000000000000164e-05,1.000000000000000000e+00,1.300000000000000000e+01
3.507200000000000000e+04,-5.000000000000000240e-05,-5.000000000000000240e-05,-2.999999999999999737e-05,0.000000000000000000e+00,-2.000000000000000164e-05,-1.000000000000000082e-05,0.000000000000000000e+00,-2.000000000000000164e-05,1.000000000000000000e+00,1.300000000000000000e+01
3.507300000000000000e+04,-5.000000000000000240e-05,-5.000000000000000240e-05,-2.999999999999999737e-05,0.000000000000000000e+00,-2.000000000000000164e-05,-1.000000000000000082e-05,0.000000000000000000e+00,-2.000000000000000164e-05,1.000000000000000000e+00,1.300000000000000000e+01
3.507400000000000000e+04,-5.000000000000000240e-05,-5.000000000000000240e-05,-2.999999999999999737e-05,0.000000000000000000e+00,-2.000000000000000164e-05,-1.000000000000000082e-05,0.000000000000000000e+00,-2.000000000000000164e-05,1.000000000000000000e+00,1.300000000000000000e+01
3.507500000000000000e+04,-5.000000000000000240e-05,-5.000000000000000240e-05,-2.999999999999999737e-05,0.000000000000000000e+00,-2.000000000000000164e-05,-1.000000000000000082e-05,0.000000000000000000e+00,-2.000000000000000164e-05,1.000000000000000000e+00,1.300000000000000000e+01
3.507600000000000000e+04,-5.000000000000000240e-05,-5.000000000000000240e-05,-2.999999999999999737e-05,0.000000000000000000e+00,-2.000000000000000164e-05,-1.000000000000000082e-05,0.000000000000000000e+00,-2.000000000000000164e-05,1.000000000000000000e+00,1.300000000000000000e+01
3.507700000000000000e+04,-5.000000000000000240e-05,-5.000000000000000240e-05,-2.999999999999999737e-05,0.000000000000000000e+00,-2.000000000000000164e-05,-1.000000000000000082e-05,0.000000000000000000e+00,-2.000000000000000164e-05,1.000000000000000000e+00,1.300000000000000000e+01
3.507800000000000000e+04,-5.000000000000000240e-05,-5.000000000000000240e-05,-2.999999999999999737e-05,0.000000000000000000e+00,-2.000000000000000164e-05,-1.000000000000000082e-05,0.000000000000000000e+00,-2.000000000000000164e-05,1.000000000000000000e+00,1.300000000000000000e+01
3.507900000000000000e+04,-5.000000000000000240e-05,-5.000000000000000240e-05,-2.999999999999999737e-05,0.000000000000000000e+00,-2.000000000000000164e-05,-1.000000000000000082e-05,0.000000000000000000e+00,-2.000000000000000164e-05,1.000000000000000000e+00,1.300000000000000000e+01
3.508000000000000000e+04,-5.000000000000000240e-05,-5.000000000000000240e-05,-2.999999999999999737e-05,0.000000000000000000e+00,-2.000000000000000164e-05,-1.000000000000000082e-05,0.000000000000000000e+00,-2.000000000000000164e-05,1.000000000000000000e+00,1.300000000000000000e+01
3.508100000000000000e+04,0.000000000000000000e+00,0.000000000000000000e+00,-2.000000000000000164e-05,-2.999999999999999737e-05,-1.000000000000000082e-05,0.000000000000000000e+00,0.000000000000000000e+00,0.000000000000000000e+00,1.000000000000000000e+00,1.300000000000000000e+01
3.508200000000000000e+04,2.999999999999999737e-05,1.000000000000000082e-05,5.000000000000000240e-05,2.000000000000000164e-05,1.000000000000000082e-05,-2.000000000000000164e-05,0.000000000000000000e+00,-1.000000000000000082e-05,1.000000000000000000e+00,1.300000000000000000e+01
3.508300000000000000e+04,2.999999999999999737e-05,1.000000000000000082e-05,5.000000000000000240e-05,2.000000000000000164e-05,1.000000000000000082e-05,-2.000000000000000164e-05,0.000000000000000000e+00,-1.000000000000000082e-05,1.000000000000000000e+00,1.300000000000000000e+01
3.508400000000000000e+04,2.999999999999999737e-05,1.000000000000000082e-05,5.000000000000000240e-05,2.000000000000000164e-05,1.000000000000000082e-05,-2.000000000000000164e-05,0.000000000000000000e+00,-1.000000000000000082e-05,1.000000000000000000e+00,1.300000000000000000e+01
3.508500000000000000e+04,2.999999999999999737e-05,1.000000000000000082e-05,5.000000000000000240e-05,2.000000000000000164e-05,1.000000000000000082e-05,-2.000000000000000164e-05,0.000000000000000000e+00,-1.000000000000000082e-05,1.000000000000000000e+00,1.300000000000000000e+01
3.508600000000000000e+04,2.999999999999999737e-05,1.000000000000000082e-05,5.000000000000000240e-05,2.000000000000000164e-05,1.000000000000000082e-05,-2.000000000000000164e-05,0.000000000000000000e+00,-1.000000000000000082e-05,1.000000000000000000e+00,1.300000000000000000e+01
3.508800000000000000e+04,2.999999999999999737e-05,1.000000000000000082e-05,5.000000000000000240e-05,2.000000000000000164e-05,1.000000000000000082e-05,-2.000000000000000164e-05,0.000000000000000000e+00,-1.000000000000000082e-05,1.000000000000000000e+00,1.300000000000000000e+01
3.508900000000000000e+04,2.999999999999999737e-05,1.000000000000000082e-05,5.000000000000000240e-05,2.000000000000000164e-05,1.000000000000000082e-05,-2.000000000000000164e-05,0.000000000000000000e+00,-1.000000000000000082e-05,1.000000000000000000e+00,1.300000000000000000e+01
3.509000000000000000e+04,2.999999999999999737e-05,1.000000000000000082e-05,5.000000000000000240e-05,2.000000000000000164e-05,1.000000000000000082e-05,-2.000000000000000164e-05,0.000000000000000000e+00,-1.000000000000000082e-05,1.000000000000000000e+00,1.300000000000000000e+01
3.509100000000000000e+04,2.999999999999999737e-05,1.000000000000000082e-05,5.000000000000000240e-05,2.000000000000000164e-05,1.000000000000000082e-05,-2.000000000000000164e-05,0.000000000000000000e+00,-1.000000000000000082e-05,1.000000000000000000e+00,1.300000000000000000e+01
3.509200000000000000e+04,2.999999999999999737e-05,1.000000000000000082e-05,5.000000000000000240e-05,2.000000000000000164e-05,1.000000000000000082e-05,-2.000000000000000164e-05,0.000000000000000000e+00,-1.000000000000000082e-05,1.000000000000000000e+00,1.300000000000000000e+01
3.509300000000000000e+04,2.999999999999999737e-05,1.000000000000000082e-05,5.000000000000000240e-05,2.000000000000000164e-05,1.000000000000000082e-05,-2.000000000000000164e-05,0.000000000000000000e+00,-1.000000000000000082e-05,1.000000000000000000e+00,1.300000000000000000e+01
3.509400000000000000e+04,2.999999999999999737e-05,1.000000000000000082e-05,5.000000000000000240e-05,2.000000000000000164e-05,1.000000000000000082e-05,-2.000000000000000164e-05,0.000000000000000000e+00,-1.000000000000000082e-05,1.000000000000000000e+00,1.300000000000000000e+01
3.509500000000000000e+04,2.999999999999999737e-05,1.000000000000000082e-05,5.000000000000000240e-05,2.000000000000000164e-05,1.000000000000000082e-05,-2.000000000000000164e-05,0.000000000000000000e+00,-1.000000000000000082e-05,1.000000000000000000e+00,1.300000000000000000e+01
3.509600000000000000e+04,2.999999999999999737e-05,1.000000000000000082e-05,5.000000000000000240e-05,2.000000000000000164e-05,1.000000000000000082e-05,-2.000000000000000164e-05,0.000000000000000000e+00,-1.000000000000000082e-05,1.000000000000000000e+00,1.300000000000000000e+01
3.509700000000000000e+04,2.999999999999999737e-05,1.000000000000000082e-05,5.000000000000000240e-05,2.000000000000000164e-05,1.000000000000000082e-05,-2.000000000000000164e-05,0.000000000000000000e+00,-1.000000000000000082e-05,1.000000000000000000e+00,1.300000000000000000e+01
3.509800000000000000e+04,2.999999999999999737e-05,1.000000000000000082e-05,5.000000000000000240e-05,2.000000000000000164e-05,1.000000000000000082e-05,-2.000000000000000164e-05,0.000000000000000000e+00,-1.000000000000000082e-05,1.000000000000000000e+00,1.300000000000000000e+01
3.509900000000000000e+04,2.999999999999999737e-05,1.000000000000000082e-05,5.000000000000000240e-05,2.000000000000000164e-05,1.000000000000000082e-05,-2.000000000000000164e-05,0.000000000000000000e+00,-1.000000000000000082e-05,1.000000000000000000e+00,1.300000000000000000e+01
3.510000000000000000e+04,2.999999999999999737e-05,1.000000000000000082e-05,5.000000000000000240e-05,2.000000000000000164e-05,1.000000000000000082e-05,-2.000000000000000164e-05,0.000000000000000000e+00,-1.000000000000000082e-05,1.000000000000000000e+00,1.300000000000000000e+01
3.510100000000000000e+04,2.999999999999999737e-05,1.000000000000000082e-05,5.000000000000000240e-05,2.000000000000000164e-05,1.000000000000000082e-05,-2.000000000000000164e-05,0.000000000000000000e+00,-1.000000000000000082e-05,1.000000000000000000e+00,1.300000000000000000e+01
3.510200000000000000e+04,2.999999999999999737e-05,1.000000000000000082e-05,5.000000000000000240e-05,2.000000000000000164e-05,1.000000000000000082e-05,-2.000000000000000164e-05,0.000000000000000000e+00,-1.000000000000000082e-05,1.000000000000000000e+00,1.300000000000000000e+01
3.510300000000000000e+04,-1.000000000000000082e-05,-4.000000000000000327e-05,-4.000000000000000327e-05,-2.999999999999999737e-05,-2.999999999999999737e-05,-1.000000000000000082e-05,-1.000000000000000082e-05,-2.999999999999999737e-05,1.000000000000000000e+00,1.300000000000000000e+01
3.510400000000000000e+04,-1.000000000000000082e-05,-4.000000000000000327e-05,-4.000000000000000327e-05,-2.999999999999999737e-05,-2.999999999999999737e-05,-1.000000000000000082e-05,-1.000000000000000082e-05,-2.999999999999999737e-05,1.000000000000000000e+00,1.300000000000000000e+01
3.510500000000000000e+04,0.000000000000000000e+00,-1.000000000000000082e-05,-4.000000000000000327e-05,-1.000000000000000082e-05,-1.000000000000000082e-05,-2.999999999999999737e-05,-2.000000000000000164e-05,1.000000000000000082e-05,1.000000000000000000e+00,1.300000000000000000e+01
3.510600000000000000e+04,0.000000000000000000e+00,-1.000000000000000082e-05,-4.000000000000000327e-05,-1.000000000000000082e-05,-1.000000000000000082e-05,-2.999999999999999737e-05,-2.000000000000000164e-05,1.000000000000000082e-05,1.000000000000000000e+00,1.300000000000000000e+01
3.510700000000000000e+04,0.000000000000000000e+00,-1.000000000000000082e-05,-4.000000000000000327e-05,-1.000000000000000082e-05,-1.000000000000000082e-05,-2.999999999999999737e-05,-2.000000000000000164e-05,1.000000000000000082e-05,1.000000000000000000e+00,1.300000000000000000e+01
3.510800000000000000e+04,0.000000000000000000e+00,-1.000000000000000082e-05,-4.000000000000000327e-05,-1.000000000000000082e-05,-1.000000000000000082e-05,-2.999999999999999737e-05,-2.000000000000000164e-05,1.000000000000000082e-05,1.000000000000000000e+00,1.300000000000000000e+01
3.510900000000000000e+04,0.000000000000000000e+00,-1.000000000000000082e-05,-4.000000000000000327e-05,-1.000000000000000082e-05,-1.000000000000000082e-05,-2.999999999999999737e-05,-2.000000000000000164e-05,1.000000000000000082e-05,1.000000000000000000e+00,1.300000000000000000e+01
3.511000000000000000e+04,0.000000000000000000e+00,-1.000000000000000082e-05,-4.000000000000000327e-05,-1.000000000000000082e-05,-1.000000000000000082e-05,-2.999999999999999737e-05,-2.000000000000000164e-05,1.000000000000000082e-05,1.000000000000000000e+00,1.300000000000000000e+01
3.511100000000000000e+04,0.000000000000000000e+00,-1.000000000000000082e-05,-4.000000000000000327e-05,-1.000000000000000082e-05,-1.000000000000000082e-05,-2.999999999999999737e-05,-2.000000000000000164e-05,1.000000000000000082e-05,1.000000000000000000e+00,1.300000000000000000e+01
3.511200000000000000e+04,0.000000000000000000e+00,-1.000000000000000082e-05,-4.000000000000000327e-05,-1.000000000000000082e-05,-1.000000000000000082e-05,-2.999999999999999737e-05,-2.000000000000000164e-05,1.000000000000000082e-05,1.000000000000000000e+00,1.300000000000000000e+01
3.511300000000000000e+04,0.000000000000000000e+00,-1.000000000000000082e-05,-4.000000000000000327e-05,-1.000000000000000082e-05,-1.000000000000000082e-05,-2.999999999999999737e-05,-2.000000000000000164e-05,1.000000000000000082e-05,1.000000000000000000e+00,1.300000000000000000e+01
3.511400000000000000e+04,0.000000000000000000e+00,-1.000000000000000082e-05,-4.000000000000000327e-05,-1.000000000000000082e-05,-1.000000000000000082e-05,-2.999999999999999737e-05,-2.000000000000000164e-05,1.000000000000000082e-05,1.000000000000000000e+00,1.300000000000000000e+01
3.511500000000000000e+04,0.000000000000000000e+00,-1.000000000000000082e-05,-4.000000000000000327e-05,-1.000000000000000082e-05,-1.000000000000000082e-05,-2.999999999999999737e-05,-2.000000000000000164e-05,1.000000000000000082e-05,1.000000000000000000e+00,1.300000000000000000e+01
3.511600000000000000e+04,0.000000000000000000e+00,-1.000000000000000082e-05,-4.000000000000000327e-05,-1.000000000000000082e-05,-1.000000000000000082e-05,-2.999999999999999737e-05,-2.000000000000000164e-05,1.000000000000000082e-05,1.000000000000000000e+00,1.300000000000000000e+01
3.511700000000000000e+04,0.000000000000000000e+00,-1.000000000000000082e-05,-4.000000000000000327e-05,-1.000000000000000082e-05,-1.000000000000000082e-05,-2.999999999999999737e-05,-2.000000000000000164e-05,1.000000000000000082e-05,1.000000000000000000e+00,1.300000000000000000e+01
3.511800000000000000e+04,0.000000000000000000e+00,-1.000000000000000082e-05,-4.000000000000000327e-05,-1.000000000000000082e-05,-1.000000000000000082e-05,-2.999999999999999737e-05,-2.000000000000000164e-05,1.000000000000000082e-05,1.000000000000000000e+00,1.300000000000000000e+01
3.511900000000000000e+04,0.000000000000000000e+00,-1.000000000000000082e-05,-4.000000000000000327e-05,-1.000000000000000082e-05,-1.000000000000000082e-05,-2.999999999999999737e-05,-2.000000000000000164e-05,1.000000000000000082e-05,1.000000000000000000e+00,1.300000000000000000e+01
3.512000000000000000e+04,0.000000000000000000e+00,-1.000000000000000082e-05,-4.000000000000000327e-05,-1.000000000000000082e-05,-1.000000000000000082e-05,-2.999999999999999737e-05,-2.000000000000000164e-05,1.000000000000000082e-05,1.000000000000000000e+00,1.300000000000000000e+01
3.512100000000000000e+04,0.000000000000000000e+00,-1.000000000000000082e-05,-4.000000000000000327e-05,-1.000000000000000082e-05,-1.000000000000000082e-05,-2.999999999999999737e-05,-2.000000000000000164e-05,1.000000000000000082e-05,1.000000000000000000e+00,1.300000000000000000e+01
3.512200000000000000e+04,0.000000000000000000e+00,-1.000000000000000082e-05,-4.000000000000000327e-05,-1.000000000000000082e-05,-1.000000000000000082e-05,-2.999999999999999737e-05,-2.000000000000000164e-05,1.000000000000000082e-05,1.000000000000000000e+00,1.300000000000000000e+01
3.512300000000000000e+04,0.000000000000000000e+00,-1.000000000000000082e-05,-4.000000000000000327e-05,-1.000000000000000082e-05,-1.000000000000000082e-05,-2.999999999999999737e-05,-2.000000000000000164e-05,1.000000000000000082e-05,1.000000000000000000e+00,1.300000000000000000e+01
3.512400000000000000e+04,0.000000000000000000e+00,-1.000000000000000082e-05,-4.000000000000000327e-05,-1.000000000000000082e-05,-1.000000000000000082e-05,-2.999999999999999737e-05,-2.000000000000000164e-05,1.000000000000000082e-05,1.000000000000000000e+00,1.300000000000000000e+01
3.512500000000000000e+04,0.000000000000000000e+00,-1.000000000000000082e-05,-4.000000000000000327e-05,-1.000000000000000082e-05,-1.000000000000000082e-05,-2.999999999999999737e-05,-2.000000000000000164e-05,1.000000000000000082e-05,1.000000000000000000e+00,1.300000000000000000e+01
3.512600000000000000e+04,0.000000000000000000e+00,5.000000000000000240e-05,5.000000000000000240e-05,2.000000000000000164e-05,1.000000000000000082e-05,0.000000000000000000e+00,-1.000000000000000082e-05,1.000000000000000082e-05,1.000000000000000000e+00,1.300000000000000000e+01
3.512700000000000000e+04,-4.000000000000000327e-05,-5.999999999999999474e-05,-5.999999999999999474e-05,-4.000000000000000327e-05,-2.999999999999999737e-05,-2.999999999999999737e-05,-2.000000000000000164e-05,-2.999999999999999737e-05,1.000000000000000000e+00,1.300000000000000000e+01
3.512800000000000000e+04,-4.000000000000000327e-05,-5.999999999999999474e-05,-5.999999999999999474e-05,-4.000000000000000327e-05,-2.999999999999999737e-05,-2.999999999999999737e-05,-2.000000000000000164e-05,-2.999999999999999737e-05,1.000000000000000000e+00,1.300000000000000000e+01
3.512900000000000000e+04,-4.000000000000000327e-05,-5.999999999999999474e-05,-5.999999999999999474e-05,-4.000000000000000327e-05,-2.999999999999999737e-05,-2.999999999999999737e-05,-2.000000000000000164e-05,-2.999999999999999737e-05,1.000000000000000000e+00,1.300000000000000000e+01
3.513000000000000000e+04,-4.000000000000000327e-05,-5.999999999999999474e-05,-5.999999999999999474e-05,-4.000000000000000327e-05,-2.999999999999999737e-05,-2.999999999999999737e-05,-2.000000000000000164e-05,-2.999999999999999737e-05,1.000000000000000000e+00,1.300000000000000000e+01
3.513100000000000000e+04,-4.000000000000000327e-05,-5.999999999999999474e-05,-5.999999999999999474e-05,-4.000000000000000327e-05,-2.999999999999999737e-05,-2.999999999999999737e-05,-2.000000000000000164e-05,-2.999999999999999737e-05,1.000000000000000000e+00,1.300000000000000000e+01
3.513200000000000000e+04,-4.000000000000000327e-05,-5.999999999999999474e-05,-5.999999999999999474e-05,-4.000000000000000327e-05,-2.999999999999999737e-05,-2.999999999999999737e-05,-2.000000000000000164e-05,-2.999999999999999737e-05,1.000000000000000000e+00,1.300000000000000000e+01
3.513300000000000000e+04,-4.000000000000000327e-05,-5.999999999999999474e-05,-5.999999999999999474e-05,-4.000000000000000327e-05,-2.999999999999999737e-05,-2.999999999999999737e-05,-2.000000000000000164e-05,-2.999999999999999737e-05,1.000000000000000000e+00,1.300000000000000000e+01
3.513400000000000000e+04,-4.000000000000000327e-05,-5.999999999999999474e-05,-5.999999999999999474e-05,-4.000000000000000327e-05,-2.999999999999999737e-05,-2.999999999999999737e-05,-2.000000000000000164e-05,-2.999999999999999737e-05,1.000000000000000000e+00,1.300000000000000000e+01
3.513500000000000000e+04,-4.000000000000000327e-05,-5.999999999999999474e-05,-5.999999999999999474e-05,-4.000000000000000327e-05,-2.999999999999999737e-05,-2.999999999999999737e-05,-2.000000000000000164e-05,-2.999999999999999737e-05,1.000000000000000000e+00,1.300000000000000000e+01
3.513600000000000000e+04,-4.000000000000000327e-05,-5.999999999999999474e-05,-5.999999999999999474e-05,-4.000000000000000327e-05,-2.999999999999999737e-05,-2.999999999999999737e-05,-2.000000000000000164e-05,-2.999999999999999737e-05,1.000000000000000000e+00,1.300000000000000000e+01
3.513900000000000000e+04,-4.000000000000000327e-05,-5.999999999999999474e-05,-5.999999999999999474e-05,-4.000000000000000327e-05,-2.999999999999999737e-05,-2.999999999999999737e-05,-2.000000000000000164e-05,-2.999999999999999737e-05,1.000000000000000000e+00,1.300000000000000000e+01
3.514000000000000000e+04,-1.000000000000000082e-05,-4.000000000000000327e-05,-6.999999999999999387e-05,-5.000000000000000240e-05,-2.000000000000000164e-05,-2.000000000000000164e-05,-2.000000000000000164e-05,-2.999999999999999737e-05,1.000000000000000000e+00,1.300000000000000000e+01
3.514100000000000000e+04,-1.000000000000000082e-05,-2.000000000000000164e-05,-2.000000000000000164e-05,-1.000000000000000082e-05,-1.000000000000000082e-05,-2.000000000000000164e-05,0.000000000000000000e+00,0.000000000000000000e+00,1.000000000000000000e+00,1.300000000000000000e+01
3.514200000000000000e+04,-1.000000000000000082e-05,-2.000000000000000164e-05,-2.000000000000000164e-05,-1.000000000000000082e-05,-1.000000000000000082e-05,-2.000000000000000164e-05,0.000000000000000000e+00,0.000000000000000000e+00,1.000000000000000000e+00,1.300000000000000000e+01
3.514300000000000000e+04,-1.000000000000000082e-05,-2.000000000000000164e-05,-2.000000000000000164e-05,-1.000000000000000082e-05,-1.000000000000000082e-05,-2.000000000000000164e-05,0.000000000000000000e+00,0.000000000000000000e+00,1.000000000000000000e+00,1.300000000000000000e+01
3.514400000000000000e+04,-1.000000000000000082e-05,-2.000000000000000164e-05,-2.000000000000000164e-05,-1.000000000000000082e-05,-1.000000000000000082e-05,-2.000000000000000164e-05,0.000000000000000000e+00,0.000000000000000000e+00,1.000000000000000000e+00,1.300000000000000000e+01
3.514500000000000000e+04,-1.000000000000000082e-05,-2.000000000000000164e-05,-2.000000000000000164e-05,-1.000000000000000082e-05,-1.000000000000000082e-05,-2.000000000000000164e-05,0.000000000000000000e+00,0.000000000000000000e+00,1.000000000000000000e+00,1.300000000000000000e+01
3.514600000000000000e+04,-1.000000000000000082e-05,-2.000000000000000164e-05,-2.000000000000000164e-05,-1.000000000000000082e-05,-1.000000000000000082e-05,-2.000000000000000164e-05,0.000000000000000000e+00,0.000000000000000000e+00,1.000000000000000000e+00,1.300000000000000000e+01
3.514700000000000000e+04,-2.000000000000000164e-05,-2.999999999999999737e-05,1.000000000000000082e-05,-2.999999999999999737e-05,0.000000000000000000e+00,0.000000000000000000e+00,-2.000000000000000164e-05,-1.000000000000000082e-05,1.000000000000000000e+00,1.300000000000000000e+01
3.514800000000000000e+04,-2.000000000000000164e-05,-2.999999999999999737e-05,1.000000000000000082e-05,-2.999999999999999737e-05,0.000000000000000000e+00,0.000000000000000000e+00,-2.000000000000000164e-05,-1.000000000000000082e-05,1.000000000000000000e+00,1.300000000000000000e+01
3.514900000000000000e+04,-2.000000000000000164e-05,-2.999999999999999737e-05,1.000000000000000082e-05,-2.999999999999999737e-05,0.000000000000000000e+00,0.000000000000000000e+00,-2.000000000000000164e-05,-1.000000000000000082e-05,1.000000000000000000e+00,1.300000000000000000e+01
3.515000000000000000e+04,-2.000000000000000164e-05,-2.999999999999999737e-05,1.000000000000000082e-05,-2.999999999999999737e-05,0.000000000000000000e+00,0.000000000000000000e+00,-2.000000000000000164e-05,-1.000000000000000082e-05,1.000000000000000000e+00,1.300000000000000000e+01
3.515100000000000000e+04,-2.000000000000000164e-05,-2.999999999999999737e-05,1.000000000000000082e-05,-2.999999999999999737e-05,0.000000000000000000e+00,0.000000000000000000e+00,-2.000000000000000164e-05,-1.000000000000000082e-05,1.000000000000000000e+00,1.300000000000000000e+01
3.515200000000000000e+04,-2.000000000000000164e-05,-2.999999999999999737e-05,1.000000000000000082e-05,-2.999999999999999737e-05,0.000000000000000000e+00,0.000000000000000000e+00,-2.000000000000000164e-05,-1.000000000000000082e-05,1.000000000000000000e+00,1.300000000000000000e+01
3.515300000000000000e+04,-2.000000000000000164e-05,-2.999999999999999737e-05,1.000000000000000082e-05,-2.999999999999999737e-05,0.000000000000000000e+00,0.000000000000000000e+00,-2.000000000000000164e-05,-1.000000000000000082e-05,1.000000000000000000e+00,1.300000000000000000e+01
3.515400000000000000e+04,-2.000000000000000164e-05,-2.999999999999999737e-05,1.000000000000000082e-05,-2.999999999999999737e-05,0.000000000000000000e+00,0.000000000000000000e+00,-2.000000000000000164e-05,-1.000000000000000082e-05,1.000000000000000000e+00,1.300000000000000000e+01
3.515500000000000000e+04,-2.000000000000000164e-05,-2.999999999999999737e-05,1.000000000000000082e-05,-2.999999999999999737e-05,0.000000000000000000e+00,0.000000000000000000e+00,-2.000000000000000164e-05,-1.000000000000000082e-05,1.000000000000000000e+00,1.300000000000000000e+01
3.515600000000000000e+04,-2.000000000000000164e-05,-2.999999999999999737e-05,1.000000000000000082e-05,-2.999999999999999737e-05,0.000000000000000000e+00,0.000000000000000000e+00,-2.000000000000000164e-05,-1.000000000000000082e-05,1.000000000000000000e+00,1.300000000000000000e+01
3.515700000000000000e+04,-2.000000000000000164e-05,-2.999999999999999737e-05,1.000000000000000082e-05,-2.999999999999999737e-05,0.000000000000000000e+00,0.000000000000000000e+00,-2.000000000000000164e-05,-1.000000000000000082e-05,1.000000000000000000e+00,1.300000000000000000e+01
3.515800000000000000e+04,-2.000000000000000164e-05,-2.999999999999999737e-05,1.000000000000000082e-05,-2.999999999999999737e-05,0.000000000000000000e+00,0.000000000000000000e+00,-2.000000000000000164e-05,-1.000000000000000082e-05,1.000000000000000000e+00,1.300000000000000000e+01
3.515900000000000000e+04,-2.000000000000000164e-05,-2.999999999999999737e-05,1.000000000000000082e-05,-2.999999999999999737e-05,0.000000000000000000e+00,0.000000000000000000e+00,-2.000000000000000164e-05,-1.000000000000000082e-05,1.000000000000000000e+00,1.300000000000000000e+01
3.516000000000000000e+04,-2.000000000000000164e-05,-2.999999999999999737e-05,1.000000000000000082e-05,-2.999999999999999737e-05,0.000000000000000000e+00,0.000000000000000000e+00,-2.000000000000000164e-05,-1.000000000000000082e-05,1.000000000000000000e+00,1.300000000000000000e+01
3.516100000000000000e+04,-2.000000000000000164e-05,-2.999999999999999737e-05,1.000000000000000082e-05,-2.999999999999999737e-05,0.000000000000000000e+00,0.000000000000000000e+00,-2.000000000000000164e-05,-1.000000000000000082e-05,1.000000000000000000e+00,1.300000000000000000e+01
3.516200000000000000e+04,-2.000000000000000164e-05,-2.999999999999999737e-05,1.000000000000000082e-05,-2.999999999999999737e-05,0.000000000000000000e+00,0.000000000000000000e+00,-2.000000000000000164e-05,-1.000000000000000082e-05,1.000000000000000000e+00,1.300000000000000000e+01
3.516300000000000000e+04,-2.000000000000000164e-05,-2.999999999999999737e-05,1.000000000000000082e-05,-2.999999999999999737e-05,0.000000000000000000e+00,0.000000000000000000e+00,-2.000000000000000164e-05,-1.000000000000000082e-05,1.000000000000000000e+00,1.300000000000000000e+01
3.516400000000000000e+04,-2.000000000000000164e-05,-2.999999999999999737e-05,1.000000000000000082e-05,-2.999999999999999737e-05,0.000000000000000000e+00,0.000000000000000000e+00,-2.000000000000000164e-05,-1.000000000000000082e-05,1.000000000000000000e+00,1.300000000000000000e+01
3.516500000000000000e+04,-2.000000000000000164e-05,-2.999999999999999737e-05,1.000000000000000082e-05,-2.999999999999999737e-05,0.000000000000000000e+00,0.000000000000000000e+00,-2.000000000000000164e-05,-1.000000000000000082e-05,1.000000000000000000e+00,1.300000000000000000e+01
3.516600000000000000e+04,-2.000000000000000164e-05,-2.999999999999999737e-05,1.000000000000000082e-05,-2.999999999999999737e-05,0.000000000000000000e+00,0.000000000000000000e+00,-2.000000000000000164e-05,-1.000000000000000082e-05,1.000000000000000000e+00,1.300000000000000000e+01
3.516700000000000000e+04,-2.000000000000000164e-05,-2.999999999999999737e-05,1.000000000000000082e-05,-2.999999999999999737e-05,0.000000000000000000e+00,0.000000000000000000e+00,-2.000000000000000164e-05,-1.000000000000000082e-05,1.000000000000000000e+00,1.300000000000000000e+01
3.516800000000000000e+04,-2.000000000000000164e-05,-2.999999999999999737e-05,1.000000000000000082e-05,-2.999999999999999737e-05,0.000000000000000000e+00,0.000000000000000000e+00,-2.000000000000000164e-05,-1.000000000000000082e-05,1.000000000000000000e+00,1.300000000000000000e+01
3.516900000000000000e+04,-2.000000000000000164e-05,-2.999999999999999737e-05,1.000000000000000082e-05,-2.999999999999999737e-05,0.000000000000000000e+00,0.000000000000000000e+00,-2.000000000000000164e-05,-1.000000000000000082e-05,1.000000000000000000e+00,1.300000000000000000e+01
3.517000000000000000e+04,-2.000000000000000164e-05,-2.999999999999999737e-05,1.000000000000000082e-05,-2.999999999999999737e-05,0.000000000000000000e+00,0.000000000000000000e+00,-2.000000000000000164e-05,-1.000000000000000082e-05,1.000000000000000000e+00,1.300000000000000000e+01
3.517100000000000000e+04,-2.000000000000000164e-05,-2.999999999999999737e-05,1.000000000000000082e-05,-2.999999999999999737e-05,0.000000000000000000e+00,0.000000000000000000e+00,-2.000000000000000164e-05,-1.000000000000000082e-05,1.000000000000000000e+00,1.300000000000000000e+01
3.517200000000000000e+04,-2.999999999999999737e-05,2.000000000000000164e-05,-2.999999999999999737e-05,-1.000000000000000082e-05,0.000000000000000000e+00,0.000000000000000000e+00,1.000000000000000082e-05,-1.000000000000000082e-05,1.000000000000000000e+00,1.300000000000000000e+01
3.517300000000000000e+04,-2.999999999999999737e-05,2.000000000000000164e-05,-2.999999999999999737e-05,-1.000000000000000082e-05,0.000000000000000000e+00,0.000000000000000000e+00,1.000000000000000082e-05,-1.000000000000000082e-05,1.000000000000000000e+00,1.300000000000000000e+01
3.517400000000000000e+04,-2.999999999999999737e-05,2.000000000000000164e-05,-2.999999999999999737e-05,-1.000000000000000082e-05,0.000000000000000000e+00,0.000000000000000000e+00,1.000000000000000082e-05,-1.000000000000000082e-05,1.000000000000000000e+00,1.300000000000000000e+01
3.517500000000000000e+04,-2.999999999999999737e-05,2.000000000000000164e-05,-2.999999999999999737e-05,-1.000000000000000082e-05,0.000000000000000000e+00,0.000000000000000000e+00,1.000000000000000082e-05,-1.000000000000000082e-05,1.000000000000000000e+00,1.300000000000000000e+01
3.517600000000000000e+04,-2.999999999999999737e-05,2.000000000000000164e-05,-2.999999999999999737e-05,-1.000000000000000082e-05,0.000000000000000000e+00,0.000000000000000000e+00,1.000000000000000082e-05,-1.000000000000000082e-05,1.000000000000000000e+00,1.300000000000000000e+01
3.517700000000000000e+04,-2.999999999999999737e-05,2.000000000000000164e-05,-2.999999999999999737e-05,-1.000000000000000082e-05,0.000000000000000000e+00,0.000000000000000000e+00,1.000000000000000082e-05,-1.000000000000000082e-05,1.000000000000000000e+00,1.300000000000000000e+01
3.517800000000000000e+04,-2.999999999999999737e-05,2.000000000000000164e-05,-2.999999999999999737e-05,-1.000000000000000082e-05,0.000000000000000000e+00,0.000000000000000000e+00,1.000000000000000082e-05,-1.000000000000000082e-05,1.000000000000000000e+00,1.300000000000000000e+01
3.517900000000000000e+04,-2.999999999999999737e-05,2.000000000000000164e-05,-2.999999999999999737e-05,-1.000000000000000082e-05,0.000000000000000000e+00,0.000000000000000000e+00,1.000000000000000082e-05,-1.000000000000000082e-05,1.000000000000000000e+00,1.300000000000000000e+01
3.518000000000000000e+04,-2.999999999999999737e-05,2.000000000000000164e-05,-2.999999999999999737e-05,-1.000000000000000082e-05,0.000000000000000000e+00,0.000000000000000000e+00,1.000000000000000082e-05,-1.000000000000000082e-05,1.000000000000000000e+00,1.300000000000000000e+01
3.518100000000000000e+04,-2.999999999999999737e-05,2.000000000000000164e-05,-2.999999999999999737e-05,-1.000000000000000082e-05,0.000000000000000000e+00,0.000000000000000000e+00,1.000000000000000082e-05,-1.000000000000000082e-05,1.000000000000000000e+00,1.300000000000000000e+01
3.518200000000000000e+04,-2.999999999999999737e-05,2.000000000000000164e-05,-2.999999999999999737e-05,-1.000000000000000082e-05,0.000000000000000000e+00,0.000000000000000000e+00,1.000000000000000082e-05,-1.000000000000000082e-05,1.000000000000000000e+00,1.300000000000000000e+01
3.518300000000000000e+04,-2.999999999999999737e-05,2.000000000000000164e-05,-2.999999999999999737e-05,-1.000000000000000082e-05,0.000000000000000000e+00,0.000000000000000000e+00,1.000000000000000082e-05,-1.000000000000000082e-05,1.000000000000000000e+00,1.300000000000000000e+01
3.518400000000000000e+04,-2.999999999999999737e-05,2.000000000000000164e-05,-2.999999999999999737e-05,-1.000000000000000082e-05,0.000000000000000000e+00,0.000000000000000000e+00,1.000000000000000082e-05,-1.000000000000000082e-05,1.000000000000000000e+00,1.300000000000000000e+01
3.518500000000000000e+04,-2.999999999999999737e-05,2.000000000000000164e-05,-2.999999999999999737e-05,-1.000000000000000082e-05,0.000000000000000000e+00,0.000000000000000000e+00,1.000000000000000082e-05,-1.000000000000000082e-05,1.000000000000000000e+00,1.300000000000000000e+01
3.518600000000000000e+04,-2.999999999999999737e-05,2.000000000000000164e-05,-2.999999999999999737e-05,-1.000000000000000082e-05,0.000000000000000000e+00,0.000000000000000000e+00,1.000000000000000082e-05,-1.000000000000000082e-05,1.000000000000000000e+00,1.300000000000000000e+01
3.518900000000000000e+04,0.000000000000000000e+00,2.000000000000000164e-05,0.000000000000000000e+00,0.000000000000000000e+00,-1.000000000000000082e-05,-2.000000000000000164e-05,1.000000000000000082e-05,0.000000000000000000e+00,1.000000000000000000e+00,1.300000000000000000e+01
3.519000000000000000e+04,0.000000000000000000e+00,2.000000000000000164e-05,0.000000000000000000e+00,0.000000000000000000e+00,-1.000000000000000082e-05,-2.000000000000000164e-05,1.000000000000000082e-05,0.000000000000000000e+00,1.000000000000000000e+00,1.300000000000000000e+01
3.519100000000000000e+04,0.000000000000000000e+00,2.000000000000000164e-05,0.000000000000000000e+00,0.000000000000000000e+00,-1.000000000000000082e-05,-2.000000000000000164e-05,1.000000000000000082e-05,0.000000000000000000e+00,1.000000000000000000e+00,1.300000000000000000e+01
3.519200000000000000e+04,0.000000000000000000e+00,2.000000000000000164e-05,0.000000000000000000e+00,0.000000000000000000e+00,-1.000000000000000082e-05,-2.000000000000000164e-05,1.000000000000000082e-05,0.000000000000000000e+00,1.000000000000000000e+00,1.300000000000000000e+01
3.519300000000000000e+04,0.000000000000000000e+00,2.000000000000000164e-05,0.000000000000000000e+00,0.000000000000000000e+00,-1.000000000000000082e-05,-2.000000000000000164e-05,1.000000000000000082e-05,0.000000000000000000e+00,1.000000000000000000e+00,1.300000000000000000e+01
3.519400000000000000e+04,0.000000000000000000e+00,2.000000000000000164e-05,0.000000000000000000e+00,0.000000000000000000e+00,-1.000000000000000082e-05,-2.000000000000000164e-05,1.000000000000000082e-05,0.000000000000000000e+00,1.000000000000000000e+00,1.300000000000000000e+01
3.519500000000000000e+04,0.000000000000000000e+00,2.000000000000000164e-05,0.000000000000000000e+00,0.000000000000000000e+00,-1.000000000000000082e-05,-2.000000000000000164e-05,1.000000000000000082e-05,0.000000000000000000e+00,1.000000000000000000e+00,1.300000000000000000e+01
3.519600000000000000e+04,0.000000000000000000e+00,2.000000000000000164e-05,0.000000000000000000e+00,0.000000000000000000e+00,-1.000000000000000082e-05,-2.000000000000000164e-05,1.000000000000000082e-05,0.000000000000000000e+00,1.000000000000000000e+00,1.300000000000000000e+01
3.519700000000000000e+04,0.000000000000000000e+00,2.000000000000000164e-05,0.000000000000000000e+00,0.000000000000000000e+00,-1.000000000000000082e-05,-2.000000000000000164e-05,1.000000000000000082e-05,0.000000000000000000e+00,1.000000000000000000e+00,1.300000000000000000e+01
3.519800000000000000e+04,0.000000000000000000e+00,2.000000000000000164e-05,0.000000000000000000e+00,0.000000000000000000e+00,-1.000000000000000082e-05,-2.000000000000000164e-05,1.000000000000000082e-05,0.000000000000000000e+00,1.000000000000000000e+00,1.300000000000000000e+01
3.519900000000000000e+04,0.000000000000000000e+00,2.000000000000000164e-05,0.000000000000000000e+00,0.000000000000000000e+00,-1.000000000000000082e-05,-2.000000000000000164e-05,1.000000000000000082e-05,0.000000000000000000e+00,1.000000000000000000e+00,1.300000000000000000e+01
3.520000000000000000e+04,0.000000000000000000e+00,2.000000000000000164e-05,0.000000000000000000e+00,0.000000000000000000e+00,-1.000000000000000082e-05,-2.000000000000000164e-05,1.000000000000000082e-05,0.000000000000000000e+00,1.000000000000000000e+00,1.300000000000000000e+01
3.520100000000000000e+04,-1.000000000000000082e-05,2.000000000000000164e-05,2.000000000000000164e-05,2.000000000000000164e-05,-1.000000000000000082e-05,-1.000000000000000082e-05,-1.000000000000000082e-05,-1.000000000000000082e-05,1.000000000000000000e+00,1.300000000000000000e+01
3.520200000000000000e+04,-1.000000000000000082e-05,2.000000000000000164e-05,2.000000000000000164e-05,2.000000000000000164e-05,-1.000000000000000082e-05,-1.000000000000000082e-05,-1.000000000000000082e-05,-1.000000000000000082e-05,1.000000000000000000e+00,1.300000000000000000e+01
3.520300000000000000e+04,-1.000000000000000082e-05,2.000000000000000164e-05,2.000000000000000164e-05,2.000000000000000164e-05,-1.000000000000000082e-05,-1.000000000000000082e-05,-1.000000000000000082e-05,-1.000000000000000082e-05,1.000000000000000000e+00,1.300000000000000000e+01
3.520400000000000000e+04,-1.000000000000000082e-05,2.000000000000000164e-05,2.000000000000000164e-05,2.000000000000000164e-05,-1.000000000000000082e-05,-1.000000000000000082e-05,-1.000000000000000082e-05,-1.000000000000000082e-05,1.000000000000000000e+00,1.300000000000000000e+01
3.520500000000000000e+04,-1.000000000000000082e-05,2.000000000000000164e-05,2.000000000000000164e-05,2.000000000000000164e-05,-1.000000000000000082e-05,-1.000000000000000082e-05,-1.000000000000000082e-05,-1.000000000000000082e-05,1.000000000000000000e+00,1.300000000000000000e+01
3.520600000000000000e+04,-1.000000000000000082e-05,2.000000000000000164e-05,2.000000000000000164e-05,2.000000000000000164e-05,-1.000000000000000082e-05,-1.000000000000000082e-05,-1.000000000000000082e-05,-1.000000000000000082e-05,1.000000000000000000e+00,1.300000000000000000e+01
3.520700000000000000e+04,-1.000000000000000082e-05,2.000000000000000164e-05,2.000000000000000164e-05,2.000000000000000164e-05,-1.000000000000000082e-05,-1.000000000000000082e-05,-1.000000000000000082e-05,-1.000000000000000082e-05,1.000000000000000000e+00,1.300000000000000000e+01
3.520800000000000000e+04,-1.000000000000000082e-05,2.000000000000000164e-05,2.000000000000000164e-05,2.000000000000000164e-05,-1.000000000000000082e-05,-1.000000000000000082e-05,-1.000000000000000082e-05,-1.000000000000000082e-05,1.000000000000000000e+00,1.300000000000000000e+01
3.520900000000000000e+04,-1.000000000000000082e-05,2.000000000000000164e-05,2.000000000000000164e-05,2.000000000000000164e-05,-1.000000000000000082e-05,-1.000000000000000082e-05,-1.000000000000000082e-05,-1.000000000000000082e-05,1.000000000000000000e+00,1.300000000000000000e+01
3.521000000000000000e+04,-1.000000000000000082e-05,2.000000000000000164e-05,2.000000000000000164e-05,2.000000000000000164e-05,-1.000000000000000082e-05,-1.000000000000000082e-05,-1.000000000000000082e-05,-1.000000000000000082e-05,1.000000000000000000e+00,1.300000000000000000e+01
3.521100000000000000e+04,-1.000000000000000082e-05,2.000000000000000164e-05,2.000000000000000164e-05,2.000000000000000164e-05,-1.000000000000000082e-05,-1.000000000000000082e-05,-1.000000000000000082e-05,-1.000000000000000082e-05,1.000000000000000000e+00,1.300000000000000000e+01
3.521200000000000000e+04,-1.000000000000000082e-05,2.000000000000000164e-05,2.000000000000000164e-05,2.000000000000000164e-05,-1.000000000000000082e-05,-1.000000000000000082e-05,-1.000000000000000082e-05,-1.000000000000000082e-05,1.000000000000000000e+00,1.300000000000000000e+01
3.521300000000000000e+04,-1.000000000000000082e-05,2.000000000000000164e-05,2.000000000000000164e-05,2.000000000000000164e-05,-1.000000000000000082e-05,-1.000000000000000082e-05,-1.000000000000000082e-05,-1.000000000000000082e-05,1.000000000000000000e+00,1.300000000000000000e+01
3.521400000000000000e+04,-2.000000000000000164e-05,-5.000000000000000240e-05,0.000000000000000000e+00,-1.000000000000000082e-05,-2.000000000000000164e-05,0.000000000000000000e+00,1.000000000000000082e-05,1.000000000000000082e-05,1.000000000000000000e+00,1.300000000000000000e+01
3.521500000000000000e+04,0.000000000000000000e+00,1.000000000000000082e-05,2.000000000000000164e-05,-1.000000000000000082e-05,-1.000000000000000082e-05,0.000000000000000000e+00,-1.000000000000000082e-05,-1.000000000000000082e-05,1.000000000000000000e+00,1.300000000000000000e+01
3.521600000000000000e+04,0.000000000000000000e+00,1.000000000000000082e-05,2.000000000000000164e-05,-1.000000000000000082e-05,-1.000000000000000082e-05,0.000000000000000000e+00,-1.000000000000000082e-05,-1.000000000000000082e-05,1.000000000000000000e+00,1.300000000000000000e+01
3.521700000000000000e+04,0.000000000000000000e+00,1.000000000000000082e-05,2.000000000000000164e-05,-1.000000000000000082e-05,-1.000000000000000082e-05,0.000000000000000000e+00,-1.000000000000000082e-05,-1.000000000000000082e-05,1.000000000000000000e+00,1.300000000000000000e+01
3.521800000000000000e+04,0.000000000000000000e+00,1.000000000000000082e-05,2.000000000000000164e-05,-1.000000000000000082e-05,-1.000000000000000082e-05,0.000000000000000000e+00,-1.000000000000000082e-05,-1.000000000000000082e-05,1.000000000000000000e+00,1.300000000000000000e+01
3.521900000000000000e+04,0.000000000000000000e+00,1.000000000000000082e-05,2.000000000000000164e-05,-1.000000000000000082e-05,-1.000000000000000082e-05,0.000000000000000000e+00,-1.000000000000000082e-05,-1.000000000000000082e-05,1.000000000000000000e+00,1.300000000000000000e+01
3.522000000000000000e+04,0.000000000000000000e+00,1.000000000000000082e-05,2.000000000000000164e-05,-1.000000000000000082e-05,-1.000000000000000082e-05,0.000000000000000000e+00,-1.000000000000000082e-05,-1.000000000000000082e-05,1.000000000000000000e+00,1.300000000000000000e+01
3.522100000000000000e+04,0.000000000000000000e+00,1.000000000000000082e-05,2.000000000000000164e-05,-1.000000000000000082e-05,-1.000000000000000082e-05,0.000000000000000000e+00,-1.000000000000000082e-05,-1.000000000000000082e-05,1.000000000000000000e+00,1.300000000000000000e+01
3.522200000000000000e+04,0.000000000000000000e+00,1.000000000000000082e-05,2.000000000000000164e-05,-1.000000000000000082e-05,-1.000000000000000082e-05,0.000000000000000000e+00,-1.000000000000000082e-05,-1.000000000000000082e-05,1.000000000000000000e+00,1.300000000000000000e+01
3.522300000000000000e+04,-1.000000000000000082e-05,-2.999999999999999737e-05,-1.000000000000000082e-05,-1.000000000000000082e-05,-1.000000000000000082e-05,-2.999999999999999737e-05,0.000000000000000000e+00,-2.000000000000000164e-05,1.000000000000000000e+00,1.300000000000000000e+01
3.522400000000000000e+04,-1.000000000000000082e-05,-2.999999999999999737e-05,-1.000000000000000082e-05,-1.000000000000000082e-05,-1.000000000000000082e-05,-2.999999999999999737e-05,0.000000000000000000e+00,-2.000000000000000164e-05,1.000000000000000000e+00,1.300000000000000000e+01
3.522500000000000000e+04,-1.000000000000000082e-05,0.000000000000000000e+00,-4.000000000000000327e-05,-2.000000000000000164e-05,-2.999999999999999737e-05,-5.999999999999999474e-05,-2.000000000000000164e-05,-1.000000000000000082e-05,1.000000000000000000e+00,1.300000000000000000e+01
3.522600000000000000e+04,-1.000000000000000082e-05,0.000000000000000000e+00,-4.000000000000000327e-05,-2.000000000000000164e-05,-2.999999999999999737e-05,-5.999999999999999474e-05,-2.000000000000000164e-05,-1.000000000000000082e-05,1.000000000000000000e+00,1.300000000000000000e+01
3.522700000000000000e+04,-1.000000000000000082e-05,0.000000000000000000e+00,-4.000000000000000327e-05,-2.000000000000000164e-05,-2.999999999999999737e-05,-5.999999999999999474e-05,-2.000000000000000164e-05,-1.000000000000000082e-05,1.000000000000000000e+00,1.300000000000000000e+01
3.522800000000000000e+04,-1.000000000000000082e-05,0.000000000000000000e+00,-4.000000000000000327e-05,-2.000000000000000164e-05,-2.999999999999999737e-05,-5.999999999999999474e-05,-2.000000000000000164e-05,-1.000000000000000082e-05,1.000000000000000000e+00,1.300000000000000000e+01
3.522900000000000000e+04,-1.000000000000000082e-05,0.000000000000000000e+00,-4.000000000000000327e-05,-2.000000000000000164e-05,-2.999999999999999737e-05,-5.999999999999999474e-05,-2.000000000000000164e-05,-1.000000000000000082e-05,1.000000000000000000e+00,1.300000000000000000e+01
3.523000000000000000e+04,-1.000000000000000082e-05,0.000000000000000000e+00,-4.000000000000000327e-05,-2.000000000000000164e-05,-2.999999999999999737e-05,-5.999999999999999474e-05,-2.000000000000000164e-05,-1.000000000000000082e-05,1.000000000000000000e+00,1.300000000000000000e+01
3.523100000000000000e+04,-1.000000000000000082e-05,0.000000000000000000e+00,-4.000000000000000327e-05,-2.000000000000000164e-05,-2.999999999999999737e-05,-5.999999999999999474e-05,-2.000000000000000164e-05,-1.000000000000000082e-05,1.000000000000000000e+00,1.300000000000000000e+01
3.523200000000000000e+04,-1.000000000000000082e-05,0.000000000000000000e+00,-4.000000000000000327e-05,-2.000000000000000164e-05,-2.999999999999999737e-05,-5.999999999999999474e-05,-2.000000000000000164e-05,-1.000000000000000082e-05,1.000000000000000000e+00,1.300000000000000000e+01
3.523300000000000000e+04,-1.000000000000000082e-05,0.000000000000000000e+00,-4.000000000000000327e-05,-2.000000000000000164e-05,-2.999999999999999737e-05,-5.999999999999999474e-05,-2.000000000000000164e-05,-1.000000000000000082e-05,1.000000000000000000e+00,1.300000000000000000e+01
3.523400000000000000e+04,-1.000000000000000082e-05,0.000000000000000000e+00,-4.000000000000000327e-05,-2.000000000000000164e-05,-2.999999999999999737e-05,-5.999999999999999474e-05,-2.000000000000000164e-05,-1.000000000000000082e-05,1.000000000000000000e+00,1.300000000000000000e+01
3.523500000000000000e+04,-1.000000000000000082e-05,0.000000000000000000e+00,-4.000000000000000327e-05,-2.000000000000000164e-05,-2.999999999999999737e-05,-5.999999999999999474e-05,-2.000000000000000164e-05,-1.000000000000000082e-05,1.000000000000000000e+00,1.300000000000000000e+01
3.523600000000000000e+04,-1.000000000000000082e-05,0.000000000000000000e+00,-4.000000000000000327e-05,-2.000000000000000164e-05,-2.999999999999999737e-05,-5.999999999999999474e-05,-2.000000000000000164e-05,-1.000000000000000082e-05,1.000000000000000000e+00,1.300000000000000000e+01
3.523800000000000000e+04,-1.000000000000000082e-05,0.000000000000000000e+00,-4.000000000000000327e-05,-2.000000000000000164e-05,-2.999999999999999737e-05,-5.999999999999999474e-05,-2.000000000000000164e-05,-1.000000000000000082e-05,1.000000000000000000e+00,1.300000000000000000e+01
3.523900000000000000e+04,-1.000000000000000082e-05,0.000000000000000000e+00,-4.000000000000000327e-05,-2.000000000000000164e-05,-2.999999999999999737e-05,-5.999999999999999474e-05,-2.000000000000000164e-05,-1.000000000000000082e-05,1.000000000000000000e+00,1.300000000000000000e+01
3.524000000000000000e+04,-1.000000000000000082e-05,0.000000000000000000e+00,-4.000000000000000327e-05,-2.000000000000000164e-05,-2.999999999999999737e-05,-5.999999999999999474e-05,-2.000000000000000164e-05,-1.000000000000000082e-05,1.000000000000000000e+00,1.300000000000000000e+01
3.524100000000000000e+04,-1.000000000000000082e-05,0.000000000000000000e+00,-4.000000000000000327e-05,-2.000000000000000164e-05,-2.999999999999999737e-05,-5.999999999999999474e-05,-2.000000000000000164e-05,-1.000000000000000082e-05,1.000000000000000000e+00,1.300000000000000000e+01
3.524200000000000000e+04,-1.000000000000000082e-05,0.000000000000000000e+00,-4.000000000000000327e-05,-2.000000000000000164e-05,-2.999999999999999737e-05,-5.999999999999999474e-05,-2.000000000000000164e-05,-1.000000000000000082e-05,1.000000000000000000e+00,1.300000000000000000e+01
3.524300000000000000e+04,-1.000000000000000082e-05,0.000000000000000000e+00,-4.000000000000000327e-05,-2.000000000000000164e-05,-2.999999999999999737e-05,-5.999999999999999474e-05,-2.000000000000000164e-05,-1.000000000000000082e-05,1.000000000000000000e+00,1.300000000000000000e+01
3.524400000000000000e+04,-1.000000000000000082e-05,0.000000000000000000e+00,-4.000000000000000327e-05,-2.000000000000000164e-05,-2.999999999999999737e-05,-5.999999999999999474e-05,-2.000000000000000164e-05,-1.000000000000000082e-05,1.000000000000000000e+00,1.300000000000000000e+01
3.524500000000000000e+04,-1.000000000000000082e-05,0.000000000000000000e+00,-4.000000000000000327e-05,-2.000000000000000164e-05,-2.999999999999999737e-05,-5.999999999999999474e-05,-2.000000000000000164e-05,-1.000000000000000082e-05,1.000000000000000000e+00,1.300000000000000000e+01
3.524600000000000000e+04,-2.999999999999999737e-05,-5.999999999999999474e-05,-5.000000000000000240e-05,-2.999999999999999737e-05,-1.000000000000000082e-05,1.000000000000000082e-05,1.000000000000000082e-05,0.000000000000000000e+00,1.000000000000000000e+00,1.300000000000000000e+01
3.524700000000000000e+04,-2.999999999999999737e-05,-5.999999999999999474e-05,-5.000000000000000240e-05,-2.999999999999999737e-05,-1.000000000000000082e-05,1.000000000000000082e-05,1.000000000000000082e-05,0.000000000000000000e+00,1.000000000000000000e+00,1.300000000000000000e+01
3.524800000000000000e+04,-2.999999999999999737e-05,-5.999999999999999474e-05,-5.000000000000000240e-05,-2.999999999999999737e-05,-1.000000000000000082e-05,1.000000000000000082e-05,1.000000000000000082e-05,0.000000000000000000e+00,1.000000000000000000e+00,1.300000000000000000e+01
3.524900000000000000e+04,1.000000000000000082e-05,-1.000000000000000082e-05,8.000000000000000654e-05,1.000000000000000082e-05,1.000000000000000082e-05,-1.000000000000000082e-05,-2.000000000000000164e-05,0.000000000000000000e+00,1.000000000000000000e+00,1.300000000000000000e+01
3.525000000000000000e+04,1.000000000000000082e-05,-1.000000000000000082e-05,8.000000000000000654e-05,1.000000000000000082e-05,1.000000000000000082e-05,-1.000000000000000082e-05,-2.000000000000000164e-05,0.000000000000000000e+00,1.000000000000000000e+00,1.300000000000000000e+01
3.525100000000000000e+04,1.000000000000000082e-05,-1.000000000000000082e-05,8.000000000000000654e-05,1.000000000000000082e-05,1.000000000000000082e-05,-1.000000000000000082e-05,-2.000000000000000164e-05,0.000000000000000000e+00,1.000000000000000000e+00,1.300000000000000000e+01
3.525200000000000000e+04,1.000000000000000082e-05,-1.000000000000000082e-05,8.000000000000000654e-05,1.000000000000000082e-05,1.000000000000000082e-05,-1.000000000000000082e-05,-2.000000000000000164e-05,0.000000000000000000e+00,1.000000000000000000e+00,1.300000000000000000e+01
3.525300000000000000e+04,1.000000000000000082e-05,-1.000000000000000082e-05,8.000000000000000654e-05,1.000000000000000082e-05,1.000000000000000082e-05,-1.000000000000000082e-05,-2.000000000000000164e-05,0.000000000000000000e+00,1.000000000000000000e+00,1.300000000000000000e+01
3.525400000000000000e+04,1.000000000000000082e-05,-1.000000000000000082e-05,8.000000000000000654e-05,1.000000000000000082e-05,1.000000000000000082e-05,-1.000000000000000082e-05,-2.000000000000000164e-05,0.000000000000000000e+00,1.000000000000000000e+00,1.300000000000000000e+01
3.525500000000000000e+04,1.000000000000000082e-05,-1.000000000000000082e-05,8.000000000000000654e-05,1.000000000000000082e-05,1.000000000000000082e-05,-1.000000000000000082e-05,-2.000000000000000164e-05,0.000000000000000000e+00,1.000000000000000000e+00,1.300000000000000000e+01
3.525600000000000000e+04,1.000000000000000082e-05,-1.000000000000000082e-05,8.000000000000000654e-05,1.000000000000000082e-05,1.000000000000000082e-05,-1.000000000000000082e-05,-2.000000000000000164e-05,0.000000000000000000e+00,1.000000000000000000e+00,1.300000000000000000e+01
3.525700000000000000e+04,1.000000000000000082e-05,-1.000000000000000082e-05,8.000000000000000654e-05,1.000000000000000082e-05,1.000000000000000082e-05,-1.000000000000000082e-05,-2.000000000000000164e-05,0.000000000000000000e+00,1.000000000000000000e+00,1.300000000000000000e+01
3.525800000000000000e+04,1.000000000000000082e-05,-1.000000000000000082e-05,8.000000000000000654e-05,1.000000000000000082e-05,1.000000000000000082e-05,-1.000000000000000082e-05,-2.000000000000000164e-05,0.000000000000000000e+00,1.000000000000000000e+00,1.300000000000000000e+01
3.525900000000000000e+04,1.000000000000000082e-05,-1.000000000000000082e-05,8.000000000000000654e-05,1.000000000000000082e-05,1.000000000000000082e-05,-1.000000000000000082e-05,-2.000000000000000164e-05,0.000000000000000000e+00,1.000000000000000000e+00,1.300000000000000000e+01
3.526000000000000000e+04,1.000000000000000082e-05,-1.000000000000000082e-05,8.000000000000000654e-05,1.000000000000000082e-05,1.000000000000000082e-05,-1.000000000000000082e-05,-2.000000000000000164e-05,0.000000000000000000e+00,1.000000000000000000e+00,1.300000000000000000e+01
3.526100000000000000e+04,1.000000000000000082e-05,-1.000000000000000082e-05,8.000000000000000654e-05,1.000000000000000082e-05,1.000000000000000082e-05,-1.000000000000000082e-05,-2.000000000000000164e-05,0.000000000000000000e+00,1.000000000000000000e+00,1.300000000000000000e+01
3.526200000000000000e+04,1.000000000000000082e-05,-1.000000000000000082e-05,8.000000000000000654e-05,1.000000000000000082e-05,1.000000000000000082e-05,-1.000000000000000082e-05,-2.000000000000000164e-05,0.000000000000000000e+00,1.000000000000000000e+00,1.300000000000000000e+01
3.526300000000000000e+04,1.000000000000000082e-05,-1.000000000000000082e-05,8.000000000000000654e-05,1.000000000000000082e-05,1.000000000000000082e-05,-1.000000000000000082e-05,-2.000000000000000164e-05,0.000000000000000000e+00,1.000000000000000000e+00,1.300000000000000000e+01
3.526400000000000000e+04,1.000000000000000082e-05,-1.000000000000000082e-05,8.000000000000000654e-05,1.000000000000000082e-05,1.000000000000000082e-05,-1.000000000000000082e-05,-2.000000000000000164e-05,0.000000000000000000e+00,1.000000000000000000e+00,1.300000000000000000e+01
3.526500000000000000e+04,1.000000000000000082e-05,-1.000000000000000082e-05,8.000000000000000654e-05,1.000000000000000082e-05,1.000000000000000082e-05,-1.000000000000000082e-05,-2.000000000000000164e-05,0.000000000000000000e+00,1.000000000000000000e+00,1.300000000000000000e+01
3.526600000000000000e+04,1.000000000000000082e-05,-1.000000000000000082e-05,8.000000000000000654e-05,1.000000000000000082e-05,1.000000000000000082e-05,-1.000000000000000082e-05,-2.000000000000000164e-05,0.000000000000000000e+00,1.000000000000000000e+00,1.300000000000000000e+01
3.526700000000000000e+04,1.000000000000000082e-05,-1.000000000000000082e-05,8.000000000000000654e-05,1.000000000000000082e-05,1.000000000000000082e-05,-1.000000000000000082e-05,-2.000000000000000164e-05,0.000000000000000000e+00,1.000000000000000000e+00,1.300000000000000000e+01
3.526800000000000000e+04,1.000000000000000082e-05,-1.000000000000000082e-05,8.000000000000000654e-05,1.000000000000000082e-05,1.000000000000000082e-05,-1.000000000000000082e-05,-2.000000000000000164e-05,0.000000000000000000e+00,1.000000000000000000e+00,1.300000000000000000e+01
3.526900000000000000e+04,-2.999999999999999737e-05,-4.000000000000000327e-05,-6.999999999999999387e-05,-2.000000000000000164e-05,-2.000000000000000164e-05,0.000000000000000000e+00,-1.000000000000000082e-05,-2.000000000000000164e-05,1.000000000000000000e+00,1.300000000000000000e+01
3.527000000000000000e+04,-1.000000000000000082e-05,1.000000000000000082e-05,-1.000000000000000082e-05,-2.000000000000000164e-05,-2.000000000000000164e-05,-1.000000000000000082e-05,-2.000000000000000164e-05,-2.000000000000000164e-05,1.000000000000000000e+00,1.300000000000000000e+01
3.527100000000000000e+04,-1.000000000000000082e-05,1.000000000000000082e-05,-1.000000000000000082e-05,-2.000000000000000164e-05,-2.000000000000000164e-05,-1.000000000000000082e-05,-2.000000000000000164e-05,-2.000000000000000164e-05,1.000000000000000000e+00,1.300000000000000000e+01
3.527200000000000000e+04,-1.000000000000000082e-05,1.000000000000000082e-05,-1.000000000000000082e-05,-2.000000000000000164e-05,-2.000000000000000164e-05,-1.000000000000000082e-05,-2.000000000000000164e-05,-2.000000000000000164e-05,1.000000000000000000e+00,1.300000000000000000e+01
3.527300000000000000e+04,-1.000000000000000082e-05,1.000000000000000082e-05,-1.000000000000000082e-05,-2.000000000000000164e-05,-2.000000000000000164e-05,-1.000000000000000082e-05,-2.000000000000000164e-05,-2.000000000000000164e-05,1.000000000000000000e+00,1.300000000000000000e+01
3.527400000000000000e+04,-1.000000000000000082e-05,1.000000000000000082e-05,-1.000000000000000082e-05,-2.000000000000000164e-05,-2.000000000000000164e-05,-1.000000000000000082e-05,-2.000000000000000164e-05,-2.000000000000000164e-05,1.000000000000000000e+00,1.300000000000000000e+01
3.527500000000000000e+04,-1.000000000000000082e-05,1.000000000000000082e-05,-1.000000000000000082e-05,-2.000000000000000164e-05,-2.000000000000000164e-05,-1.000000000000000082e-05,-2.000000000000000164e-05,-2.000000000000000164e-05,1.000000000000000000e+00,1.300000000000000000e+01
3.527600000000000000e+04,-1.000000000000000082e-05,1.000000000000000082e-05,-1.000000000000000082e-05,-2.000000000000000164e-05,-2.000000000000000164e-05,-1.000000000000000082e-05,-2.000000000000000164e-05,-2.000000000000000164e-05,1.000000000000000000e+00,1.300000000000000000e+01
3.527700000000000000e+04,-1.000000000000000082e-05,1.000000000000000082e-05,-1.000000000000000082e-05,-2.000000000000000164e-05,-2.000000000000000164e-05,-1.000000000000000082e-05,-2.000000000000000164e-05,-2.000000000000000164e-05,1.000000000000000000e+00,1.300000000000000000e+01
3.527800000000000000e+04,-1.000000000000000082e-05,1.000000000000000082e-05,-1.000000000000000082e-05,-2.000000000000000164e-05,-2.000000000000000164e-05,-1.000000000000000082e-05,-2.000000000000000164e-05,-2.000000000000000164e-05,1.000000000000000000e+00,1.300000000000000000e+01
3.527900000000000000e+04,-1.000000000000000082e-05,1.000000000000000082e-05,-1.000000000000000082e-05,-2.000000000000000164e-05,-2.000000000000000164e-05,-1.000000000000000082e-05,-2.000000000000000164e-05,-2.000000000000000164e-05,1.000000000000000000e+00,1.300000000000000000e+01
3.528000000000000000e+04,-1.000000000000000082e-05,1.000000000000000082e-05,-1.000000000000000082e-05,-2.000000000000000164e-05,-2.000000000000000164e-05,-1.000000000000000082e-05,-2.000000000000000164e-05,-2.000000000000000164e-05,1.000000000000000000e+00,1.300000000000000000e+01
3.528100000000000000e+04,-1.000000000000000082e-05,1.000000000000000082e-05,-1.000000000000000082e-05,-2.000000000000000164e-05,-2.000000000000000164e-05,-1.000000000000000082e-05,-2.000000000000000164e-05,-2.000000000000000164e-05,1.000000000000000000e+00,1.300000000000000000e+01
3.528200000000000000e+04,-1.000000000000000082e-05,1.000000000000000082e-05,-1.000000000000000082e-05,-2.000000000000000164e-05,-2.000000000000000164e-05,-1.000000000000000082e-05,-2.000000000000000164e-05,-2.000000000000000164e-05,1.000000000000000000e+00,1.300000000000000000e+01
3.528300000000000000e+04,-1.000000000000000082e-05,1.000000000000000082e-05,-1.000000000000000082e-05,-2.000000000000000164e-05,-2.000000000000000164e-05,-1.000000000000000082e-05,-2.000000000000000164e-05,-2.000000000000000164e-05,1.000000000000000000e+00,1.300000000000000000e+01
3.528400000000000000e+04,-1.000000000000000082e-05,-2.000000000000000164e-05,1.000000000000000082e-05,0.000000000000000000e+00,0.000000000000000000e+00,1.000000000000000082e-05,-2.000000000000000164e-05,-2.000000000000000164e-05,1.000000000000000000e+00,1.300000000000000000e+01
3.528500000000000000e+04,-1.000000000000000082e-05,-2.000000000000000164e-05,1.000000000000000082e-05,0.000000000000000000e+00,0.000000000000000000e+00,1.000000000000000082e-05,-2.000000000000000164e-05,-2.000000000000000164e-05,1.000000000000000000e+00,1.300000000000000000e+01
3.528600000000000000e+04,-1.000000000000000082e-05,-2.000000000000000164e-05,1.000000000000000082e-05,0.000000000000000000e+00,0.000000000000000000e+00,1.000000000000000082e-05,-2.000000000000000164e-05,-2.000000000000000164e-05,1.000000000000000000e+00,1.300000000000000000e+01
3.528900000000000000e+04,-1.000000000000000082e-05,-2.000000000000000164e-05,1.000000000000000082e-05,0.000000000000000000e+00,0.000000000000000000e+00,1.000000000000000082e-05,-2.000000000000000164e-05,-2.000000000000000164e-05,1.000000000000000000e+00,1.300000000000000000e+01
3.529000000000000000e+04,-1.000000000000000082e-05,-2.000000000000000164e-05,1.000000000000000082e-05,0.000000000000000000e+00,0.000000000000000000e+00,1.000000000000000082e-05,-2.000000000000000164e-05,-2.000000000000000164e-05,1.000000000000000000e+00,1.300000000000000000e+01
3.529100000000000000e+04,-1.000000000000000082e-05,-2.000000000000000164e-05,1.000000000000000082e-05,0.000000000000000000e+00,0.000000000000000000e+00,1.000000000000000082e-05,-2.000000000000000164e-05,-2.000000000000000164e-05,1.000000000000000000e+00,1.300000000000000000e+01
3.529200000000000000e+04,-1.000000000000000082e-05,-2.000000000000000164e-05,1.000000000000000082e-05,0.000000000000000000e+00,0.000000000000000000e+00,1.000000000000000082e-05,-2.000000000000000164e-05,-2.000000000000000164e-05,1.000000000000000000e+00,1.300000000000000000e+01
3.529300000000000000e+04,-1.000000000000000082e-05,-2.000000000000000164e-05,1.000000000000000082e-05,0.000000000000000000e+00,0.000000000000000000e+00,1.000000000000000082e-05,-2.000000000000000164e-05,-2.000000000000000164e-05,1.000000000000000000e+00,1.300000000000000000e+01
3.529400000000000000e+04,-1.000000000000000082e-05,-2.000000000000000164e-05,1.000000000000000082e-05,0.000000000000000000e+00,0.000000000000000000e+00,1.000000000000000082e-05,-2.000000000000000164e-05,-2.000000000000000164e-05,1.000000000000000000e+00,1.300000000000000000e+01
3.529500000000000000e+04,-1.000000000000000082e-05,-2.000000000000000164e-05,1.000000000000000082e-05,0.000000000000000000e+00,0.000000000000000000e+00,1.000000000000000082e-05,-2.000000000000000164e-05,-2.000000000000000164e-05,1.000000000000000000e+00,1.300000000000000000e+01
3.529600000000000000e+04,-1.000000000000000082e-05,-2.000000000000000164e-05,1.000000000000000082e-05,0.000000000000000000e+00,0.000000000000000000e+00,1.000000000000000082e-05,-2.000000000000000164e-05,-2.000000000000000164e-05,1.000000000000000000e+00,1.300000000000000000e+01
3.529700000000000000e+04,0.000000000000000000e+00,1.000000000000000082e-05,-4.000000000000000327e-05,-1.000000000000000082e-05,0.000000000000000000e+00,0.000000000000000000e+00,0.000000000000000000e+00,-1.000000000000000082e-05,1.000000000000000000e+00,1.300000000000000000e+01
3.529800000000000000e+04,0.000000000000000000e+00,1.000000000000000082e-05,-4.000000000000000327e-05,-1.000000000000000082e-05,0.000000000000000000e+00,0.000000000000000000e+00,0.000000000000000000e+00,-1.000000000000000082e-05,1.000000000000000000e+00,1.300000000000000000e+01
3.529900000000000000e+04,0.000000000000000000e+00,1.000000000000000082e-05,-4.000000000000000327e-05,-1.000000000000000082e-05,0.000000000000000000e+00,0.000000000000000000e+00,0.000000000000000000e+00,-1.000000000000000082e-05,1.000000000000000000e+00,1.300000000000000000e+01
3.530000000000000000e+04,0.000000000000000000e+00,1.000000000000000082e-05,-4.000000000000000327e-05,-1.000000000000000082e-05,0.000000000000000000e+00,0.000000000000000000e+00,0.000000000000000000e+00,-1.000000000000000082e-05,1.000000000000000000e+00,1.300000000000000000e+01
3.530100000000000000e+04,0.000000000000000000e+00,1.000000000000000082e-05,-4.000000000000000327e-05,-1.000000000000000082e-05,0.000000000000000000e+00,0.000000000000000000e+00,0.000000000000000000e+00,-1.000000000000000082e-05,1.000000000000000000e+00,1.300000000000000000e+01
3.530200000000000000e+04,0.000000000000000000e+00,1.000000000000000082e-05,-4.000000000000000327e-05,-1.000000000000000082e-05,0.000000000000000000e+00,0.000000000000000000e+00,0.000000000000000000e+00,-1.000000000000000082e-05,1.000000000000000000e+00,1.300000000000000000e+01
3.530300000000000000e+04,0.000000000000000000e+00,1.000000000000000082e-05,-4.000000000000000327e-05,-1.000000000000000082e-05,0.000000000000000000e+00,0.000000000000000000e+00,0.000000000000000000e+00,-1.000000000000000082e-05,1.000000000000000000e+00,1.300000000000000000e+01
3.530400000000000000e+04,0.000000000000000000e+00,1.000000000000000082e-05,-4.000000000000000327e-05,-1.000000000000000082e-05,0.000000000000000000e+00,0.000000000000000000e+00,0.000000000000000000e+00,-1.000000000000000082e-05,1.000000000000000000e+00,1.300000000000000000e+01
3.530500000000000000e+04,0.000000000000000000e+00,1.000000000000000082e-05,-4.000000000000000327e-05,-1.000000000000000082e-05,0.000000000000000000e+00,0.000000000000000000e+00,0.000000000000000000e+00,-1.000000000000000082e-05,1.000000000000000000e+00,1.300000000000000000e+01
3.530600000000000000e+04,0.000000000000000000e+00,1.000000000000000082e-05,-6.999999999999999387e-05,0.000000000000000000e+00,-1.000000000000000082e-05,0.000000000000000000e+00,1.000000000000000082e-05,-1.000000000000000082e-05,1.000000000000000000e+00,1.300000000000000000e+01
3.530700000000000000e+04,-2.000000000000000164e-05,-2.999999999999999737e-05,-5.999999999999999474e-05,-2.999999999999999737e-05,-2.000000000000000164e-05,0.000000000000000000e+00,0.000000000000000000e+00,-2.000000000000000164e-05,1.000000000000000000e+00,1.300000000000000000e+01
3.530800000000000000e+04,-2.000000000000000164e-05,-2.999999999999999737e-05,-5.999999999999999474e-05,-2.999999999999999737e-05,-2.000000000000000164e-05,0.000000000000000000e+00,0.000000000000000000e+00,-2.000000000000000164e-05,1.000000000000000000e+00,1.300000000000000000e+01
3.530900000000000000e+04,-2.000000000000000164e-05,-2.999999999999999737e-05,-5.999999999999999474e-05,-2.999999999999999737e-05,-2.000000000000000164e-05,0.000000000000000000e+00,0.000000000000000000e+00,-2.000000000000000164e-05,1.000000000000000000e+00,1.300000000000000000e+01
3.531000000000000000e+04,-2.000000000000000164e-05,-2.999999999999999737e-05,-5.999999999999999474e-05,-2.999999999999999737e-05,-2.000000000000000164e-05,0.000000000000000000e+00,0.000000000000000000e+00,-2.000000000000000164e-05,1.000000000000000000e+00,1.300000000000000000e+01
3.531100000000000000e+04,-2.000000000000000164e-05,-2.999999999999999737e-05,-5.999999999999999474e-05,-2.999999999999999737e-05,-2.000000000000000164e-05,0.000000000000000000e+00,0.000000000000000000e+00,-2.000000000000000164e-05,1.000000000000000000e+00,1.300000000000000000e+01
3.531200000000000000e+04,-2.000000000000000164e-05,-2.999999999999999737e-05,-5.999999999999999474e-05,-2.999999999999999737e-05,-2.000000000000000164e-05,0.000000000000000000e+00,0.000000000000000000e+00,-2.000000000000000164e-05,1.000000000000000000e+00,1.300000000000000000e+01
3.531300000000000000e+04,-2.000000000000000164e-05,-2.999999999999999737e-05,-5.999999999999999474e-05,-2.999999999999999737e-05,-2.000000000000000164e-05,0.000000000000000000e+00,0.000000000000000000e+00,-2.000000000000000164e-05,1.000000000000000000e+00,1.300000000000000000e+01
3.531400000000000000e+04,-2.000000000000000164e-05,-2.999999999999999737e-05,-5.999999999999999474e-05,-2.999999999999999737e-05,-2.000000000000000164e-05,0.000000000000000000e+00,0.000000000000000000e+00,-2.000000000000000164e-05,1.000000000000000000e+00,1.300000000000000000e+01
3.531500000000000000e+04,-2.000000000000000164e-05,-2.999999999999999737e-05,-5.999999999999999474e-05,-2.999999999999999737e-05,-2.000000000000000164e-05,0.000000000000000000e+00,0.000000000000000000e+00,-2.000000000000000164e-05,1.000000000000000000e+00,1.300000000000000000e+01
3.531600000000000000e+04,-2.000000000000000164e-05,-2.999999999999999737e-05,-5.999999999999999474e-05,-2.999999999999999737e-05,-2.000000000000000164e-05,0.000000000000000000e+00,0.000000000000000000e+00,-2.000000000000000164e-05,1.000000000000000000e+00,1.300000000000000000e+01
3.531700000000000000e+04,-2.000000000000000164e-05,-2.999999999999999737e-05,-5.999999999999999474e-05,-2.999999999999999737e-05,-2.000000000000000164e-05,0.000000000000000000e+00,0.000000000000000000e+00,-2.000000000000000164e-05,1.000000000000000000e+00,1.300000000000000000e+01
3.531800000000000000e+04,-2.000000000000000164e-05,-2.999999999999999737e-05,-5.999999999999999474e-05,-2.999999999999999737e-05,-2.000000000000000164e-05,0.000000000000000000e+00,0.000000000000000000e+00,-2.000000000000000164e-05,1.000000000000000000e+00,1.300000000000000000e+01
3.531900000000000000e+04,-2.000000000000000164e-05,-2.999999999999999737e-05,-5.999999999999999474e-05,-2.999999999999999737e-05,-2.000000000000000164e-05,0.000000000000000000e+00,0.000000000000000000e+00,-2.000000000000000164e-05,1.000000000000000000e+00,1.300000000000000000e+01
3.532000000000000000e+04,-2.000000000000000164e-05,-2.999999999999999737e-05,-5.999999999999999474e-05,-2.999999999999999737e-05,-2.000000000000000164e-05,0.000000000000000000e+00,0.000000000000000000e+00,-2.000000000000000164e-05,1.000000000000000000e+00,1.300000000000000000e+01
3.532100000000000000e+04,0.000000000000000000e+00,4.000000000000000327e-05,4.000000000000000327e-05,0.000000000000000000e+00,-1.000000000000000082e-05,-1.000000000000000082e-05,-1.000000000000000082e-05,0.000000000000000000e+00,1.000000000000000000e+00,1.300000000000000000e+01
3.532200000000000000e+04,0.000000000000000000e+00,4.000000000000000327e-05,4.000000000000000327e-05,0.000000000000000000e+00,-1.000000000000000082e-05,-1.000000000000000082e-05,-1.000000000000000082e-05,0.000000000000000000e+00,1.000000000000000000e+00,1.300000000000000000e+01
3.532300000000000000e+04,0.000000000000000000e+00,4.000000000000000327e-05,4.000000000000000327e-05,0.000000000000000000e+00,-1.000000000000000082e-05,-1.000000000000000082e-05,-1.000000000000000082e-05,0.000000000000000000e+00,1.000000000000000000e+00,1.300000000000000000e+01
3.532400000000000000e+04,0.000000000000000000e+00,4.000000000000000327e-05,4.000000000000000327e-05,0.000000000000000000e+00,-1.000000000000000082e-05,-1.000000000000000082e-05,-1.000000000000000082e-05,0.000000000000000000e+00,1.000000000000000000e+00,1.300000000000000000e+01
3.532500000000000000e+04,0.000000000000000000e+00,4.000000000000000327e-05,4.000000000000000327e-05,0.000000000000000000e+00,-1.000000000000000082e-05,-1.000000000000000082e-05,-1.000000000000000082e-05,0.000000000000000000e+00,1.000000000000000000e+00,1.300000000000000000e+01
3.532600000000000000e+04,0.000000000000000000e+00,4.000000000000000327e-05,4.000000000000000327e-05,0.000000000000000000e+00,-1.000000000000000082e-05,-1.000000000000000082e-05,-1.000000000000000082e-05,0.000000000000000000e+00,1.000000000000000000e+00,1.300000000000000000e+01
3.532700000000000000e+04,0.000000000000000000e+00,4.000000000000000327e-05,4.000000000000000327e-05,0.000000000000000000e+00,-1.000000000000000082e-05,-1.000000000000000082e-05,-1.000000000000000082e-05,0.000000000000000000e+00,1.000000000000000000e+00,1.300000000000000000e+01
3.532800000000000000e+04,-2.999999999999999737e-05,-4.000000000000000327e-05,-6.999999999999999387e-05,-1.000000000000000082e-05,-1.000000000000000082e-05,-1.000000000000000082e-05,0.000000000000000000e+00,0.000000000000000000e+00,1.000000000000000000e+00,1.300000000000000000e+01
3.532900000000000000e+04,-2.999999999999999737e-05,-4.000000000000000327e-05,-6.999999999999999387e-05,-1.000000000000000082e-05,-1.000000000000000082e-05,-1.000000000000000082e-05,0.000000000000000000e+00,0.000000000000000000e+00,1.000000000000000000e+00,1.300000000000000000e+01
3.533000000000000000e+04,-2.999999999999999737e-05,-4.000000000000000327e-05,-6.999999999999999387e-05,-1.000000000000000082e-05,-1.000000000000000082e-05,-1.000000000000000082e-05,0.000000000000000000e+00,0.000000000000000000e+00,1.000000000000000000e+00,1.300000000000000000e+01
3.533100000000000000e+04,-2.999999999999999737e-05,-4.000000000000000327e-05,-6.999999999999999387e-05,-1.000000000000000082e-05,-1.000000000000000082e-05,-1.000000000000000082e-05,0.000000000000000000e+00,0.000000000000000000e+00,1.000000000000000000e+00,1.300000000000000000e+01
3.533200000000000000e+04,-2.999999999999999737e-05,-4.000000000000000327e-05,-6.999999999999999387e-05,-1.000000000000000082e-05,-1.000000000000000082e-05,-1.000000000000000082e-05,0.000000000000000000e+00,0.000000000000000000e+00,1.000000000000000000e+00,1.300000000000000000e+01
3.533300000000000000e+04,-2.999999999999999737e-05,-4.000000000000000327e-05,-6.999999999999999387e-05,-1.000000000000000082e-05,-1.000000000000000082e-05,-1.000000000000000082e-05,0.000000000000000000e+00,0.000000000000000000e+00,1.000000000000000000e+00,1.300000000000000000e+01
3.533400000000000000e+04,-2.999999999999999737e-05,-4.000000000000000327e-05,-6.999999999999999387e-05,-1.000000000000000082e-05,-1.000000000000000082e-05,-1.000000000000000082e-05,0.000000000000000000e+00,0.000000000000000000e+00,1.000000000000000000e+00,1.300000000000000000e+01
3.533500000000000000e+04,-2.999999999999999737e-05,-4.000000000000000327e-05,-6.999999999999999387e-05,-1.000000000000000082e-05,-1.000000000000000082e-05,-1.000000000000000082e-05,0.000000000000000000e+00,0.000000000000000000e+00,1.000000000000000000e+00,1.300000000000000000e+01
3.533600000000000000e+04,-2.999999999999999737e-05,-4.000000000000000327e-05,-6.999999999999999387e-05,-1.000000000000000082e-05,-1.000000000000000082e-05,-1.000000000000000082e-05,0.000000000000000000e+00,0.000000000000000000e+00,1.000000000000000000e+00,1.300000000000000000e+01
3.533900000000000000e+04,-2.999999999999999737e-05,-4.000000000000000327e-05,-6.999999999999999387e-05,-1.000000000000000082e-05,-1.000000000000000082e-05,-1.000000000000000082e-05,0.000000000000000000e+00,0.000000000000000000e+00,1.000000000000000000e+00,1.300000000000000000e+01
3.534000000000000000e+04,-2.999999999999999737e-05,-4.000000000000000327e-05,-6.999999999999999387e-05,-1.000000000000000082e-05,-1.000000000000000082e-05,-1.000000000000000082e-05,0.000000000000000000e+00,0.000000000000000000e+00,1.000000000000000000e+00,1.300000000000000000e+01
3.534100000000000000e+04,-2.999999999999999737e-05,-4.000000000000000327e-05,-6.999999999999999387e-05,-1.000000000000000082e-05,-1.000000000000000082e-05,-1.000000000000000082e-05,0.000000000000000000e+00,0.000000000000000000e+00,1.000000000000000000e+00,1.300000000000000000e+01
3.534200000000000000e+04,-2.999999999999999737e-05,-4.000000000000000327e-05,-6.999999999999999387e-05,-1.000000000000000082e-05,-1.000000000000000082e-05,-1.000000000000000082e-05,0.000000000000000000e+00,0.000000000000000000e+00,1.000000000000000000e+00,1.300000000000000000e+01
3.534300000000000000e+04,0.000000000000000000e+00,-2.000000000000000164e-05,-1.000000000000000082e-05,-2.999999999999999737e-05,-2.999999999999999737e-05,-1.000000000000000082e-05,-2.000000000000000164e-05,-1.000000000000000082e-05,1.000000000000000000e+00,1.300000000000000000e+01
3.534400000000000000e+04,0.000000000000000000e+00,-2.000000000000000164e-05,1.000000000000000082e-05,2.000000000000000164e-05,1.000000000000000082e-05,0.000000000000000000e+00,1.000000000000000082e-05,0.000000000000000000e+00,1.000000000000000000e+00,1.300000000000000000e+01
3.534500000000000000e+04,0.000000000000000000e+00,-2.000000000000000164e-05,1.000000000000000082e-05,2.000000000000000164e-05,1.000000000000000082e-05,0.000000000000000000e+00,1.000000000000000082e-05,0.000000000000000000e+00,1.000000000000000000e+00,1.300000000000000000e+01
3.534600000000000000e+04,0.000000000000000000e+00,-2.000000000000000164e-05,1.000000000000000082e-05,2.000000000000000164e-05,1.000000000000000082e-05,0.000000000000000000e+00,1.000000000000000082e-05,0.000000000000000000e+00,1.000000000000000000e+00,1.300000000000000000e+01
3.534700000000000000e+04,0.000000000000000000e+00,-2.000000000000000164e-05,1.000000000000000082e-05,2.000000000000000164e-05,1.000000000000000082e-05,0.000000000000000000e+00,1.000000000000000082e-05,0.000000000000000000e+00,1.000000000000000000e+00,1.300000000000000000e+01
3.534800000000000000e+04,0.000000000000000000e+00,-2.000000000000000164e-05,1.000000000000000082e-05,2.000000000000000164e-05,1.000000000000000082e-05,0.000000000000000000e+00,1.000000000000000082e-05,0.000000000000000000e+00,1.000000000000000000e+00,1.300000000000000000e+01
3.534900000000000000e+04,0.000000000000000000e+00,-2.000000000000000164e-05,1.000000000000000082e-05,2.000000000000000164e-05,1.000000000000000082e-05,0.000000000000000000e+00,1.000000000000000082e-05,0.000000000000000000e+00,1.000000000000000000e+00,1.300000000000000000e+01
3.535000000000000000e+04,0.000000000000000000e+00,-2.000000000000000164e-05,1.000000000000000082e-05,2.000000000000000164e-05,1.000000000000000082e-05,0.000000000000000000e+00,1.000000000000000082e-05,0.000000000000000000e+00,1.000000000000000000e+00,1.300000000000000000e+01
3.535100000000000000e+04,0.000000000000000000e+00,-2.000000000000000164e-05,1.000000000000000082e-05,2.000000000000000164e-05,1.000000000000000082e-05,0.000000000000000000e+00,1.000000000000000082e-05,0.000000000000000000e+00,1.000000000000000000e+00,1.300000000000000000e+01
3.535200000000000000e+04,0.000000000000000000e+00,-2.000000000000000164e-05,1.000000000000000082e-05,2.000000000000000164e-05,1.000000000000000082e-05,0.000000000000000000e+00,1.000000000000000082e-05,0.000000000000000000e+00,1.000000000000000000e+00,1.300000000000000000e+01
3.535300000000000000e+04,0.000000000000000000e+00,-2.000000000000000164e-05,1.000000000000000082e-05,2.000000000000000164e-05,1.000000000000000082e-05,0.000000000000000000e+00,1.000000000000000082e-05,0.000000000000000000e+00,1.000000000000000000e+00,1.300000000000000000e+01
3.535400000000000000e+04,0.000000000000000000e+00,-2.000000000000000164e-05,1.000000000000000082e-05,2.000000000000000164e-05,1.000000000000000082e-05,0.000000000000000000e+00,1.000000000000000082e-05,0.000000000000000000e+00,1.000000000000000000e+00,1.300000000000000000e+01
3.535500000000000000e+04,0.000000000000000000e+00,-2.000000000000000164e-05,1.000000000000000082e-05,2.000000000000000164e-05,1.000000000000000082e-05,0.000000000000000000e+00,1.000000000000000082e-05,0.000000000000000000e+00,1.000000000000000000e+00,1.300000000000000000e+01
3.535600000000000000e+04,0.000000000000000000e+00,-2.000000000000000164e-05,1.000000000000000082e-05,2.000000000000000164e-05,1.000000000000000082e-05,0.000000000000000000e+00,1.000000000000000082e-05,0.000000000000000000e+00,1.000000000000000000e+00,1.300000000000000000e+01
3.535700000000000000e+04,0.000000000000000000e+00,-2.000000000000000164e-05,1.000000000000000082e-05,2.000000000000000164e-05,1.000000000000000082e-05,0.000000000000000000e+00,1.000000000000000082e-05,0.000000000000000000e+00,1.000000000000000000e+00,1.300000000000000000e+01
3.535900000000000000e+04,0.000000000000000000e+00,-2.000000000000000164e-05,1.000000000000000082e-05,2.000000000000000164e-05,1.000000000000000082e-05,0.000000000000000000e+00,1.000000000000000082e-05,0.000000000000000000e+00,1.000000000000000000e+00,1.300000000000000000e+01
3.536000000000000000e+04,0.000000000000000000e+00,-2.000000000000000164e-05,1.000000000000000082e-05,2.000000000000000164e-05,1.000000000000000082e-05,0.000000000000000000e+00,1.000000000000000082e-05,0.000000000000000000e+00,1.000000000000000000e+00,1.300000000000000000e+01
3.536100000000000000e+04,0.000000000000000000e+00,-2.000000000000000164e-05,1.000000000000000082e-05,2.000000000000000164e-05,1.000000000000000082e-05,0.000000000000000000e+00,1.000000000000000082e-05,0.000000000000000000e+00,1.000000000000000000e+00,1.300000000000000000e+01
3.536200000000000000e+04,0.000000000000000000e+00,-2.000000000000000164e-05,1.000000000000000082e-05,2.000000000000000164e-05,1.000000000000000082e-05,0.000000000000000000e+00,1.000000000000000082e-05,0.000000000000000000e+00,1.000000000000000000e+00,1.300000000000000000e+01
3.536300000000000000e+04,0.000000000000000000e+00,-2.000000000000000164e-05,1.000000000000000082e-05,2.000000000000000164e-05,1.000000000000000082e-05,0.000000000000000000e+00,1.000000000000000082e-05,0.000000000000000000e+00,1.000000000000000000e+00,1.300000000000000000e+01
3.536400000000000000e+04,0.000000000000000000e+00,-2.000000000000000164e-05,1.000000000000000082e-05,2.000000000000000164e-05,1.000000000000000082e-05,0.000000000000000000e+00,1.000000000000000082e-05,0.000000000000000000e+00,1.000000000000000000e+00,1.300000000000000000e+01
3.536500000000000000e+04,0.000000000000000000e+00,-2.000000000000000164e-05,1.000000000000000082e-05,2.000000000000000164e-05,1.000000000000000082e-05,0.000000000000000000e+00,1.000000000000000082e-05,0.000000000000000000e+00,1.000000000000000000e+00,1.300000000000000000e+01
3.536600000000000000e+04,0.000000000000000000e+00,-2.000000000000000164e-05,1.000000000000000082e-05,2.000000000000000164e-05,1.000000000000000082e-05,0.000000000000000000e+00,1.000000000000000082e-05,0.000000000000000000e+00,1.000000000000000000e+00,1.300000000000000000e+01
3.536700000000000000e+04,0.000000000000000000e+00,-2.000000000000000164e-05,1.000000000000000082e-05,2.000000000000000164e-05,1.000000000000000082e-05,0.000000000000000000e+00,1.000000000000000082e-05,0.000000000000000000e+00,1.000000000000000000e+00,1.300000000000000000e+01
3.536800000000000000e+04,0.000000000000000000e+00,-2.000000000000000164e-05,1.000000000000000082e-05,2.000000000000000164e-05,1.000000000000000082e-05,0.000000000000000000e+00,1.000000000000000082e-05,0.000000000000000000e+00,1.000000000000000000e+00,1.300000000000000000e+01
3.536900000000000000e+04,0.000000000000000000e+00,-2.000000000000000164e-05,1.000000000000000082e-05,2.000000000000000164e-05,1.000000000000000082e-05,0.000000000000000000e+00,1.000000000000000082e-05,0.000000000000000000e+00,1.000000000000000000e+00,1.300000000000000000e+01
3.537000000000000000e+04,0.000000000000000000e+00,-2.000000000000000164e-05,1.000000000000000082e-05,2.000000000000000164e-05,1.000000000000000082e-05,0.000000000000000000e+00,1.000000000000000082e-05,0.000000000000000000e+00,1.000000000000000000e+00,1.300000000000000000e+01
3.537100000000000000e+04,0.000000000000000000e+00,-2.000000000000000164e-05,1.000000000000000082e-05,2.000000000000000164e-05,1.000000000000000082e-05,0.000000000000000000e+00,1.000000000000000082e-05,0.000000000000000000e+00,1.000000000000000000e+00,1.300000000000000000e+01
3.537200000000000000e+04,1.000000000000000082e-05,2.999999999999999737e-05,-4.000000000000000327e-05,-2.999999999999999737e-05,-1.000000000000000082e-05,-2.999999999999999737e-05,-1.000000000000000082e-05,-2.000000000000000164e-05,1.000000000000000000e+00,1.300000000000000000e+01
3.537300000000000000e+04,1.000000000000000082e-05,2.999999999999999737e-05,-4.000000000000000327e-05,-2.999999999999999737e-05,-1.000000000000000082e-05,-2.999999999999999737e-05,-1.000000000000000082e-05,-2.000000000000000164e-05,1.000000000000000000e+00,1.300000000000000000e+01
3.537400000000000000e+04,1.000000000000000082e-05,2.999999999999999737e-05,-4.000000000000000327e-05,-2.999999999999999737e-05,-1.000000000000000082e-05,-2.999999999999999737e-05,-1.000000000000000082e-05,-2.000000000000000164e-05,1.000000000000000000e+00,1.300000000000000000e+01
3.537500000000000000e+04,1.000000000000000082e-05,2.999999999999999737e-05,-4.000000000000000327e-05,-2.999999999999999737e-05,-1.000000000000000082e-05,-2.999999999999999737e-05,-1.000000000000000082e-05,-2.000000000000000164e-05,1.000000000000000000e+00,1.300000000000000000e+01
3.537600000000000000e+04,1.000000000000000082e-05,2.999999999999999737e-05,-4.000000000000000327e-05,-2.999999999999999737e-05,-1.000000000000000082e-05,-2.999999999999999737e-05,-1.000000000000000082e-05,-2.000000000000000164e-05,1.000000000000000000e+00,1.300000000000000000e+01
3.537700000000000000e+04,1.000000000000000082e-05,2.999999999999999737e-05,-4.000000000000000327e-05,-2.999999999999999737e-05,-1.000000000000000082e-05,-2.999999999999999737e-05,-1.000000000000000082e-05,-2.000000000000000164e-05,1.000000000000000000e+00,1.300000000000000000e+01
3.537800000000000000e+04,1.000000000000000082e-05,2.999999999999999737e-05,-4.000000000000000327e-05,-2.999999999999999737e-05,-1.000000000000000082e-05,-2.999999999999999737e-05,-1.000000000000000082e-05,-2.000000000000000164e-05,1.000000000000000000e+00,1.300000000000000000e+01
3.537900000000000000e+04,1.000000000000000082e-05,2.999999999999999737e-05,-4.000000000000000327e-05,-2.999999999999999737e-05,-1.000000000000000082e-05,-2.999999999999999737e-05,-1.000000000000000082e-05,-2.000000000000000164e-05,1.000000000000000000e+00,1.300000000000000000e+01
3.538000000000000000e+04,1.000000000000000082e-05,2.999999999999999737e-05,-4.000000000000000327e-05,-2.999999999999999737e-05,-1.000000000000000082e-05,-2.999999999999999737e-05,-1.000000000000000082e-05,-2.000000000000000164e-05,1.000000000000000000e+00,1.300000000000000000e+01
3.538100000000000000e+04,1.000000000000000082e-05,2.999999999999999737e-05,-6.999999999999999387e-05,-1.000000000000000082e-05,-2.000000000000000164e-05,0.000000000000000000e+00,-2.999999999999999737e-05,-1.000000000000000082e-05,1.000000000000000000e+00,1.300000000000000000e+01
3.538200000000000000e+04,1.000000000000000082e-05,2.999999999999999737e-05,-6.999999999999999387e-05,-1.000000000000000082e-05,-2.000000000000000164e-05,0.000000000000000000e+00,-2.999999999999999737e-05,-1.000000000000000082e-05,1.000000000000000000e+00,1.300000000000000000e+01
3.538300000000000000e+04,-1.000000000000000082e-05,-1.000000000000000082e-05,2.999999999999999737e-05,1.000000000000000082e-05,1.000000000000000082e-05,1.000000000000000082e-05,-2.000000000000000164e-05,-1.000000000000000082e-05,1.000000000000000000e+00,1.300000000000000000e+01
3.538400000000000000e+04,-1.000000000000000082e-05,-1.000000000000000082e-05,2.999999999999999737e-05,1.000000000000000082e-05,1.000000000000000082e-05,1.000000000000000082e-05,-2.000000000000000164e-05,-1.000000000000000082e-05,1.000000000000000000e+00,1.300000000000000000e+01
3.538500000000000000e+04,-1.000000000000000082e-05,-1.000000000000000082e-05,2.999999999999999737e-05,1.000000000000000082e-05,1.000000000000000082e-05,1.000000000000000082e-05,-2.000000000000000164e-05,-1.000000000000000082e-05,1.000000000000000000e+00,1.300000000000000000e+01
3.538600000000000000e+04,-1.000000000000000082e-05,-1.000000000000000082e-05,2.999999999999999737e-05,1.000000000000000082e-05,1.000000000000000082e-05,1.000000000000000082e-05,-2.000000000000000164e-05,-1.000000000000000082e-05,1.000000000000000000e+00,1.300000000000000000e+01
3.538800000000000000e+04,-1.000000000000000082e-05,-1.000000000000000082e-05,2.999999999999999737e-05,1.000000000000000082e-05,1.000000000000000082e-05,1.000000000000000082e-05,-2.000000000000000164e-05,-1.000000000000000082e-05,1.000000000000000000e+00,1.300000000000000000e+01
3.538900000000000000e+04,-1.000000000000000082e-05,-1.000000000000000082e-05,2.999999999999999737e-05,1.000000000000000082e-05,1.000000000000000082e-05,1.000000000000000082e-05,-2.000000000000000164e-05,-1.000000000000000082e-05,1.000000000000000000e+00,1.300000000000000000e+01
3.539000000000000000e+04,-1.000000000000000082e-05,-1.000000000000000082e-05,2.999999999999999737e-05,1.000000000000000082e-05,1.000000000000000082e-05,1.000000000000000082e-05,-2.000000000000000164e-05,-1.000000000000000082e-05,1.000000000000000000e+00,1.300000000000000000e+01
3.539100000000000000e+04,-1.000000000000000082e-05,-1.000000000000000082e-05,2.999999999999999737e-05,1.000000000000000082e-05,1.000000000000000082e-05,1.000000000000000082e-05,-2.000000000000000164e-05,-1.000000000000000082e-05,1.000000000000000000e+00,1.300000000000000000e+01
3.539200000000000000e+04,-1.000000000000000082e-05,-1.000000000000000082e-05,2.999999999999999737e-05,1.000000000000000082e-05,1.000000000000000082e-05,1.000000000000000082e-05,-2.000000000000000164e-05,-1.000000000000000082e-05,1.000000000000000000e+00,1.300000000000000000e+01
3.539300000000000000e+04,-1.000000000000000082e-05,-1.000000000000000082e-05,2.999999999999999737e-05,1.000000000000000082e-05,1.000000000000000082e-05,1.000000000000000082e-05,-2.000000000000000164e-05,-1.000000000000000082e-05,1.000000000000000000e+00,1.300000000000000000e+01
3.539400000000000000e+04,-1.000000000000000082e-05,-1.000000000000000082e-05,2.999999999999999737e-05,1.000000000000000082e-05,1.000000000000000082e-05,1.000000000000000082e-05,-2.000000000000000164e-05,-1.000000000000000082e-05,1.000000000000000000e+00,1.300000000000000000e+01
3.539500000000000000e+04,1.000000000000000082e-05,0.000000000000000000e+00,2.000000000000000164e-05,-2.000000000000000164e-05,-1.000000000000000082e-05,-2.000000000000000164e-05,-2.000000000000000164e-05,0.000000000000000000e+00,1.000000000000000000e+00,1.300000000000000000e+01
3.539600000000000000e+04,1.000000000000000082e-05,0.000000000000000000e+00,2.000000000000000164e-05,-2.000000000000000164e-05,-1.000000000000000082e-05,-2.000000000000000164e-05,-2.000000000000000164e-05,0.000000000000000000e+00,1.000000000000000000e+00,1.300000000000000000e+01
3.539700000000000000e+04,1.000000000000000082e-05,0.000000000000000000e+00,2.000000000000000164e-05,-2.000000000000000164e-05,-1.000000000000000082e-05,-2.000000000000000164e-05,-2.000000000000000164e-05,0.000000000000000000e+00,1.000000000000000000e+00,1.300000000000000000e+01
3.539800000000000000e+04,1.000000000000000082e-05,0.000000000000000000e+00,2.000000000000000164e-05,-2.000000000000000164e-05,-1.000000000000000082e-05,-2.000000000000000164e-05,-2.000000000000000164e-05,0.000000000000000000e+00,1.000000000000000000e+00,1.300000000000000000e+01
3.539900000000000000e+04,1.000000000000000082e-05,0.000000000000000000e+00,2.000000000000000164e-05,-2.000000000000000164e-05,-1.000000000000000082e-05,-2.000000000000000164e-05,-2.000000000000000164e-05,0.000000000000000000e+00,1.000000000000000000e+00,1.300000000000000000e+01
3.540000000000000000e+04,1.000000000000000082e-05,0.000000000000000000e+00,2.000000000000000164e-05,-2.000000000000000164e-05,-1.000000000000000082e-05,-2.000000000000000164e-05,-2.000000000000000164e-05,0.000000000000000000e+00,1.000000000000000000e+00,1.300000000000000000e+01
3.540100000000000000e+04,1.000000000000000082e-05,0.000000000000000000e+00,2.000000000000000164e-05,-2.000000000000000164e-05,-1.000000000000000082e-05,-2.000000000000000164e-05,-2.000000000000000164e-05,0.000000000000000000e+00,1.000000000000000000e+00,1.300000000000000000e+01
3.540200000000000000e+04,-2.000000000000000164e-05,0.000000000000000000e+00,4.000000000000000327e-05,-1.000000000000000082e-05,-1.000000000000000082e-05,-1.000000000000000082e-05,0.000000000000000000e+00,-1.000000000000000082e-05,1.000000000000000000e+00,1.300000000000000000e+01
3.540300000000000000e+04,-2.999999999999999737e-05,-5.999999999999999474e-05,-8.000000000000000654e-05,-5.000000000000000240e-05,-2.999999999999999737e-05,-1.000000000000000082e-05,1.000000000000000082e-05,2.000000000000000164e-05,1.000000000000000000e+00,1.300000000000000000e+01
3.540400000000000000e+04,-2.999999999999999737e-05,-5.999999999999999474e-05,-8.000000000000000654e-05,-5.000000000000000240e-05,-2.999999999999999737e-05,-1.000000000000000082e-05,1.000000000000000082e-05,2.000000000000000164e-05,1.000000000000000000e+00,1.300000000000000000e+01
3.540500000000000000e+04,-2.999999999999999737e-05,-5.999999999999999474e-05,-8.000000000000000654e-05,-5.000000000000000240e-05,-2.999999999999999737e-05,-1.000000000000000082e-05,1.000000000000000082e-05,2.000000000000000164e-05,1.000000000000000000e+00,1.300000000000000000e+01
3.540600000000000000e+04,-2.999999999999999737e-05,-5.999999999999999474e-05,-8.000000000000000654e-05,-5.000000000000000240e-05,-2.999999999999999737e-05,-1.000000000000000082e-05,1.000000000000000082e-05,2.000000000000000164e-05,1.000000000000000000e+00,1.300000000000000000e+01
3.540700000000000000e+04,-2.999999999999999737e-05,-5.999999999999999474e-05,-8.000000000000000654e-05,-5.000000000000000240e-05,-2.999999999999999737e-05,-1.000000000000000082e-05,1.000000000000000082e-05,2.000000000000000164e-05,1.000000000000000000e+00,1.300000000000000000e+01
3.540800000000000000e+04,-2.999999999999999737e-05,-5.999999999999999474e-05,-8.000000000000000654e-05,-5.000000000000000240e-05,-2.999999999999999737e-05,-1.000000000000000082e-05,1.000000000000000082e-05,2.000000000000000164e-05,1.000000000000000000e+00,1.300000000000000000e+01
3.540900000000000000e+04,-2.999999999999999737e-05,-5.999999999999999474e-05,-8.000000000000000654e-05,-5.000000000000000240e-05,-2.999999999999999737e-05,-1.000000000000000082e-05,1.000000000000000082e-05,2.000000000000000164e-05,1.000000000000000000e+00,1.300000000000000000e+01
3.541000000000000000e+04,-2.999999999999999737e-05,-5.999999999999999474e-05,-8.000000000000000654e-05,-5.000000000000000240e-05,-2.999999999999999737e-05,-1.000000000000000082e-05,1.000000000000000082e-05,2.000000000000000164e-05,1.000000000000000000e+00,1.300000000000000000e+01
3.541100000000000000e+04,-2.999999999999999737e-05,-5.999999999999999474e-05,-8.000000000000000654e-05,-5.000000000000000240e-05,-2.999999999999999737e-05,-1.000000000000000082e-05,1.000000000000000082e-05,2.000000000000000164e-05,1.000000000000000000e+00,1.300000000000000000e+01
3.541200000000000000e+04,-2.999999999999999737e-05,-5.999999999999999474e-05,-8.000000000000000654e-05,-5.000000000000000240e-05,-2.999999999999999737e-05,-1.000000000000000082e-05,1.000000000000000082e-05,2.000000000000000164e-05,1.000000000000000000e+00,1.300000000000000000e+01
3.541300000000000000e+04,-2.999999999999999737e-05,-5.999999999999999474e-05,-8.000000000000000654e-05,-5.000000000000000240e-05,-2.999999999999999737e-05,-1.000000000000000082e-05,1.000000000000000082e-05,2.000000000000000164e-05,1.000000000000000000e+00,1.300000000000000000e+01
3.541400000000000000e+04,-2.999999999999999737e-05,-5.999999999999999474e-05,-8.000000000000000654e-05,-5.000000000000000240e-05,-2.999999999999999737e-05,-1.000000000000000082e-05,1.000000000000000082e-05,2.000000000000000164e-05,1.000000000000000000e+00,1.300000000000000000e+01
3.541500000000000000e+04,-2.999999999999999737e-05,-5.999999999999999474e-05,-8.000000000000000654e-05,-5.000000000000000240e-05,-2.999999999999999737e-05,-1.000000000000000082e-05,1.000000000000000082e-05,2.000000000000000164e-05,1.000000000000000000e+00,1.300000000000000000e+01
3.541600000000000000e+04,-2.999999999999999737e-05,-5.999999999999999474e-05,-8.000000000000000654e-05,-5.000000000000000240e-05,-2.999999999999999737e-05,-1.000000000000000082e-05,1.000000000000000082e-05,2.000000000000000164e-05,1.000000000000000000e+00,1.300000000000000000e+01
3.541700000000000000e+04,-2.999999999999999737e-05,-5.999999999999999474e-05,-8.000000000000000654e-05,-5.000000000000000240e-05,-2.999999999999999737e-05,-1.000000000000000082e-05,1.000000000000000082e-05,2.000000000000000164e-05,1.000000000000000000e+00,1.300000000000000000e+01
3.541800000000000000e+04,-2.999999999999999737e-05,-5.999999999999999474e-05,-8.000000000000000654e-05,-5.000000000000000240e-05,-2.999999999999999737e-05,-1.000000000000000082e-05,1.000000000000000082e-05,2.000000000000000164e-05,1.000000000000000000e+00,1.300000000000000000e+01
3.541900000000000000e+04,-2.999999999999999737e-05,-5.999999999999999474e-05,-8.000000000000000654e-05,-5.000000000000000240e-05,-2.999999999999999737e-05,-1.000000000000000082e-05,1.000000000000000082e-05,2.000000000000000164e-05,1.000000000000000000e+00,1.300000000000000000e+01
3.542000000000000000e+04,-2.999999999999999737e-05,-5.999999999999999474e-05,-8.000000000000000654e-05,-5.000000000000000240e-05,-2.999999999999999737e-05,-1.000000000000000082e-05,1.000000000000000082e-05,2.000000000000000164e-05,1.000000000000000000e+00,1.300000000000000000e+01
3.542100000000000000e+04,-2.999999999999999737e-05,-5.999999999999999474e-05,-8.000000000000000654e-05,-5.000000000000000240e-05,-2.999999999999999737e-05,-1.000000000000000082e-05,1.000000000000000082e-05,2.000000000000000164e-05,1.000000000000000000e+00,1.300000000000000000e+01
3.542200000000000000e+04,-2.999999999999999737e-05,-5.999999999999999474e-05,-8.000000000000000654e-05,-5.000000000000000240e-05,-2.999999999999999737e-05,-1.000000000000000082e-05,1.000000000000000082e-05,2.000000000000000164e-05,1.000000000000000000e+00,1.300000000000000000e+01
3.542300000000000000e+04,-2.999999999999999737e-05,-5.999999999999999474e-05,-8.000000000000000654e-05,-5.000000000000000240e-05,-2.999999999999999737e-05,-1.000000000000000082e-05,1.000000000000000082e-05,2.000000000000000164e-05,1.000000000000000000e+00,1.300000000000000000e+01
3.542400000000000000e+04,-2.999999999999999737e-05,-5.999999999999999474e-05,-8.000000000000000654e-05,-5.000000000000000240e-05,-2.999999999999999737e-05,-1.000000000000000082e-05,1.000000000000000082e-05,2.000000000000000164e-05,1.000000000000000000e+00,1.300000000000000000e+01
3.542500000000000000e+04,-2.000000000000000164e-05,-1.000000000000000082e-05,-2.000000000000000164e-05,0.000000000000000000e+00,-1.000000000000000082e-05,-2.999999999999999737e-05,0.000000000000000000e+00,0.000000000000000000e+00,1.000000000000000000e+00,1.300000000000000000e+01
3.542600000000000000e+04,0.000000000000000000e+00,-1.000000000000000082e-05,2.999999999999999737e-05,1.000000000000000082e-05,1.000000000000000082e-05,-2.000000000000000164e-05,-2.000000000000000164e-05,-2.000000000000000164e-05,1.000000000000000000e+00,1.300000000000000000e+01
3.542700000000000000e+04,0.000000000000000000e+00,-1.000000000000000082e-05,2.999999999999999737e-05,1.000000000000000082e-05,1.000000000000000082e-05,-2.000000000000000164e-05,-2.000000000000000164e-05,-2.000000000000000164e-05,1.000000000000000000e+00,1.300000000000000000e+01
3.542800000000000000e+04,0.000000000000000000e+00,-1.000000000000000082e-05,2.999999999999999737e-05,1.000000000000000082e-05,1.000000000000000082e-05,-2.000000000000000164e-05,-2.000000000000000164e-05,-2.000000000000000164e-05,1.000000000000000000e+00,1.300000000000000000e+01
3.542900000000000000e+04,0.000000000000000000e+00,-1.000000000000000082e-05,2.999999999999999737e-05,1.000000000000000082e-05,1.000000000000000082e-05,-2.000000000000000164e-05,-2.000000000000000164e-05,-2.000000000000000164e-05,1.000000000000000000e+00,1.300000000000000000e+01
3.543000000000000000e+04,0.000000000000000000e+00,-1.000000000000000082e-05,2.999999999999999737e-05,1.000000000000000082e-05,1.000000000000000082e-05,-2.000000000000000164e-05,-2.000000000000000164e-05,-2.000000000000000164e-05,1.000000000000000000e+00,1.300000000000000000e+01
3.543100000000000000e+04,0.000000000000000000e+00,-1.000000000000000082e-05,2.999999999999999737e-05,1.000000000000000082e-05,1.000000000000000082e-05,-2.000000000000000164e-05,-2.000000000000000164e-05,-2.000000000000000164e-05,1.000000000000000000e+00,1.300000000000000000e+01
3.543200000000000000e+04,0.000000000000000000e+00,-1.000000000000000082e-05,2.999999999999999737e-05,1.000000000000000082e-05,1.000000000000000082e-05,-2.000000000000000164e-05,-2.000000000000000164e-05,-2.000000000000000164e-05,1.000000000000000000e+00,1.300000000000000000e+01
3.543300000000000000e+04,0.000000000000000000e+00,-1.000000000000000082e-05,2.999999999999999737e-05,1.000000000000000082e-05,1.000000000000000082e-05,-2.000000000000000164e-05,-2.000000000000000164e-05,-2.000000000000000164e-05,1.000000000000000000e+00,1.300000000000000000e+01
3.543400000000000000e+04,0.000000000000000000e+00,-1.000000000000000082e-05,2.999999999999999737e-05,1.000000000000000082e-05,1.000000000000000082e-05,-2.000000000000000164e-05,-2.000000000000000164e-05,-2.000000000000000164e-05,1.000000000000000000e+00,1.300000000000000000e+01
3.543500000000000000e+04,0.000000000000000000e+00,-1.000000000000000082e-05,2.999999999999999737e-05,1.000000000000000082e-05,1.000000000000000082e-05,-2.000000000000000164e-05,-2.000000000000000164e-05,-2.000000000000000164e-05,1.000000000000000000e+00,1.300000000000000000e+01
3.543600000000000000e+04,0.000000000000000000e+00,-1.000000000000000082e-05,2.999999999999999737e-05,1.000000000000000082e-05,1.000000000000000082e-05,-2.000000000000000164e-05,-2.000000000000000164e-05,-2.000000000000000164e-05,1.000000000000000000e+00,1.300000000000000000e+01
3.543900000000000000e+04,0.000000000000000000e+00,-1.000000000000000082e-05,2.999999999999999737e-05,1.000000000000000082e-05,1.000000000000000082e-05,-2.000000000000000164e-05,-2.000000000000000164e-05,-2.000000000000000164e-05,1.000000000000000000e+00,1.300000000000000000e+01
3.544000000000000000e+04,0.000000000000000000e+00,-1.000000000000000082e-05,2.999999999999999737e-05,1.000000000000000082e-05,1.000000000000000082e-05,-2.000000000000000164e-05,-2.000000000000000164e-05,-2.000000000000000164e-05,1.000000000000000000e+00,1.300000000000000000e+01
3.544100000000000000e+04,0.000000000000000000e+00,-1.000000000000000082e-05,2.999999999999999737e-05,1.000000000000000082e-05,1.000000000000000082e-05,-2.000000000000000164e-05,-2.000000000000000164e-05,-2.000000000000000164e-05,1.000000000000000000e+00,1.300000000000000000e+01
3.544200000000000000e+04,0.000000000000000000e+00,-1.000000000000000082e-05,2.999999999999999737e-05,1.000000000000000082e-05,1.000000000000000082e-05,-2.000000000000000164e-05,-2.000000000000000164e-05,-2.000000000000000164e-05,1.000000000000000000e+00,1.300000000000000000e+01
3.544300000000000000e+04,0.000000000000000000e+00,-1.000000000000000082e-05,2.999999999999999737e-05,1.000000000000000082e-05,1.000000000000000082e-05,-2.000000000000000164e-05,-2.000000000000000164e-05,-2.000000000000000164e-05,1.000000000000000000e+00,1.300000000000000000e+01
3.544400000000000000e+04,0.000000000000000000e+00,-1.000000000000000082e-05,2.999999999999999737e-05,1.000000000000000082e-05,1.000000000000000082e-05,-2.000000000000000164e-05,-2.000000000000000164e-05,-2.000000000000000164e-05,1.000000000000000000e+00,1.300000000000000000e+01
3.544500000000000000e+04,0.000000000000000000e+00,-1.000000000000000082e-05,2.999999999999999737e-05,1.000000000000000082e-05,1.000000000000000082e-05,-2.000000000000000164e-05,-2.000000000000000164e-05,-2.000000000000000164e-05,1.000000000000000000e+00,1.300000000000000000e+01
3.544600000000000000e+04,0.000000000000000000e+00,-1.000000000000000082e-05,2.999999999999999737e-05,1.000000000000000082e-05,1.000000000000000082e-05,-2.000000000000000164e-05,-2.000000000000000164e-05,-2.000000000000000164e-05,1.000000000000000000e+00,1.300000000000000000e+01
3.544700000000000000e+04,0.000000000000000000e+00,-1.000000000000000082e-05,2.999999999999999737e-05,1.000000000000000082e-05,1.000000000000000082e-05,-2.000000000000000164e-05,-2.000000000000000164e-05,-2.000000000000000164e-05,1.000000000000000000e+00,1.300000000000000000e+01
3.544800000000000000e+04,0.000000000000000000e+00,-1.000000000000000082e-05,2.999999999999999737e-05,1.000000000000000082e-05,1.000000000000000082e-05,-2.000000000000000164e-05,-2.000000000000000164e-05,-2.000000000000000164e-05,1.000000000000000000e+00,1.300000000000000000e+01
3.544900000000000000e+04,0.000000000000000000e+00,-1.000000000000000082e-05,2.999999999999999737e-05,1.000000000000000082e-05,1.000000000000000082e-05,-2.000000000000000164e-05,-2.000000000000000164e-05,-2.000000000000000164e-05,1.000000000000000000e+00,1.300000000000000000e+01
3.545000000000000000e+04,-2.999999999999999737e-05,-8.000000000000000654e-05,-9.000000000000000567e-05,-5.999999999999999474e-05,-2.000000000000000164e-05,-1.000000000000000082e-05,-2.999999999999999737e-05,-2.999999999999999737e-05,1.000000000000000000e+00,1.300000000000000000e+01
3.545100000000000000e+04,0.000000000000000000e+00,0.000000000000000000e+00,1.000000000000000082e-05,1.000000000000000082e-05,-1.000000000000000082e-05,-1.000000000000000082e-05,-1.000000000000000082e-05,-2.000000000000000164e-05,1.000000000000000000e+00,1.300000000000000000e+01
3.545200000000000000e+04,0.000000000000000000e+00,0.000000000000000000e+00,1.000000000000000082e-05,1.000000000000000082e-05,-1.000000000000000082e-05,-1.000000000000000082e-05,-1.000000000000000082e-05,-2.000000000000000164e-05,1.000000000000000000e+00,1.300000000000000000e+01
3.545300000000000000e+04,0.000000000000000000e+00,0.000000000000000000e+00,1.000000000000000082e-05,1.000000000000000082e-05,-1.000000000000000082e-05,-1.000000000000000082e-05,-1.000000000000000082e-05,-2.000000000000000164e-05,1.000000000000000000e+00,1.300000000000000000e+01
