3.234300000000000000e+04,2.999999999999999737e-04,1.100000000000000039e-04,5.000000000000000240e-05,1.300000000000000157e-04,2.200000000000000078e-04,4.400000000000000157e-04,-1.000000000000000048e-04,9.000000000000000567e-05,2.000000000000000000e+00,1.500000000000000000e+01
3.234400000000000000e+04,2.999999999999999737e-04,1.100000000000000039e-04,5.000000000000000240e-05,1.300000000000000157e-04,2.200000000000000078e-04,4.400000000000000157e-04,-1.000000000000000048e-04,9.000000000000000567e-05,2.000000000000000000e+00,1.500000000000000000e+01
3.234500000000000000e+04,2.999999999999999737e-04,1.100000000000000039e-04,5.000000000000000240e-05,1.300000000000000157e-04,2.200000000000000078e-04,4.400000000000000157e-04,-1.000000000000000048e-04,9.000000000000000567e-05,2.000000000000000000e+00,1.500000000000000000e+01
3.234600000000000000e+04,2.999999999999999737e-04,1.100000000000000039e-04,5.000000000000000240e-05,1.300000000000000157e-04,2.200000000000000078e-04,4.400000000000000157e-04,-1.000000000000000048e-04,9.000000000000000567e-05,2.000000000000000000e+00,1.500000000000000000e+01
3.234700000000000000e+04,2.999999999999999737e-04,1.100000000000000039e-04,5.000000000000000240e-05,1.300000000000000157e-04,2.200000000000000078e-04,4.400000000000000157e-04,-1.000000000000000048e-04,9.000000000000000567e-05,2.000000000000000000e+00,1.500000000000000000e+01
3.234800000000000000e+04,2.999999999999999737e-04,1.100000000000000039e-04,5.000000000000000240e-05,1.300000000000000157e-04,2.200000000000000078e-04,4.400000000000000157e-04,-1.000000000000000048e-04,9.000000000000000567e-05,2.000000000000000000e+00,1.500000000000000000e+01
3.234900000000000000e+04,2.999999999999999737e-04,1.100000000000000039e-04,5.000000000000000240e-05,1.300000000000000157e-04,2.200000000000000078e-04,4.400000000000000157e-04,-1.000000000000000048e-04,9.000000000000000567e-05,2.000000000000000000e+00,1.500000000000000000e+01
3.235000000000000000e+04,2.999999999999999737e-04,1.100000000000000039e-04,5.000000000000000240e-05,1.300000000000000157e-04,2.200000000000000078e-04,4.400000000000000157e-04,-1.000000000000000048e-04,9.000000000000000567e-05,2.000000000000000000e+00,1.500000000000000000e+01
3.235100000000000000e+04,-5.999999999999999474e-05,-2.000000000000000164e-05,-5.000000000000000240e-05,-6.999999999999999387e-05,3.099999999999999999e-04,1.000000000000000082e-05,-3.299999999999999982e-04,-9.000000000000000567e-05,2.000000000000000000e+00,1.500000000000000000e+01
3.235200000000000000e+04,-5.999999999999999474e-05,-2.000000000000000164e-05,-5.000000000000000240e-05,-6.999999999999999387e-05,3.099999999999999999e-04,1.000000000000000082e-05,-3.299999999999999982e-04,-9.000000000000000567e-05,2.000000000000000000e+00,1.500000000000000000e+01
3.235300000000000000e+04,-5.000000000000000240e-05,1.000000000000000082e-05,9.000000000000000567e-05,1.100000000000000039e-04,2.000000000000000164e-05,-1.000000000000000082e-05,1.000000000000000048e-04,-2.999999999999999737e-05,2.000000000000000000e+00,1.500000000000000000e+01
3.235400000000000000e+04,-5.000000000000000240e-05,1.000000000000000082e-05,9.000000000000000567e-05,1.100000000000000039e-04,2.000000000000000164e-05,-1.000000000000000082e-05,1.000000000000000048e-04,-2.999999999999999737e-05,2.000000000000000000e+00,1.500000000000000000e+01
3.235500000000000000e+04,-5.000000000000000240e-05,1.000000000000000082e-05,9.000000000000000567e-05,1.100000000000000039e-04,2.000000000000000164e-05,-1.000000000000000082e-05,1.000000000000000048e-04,-2.999999999999999737e-05,2.000000000000000000e+00,1.500000000000000000e+01
3.235600000000000000e+04,-5.000000000000000240e-05,1.000000000000000082e-05,9.000000000000000567e-05,1.100000000000000039e-04,2.000000000000000164e-05,-1.000000000000000082e-05,1.000000000000000048e-04,-2.999999999999999737e-05,2.000000000000000000e+00,1.500000000000000000e+01
3.235700000000000000e+04,-5.000000000000000240e-05,1.000000000000000082e-05,9.000000000000000567e-05,1.100000000000000039e-04,2.000000000000000164e-05,-1.000000000000000082e-05,1.000000000000000048e-04,-2.999999999999999737e-05,2.000000000000000000e+00,1.500000000000000000e+01
3.235800000000000000e+04,-5.000000000000000240e-05,1.000000000000000082e-05,9.000000000000000567e-05,1.100000000000000039e-04,2.000000000000000164e-05,-1.000000000000000082e-05,1.000000000000000048e-04,-2.999999999999999737e-05,2.000000000000000000e+00,1.500000000000000000e+01
3.235900000000000000e+04,-5.000000000000000240e-05,1.000000000000000082e-05,9.000000000000000567e-05,1.100000000000000039e-04,2.000000000000000164e-05,-1.000000000000000082e-05,1.000000000000000048e-04,-2.999999999999999737e-05,2.000000000000000000e+00,1.500000000000000000e+01
3.236000000000000000e+04,-5.000000000000000240e-05,1.000000000000000082e-05,9.000000000000000567e-05,1.100000000000000039e-04,2.000000000000000164e-05,-1.000000000000000082e-05,1.000000000000000048e-04,-2.999999999999999737e-05,2.000000000000000000e+00,1.500000000000000000e+01
3.236100000000000000e+04,-5.000000000000000240e-05,1.000000000000000082e-05,9.000000000000000567e-05,1.100000000000000039e-04,2.000000000000000164e-05,-1.000000000000000082e-05,1.000000000000000048e-04,-2.999999999999999737e-05,2.000000000000000000e+00,1.500000000000000000e+01
3.236200000000000000e+04,-5.000000000000000240e-05,1.000000000000000082e-05,9.000000000000000567e-05,1.100000000000000039e-04,2.000000000000000164e-05,-1.000000000000000082e-05,1.000000000000000048e-04,-2.999999999999999737e-05,2.000000000000000000e+00,1.500000000000000000e+01
3.236300000000000000e+04,-5.000000000000000240e-05,1.000000000000000082e-05,9.000000000000000567e-05,1.100000000000000039e-04,2.000000000000000164e-05,-1.000000000000000082e-05,1.000000000000000048e-04,-2.999999999999999737e-05,2.000000000000000000e+00,1.500000000000000000e+01
3.236400000000000000e+04,-5.000000000000000240e-05,1.000000000000000082e-05,9.000000000000000567e-05,1.100000000000000039e-04,2.000000000000000164e-05,-1.000000000000000082e-05,1.000000000000000048e-04,-2.999999999999999737e-05,2.000000000000000000e+00,1.500000000000000000e+01
3.236500000000000000e+04,-5.000000000000000240e-05,1.000000000000000082e-05,9.000000000000000567e-05,1.100000000000000039e-04,2.000000000000000164e-05,-1.000000000000000082e-05,1.000000000000000048e-04,-2.999999999999999737e-05,2.000000000000000000e+00,1.500000000000000000e+01
3.236600000000000000e+04,-5.000000000000000240e-05,1.000000000000000082e-05,9.000000000000000567e-05,1.100000000000000039e-04,2.000000000000000164e-05,-1.000000000000000082e-05,1.000000000000000048e-04,-2.999999999999999737e-05,2.000000000000000000e+00,1.500000000000000000e+01
3.236700000000000000e+04,-5.000000000000000240e-05,1.000000000000000082e-05,9.000000000000000567e-05,1.100000000000000039e-04,2.000000000000000164e-05,-1.000000000000000082e-05,1.000000000000000048e-04,-2.999999999999999737e-05,2.000000000000000000e+00,1.500000000000000000e+01
3.236800000000000000e+04,-5.000000000000000240e-05,1.000000000000000082e-05,9.000000000000000567e-05,1.100000000000000039e-04,2.000000000000000164e-05,-1.000000000000000082e-05,1.000000000000000048e-04,-2.999999999999999737e-05,2.000000000000000000e+00,1.500000000000000000e+01
3.236900000000000000e+04,-5.000000000000000240e-05,1.000000000000000082e-05,9.000000000000000567e-05,1.100000000000000039e-04,2.000000000000000164e-05,-1.000000000000000082e-05,1.000000000000000048e-04,-2.999999999999999737e-05,2.000000000000000000e+00,1.500000000000000000e+01
3.237000000000000000e+04,-5.000000000000000240e-05,1.000000000000000082e-05,9.000000000000000567e-05,1.100000000000000039e-04,2.000000000000000164e-05,-1.000000000000000082e-05,1.000000000000000048e-04,-2.999999999999999737e-05,2.000000000000000000e+00,1.500000000000000000e+01
3.237100000000000000e+04,-5.000000000000000240e-05,1.000000000000000082e-05,9.000000000000000567e-05,1.100000000000000039e-04,2.000000000000000164e-05,-1.000000000000000082e-05,1.000000000000000048e-04,-2.999999999999999737e-05,2.000000000000000000e+00,1.500000000000000000e+01
3.237200000000000000e+04,-5.000000000000000240e-05,1.000000000000000082e-05,9.000000000000000567e-05,1.100000000000000039e-04,2.000000000000000164e-05,-1.000000000000000082e-05,1.000000000000000048e-04,-2.999999999999999737e-05,2.000000000000000000e+00,1.500000000000000000e+01
3.237300000000000000e+04,-5.000000000000000240e-05,1.000000000000000082e-05,9.000000000000000567e-05,1.100000000000000039e-04,2.000000000000000164e-05,-1.000000000000000082e-05,1.000000000000000048e-04,-2.999999999999999737e-05,2.000000000000000000e+00,1.500000000000000000e+01
3.237400000000000000e+04,-4.200000000000000174e-04,-2.999999999999999737e-05,2.999999999999999737e-05,-1.000000000000000048e-04,-2.999999999999999737e-05,-8.000000000000000654e-05,-3.600000000000000227e-04,-1.399999999999999877e-04,2.000000000000000000e+00,1.500000000000000000e+01
3.237500000000000000e+04,2.999999999999999737e-05,2.999999999999999737e-05,5.999999999999999474e-05,-2.100000000000000087e-04,-2.500000000000000052e-04,-2.000000000000000096e-04,9.000000000000000567e-05,9.000000000000000567e-05,2.000000000000000000e+00,1.500000000000000000e+01
3.237600000000000000e+04,2.999999999999999737e-05,2.999999999999999737e-05,5.999999999999999474e-05,-2.100000000000000087e-04,-2.500000000000000052e-04,-2.000000000000000096e-04,9.000000000000000567e-05,9.000000000000000567e-05,2.000000000000000000e+00,1.500000000000000000e+01
3.237700000000000000e+04,2.999999999999999737e-05,2.999999999999999737e-05,5.999999999999999474e-05,-2.100000000000000087e-04,-2.500000000000000052e-04,-2.000000000000000096e-04,9.000000000000000567e-05,9.000000000000000567e-05,2.000000000000000000e+00,1.500000000000000000e+01
3.237800000000000000e+04,2.999999999999999737e-05,2.999999999999999737e-05,5.999999999999999474e-05,-2.100000000000000087e-04,-2.500000000000000052e-04,-2.000000000000000096e-04,9.000000000000000567e-05,9.000000000000000567e-05,2.000000000000000000e+00,1.500000000000000000e+01
3.237900000000000000e+04,2.999999999999999737e-05,2.999999999999999737e-05,5.999999999999999474e-05,-2.100000000000000087e-04,-2.500000000000000052e-04,-2.000000000000000096e-04,9.000000000000000567e-05,9.000000000000000567e-05,2.000000000000000000e+00,1.500000000000000000e+01
3.238000000000000000e+04,2.999999999999999737e-05,2.999999999999999737e-05,5.999999999999999474e-05,-2.100000000000000087e-04,-2.500000000000000052e-04,-2.000000000000000096e-04,9.000000000000000567e-05,9.000000000000000567e-05,2.000000000000000000e+00,1.500000000000000000e+01
3.238100000000000000e+04,2.999999999999999737e-05,2.999999999999999737e-05,5.999999999999999474e-05,-2.100000000000000087e-04,-2.500000000000000052e-04,-2.000000000000000096e-04,9.000000000000000567e-05,9.000000000000000567e-05,2.000000000000000000e+00,1.500000000000000000e+01
3.238200000000000000e+04,2.999999999999999737e-05,2.999999999999999737e-05,5.999999999999999474e-05,-2.100000000000000087e-04,-2.500000000000000052e-04,-2.000000000000000096e-04,9.000000000000000567e-05,9.000000000000000567e-05,2.000000000000000000e+00,1.500000000000000000e+01
3.238300000000000000e+04,2.999999999999999737e-05,2.999999999999999737e-05,5.999999999999999474e-05,-2.100000000000000087e-04,-2.500000000000000052e-04,-2.000000000000000096e-04,9.000000000000000567e-05,9.000000000000000567e-05,2.000000000000000000e+00,1.500000000000000000e+01
3.238400000000000000e+04,2.999999999999999737e-05,2.999999999999999737e-05,5.999999999999999474e-05,-2.100000000000000087e-04,-2.500000000000000052e-04,-2.000000000000000096e-04,9.000000000000000567e-05,9.000000000000000567e-05,2.000000000000000000e+00,1.500000000000000000e+01
3.238500000000000000e+04,2.999999999999999737e-05,2.999999999999999737e-05,5.999999999999999474e-05,-2.100000000000000087e-04,-2.500000000000000052e-04,-2.000000000000000096e-04,9.000000000000000567e-05,9.000000000000000567e-05,2.000000000000000000e+00,1.500000000000000000e+01
3.238600000000000000e+04,2.999999999999999737e-05,2.999999999999999737e-05,5.999999999999999474e-05,-2.100000000000000087e-04,-2.500000000000000052e-04,-2.000000000000000096e-04,9.000000000000000567e-05,9.000000000000000567e-05,2.000000000000000000e+00,1.500000000000000000e+01
3.238800000000000000e+04,9.000000000000000567e-05,1.000000000000000082e-05,-2.999999999999999737e-05,-1.399999999999999877e-04,1.899999999999999834e-04,-4.499999999999999877e-04,6.999999999999999387e-05,5.999999999999999474e-05,2.000000000000000000e+00,1.500000000000000000e+01
3.238900000000000000e+04,9.000000000000000567e-05,1.000000000000000082e-05,-2.999999999999999737e-05,-1.399999999999999877e-04,1.899999999999999834e-04,-4.499999999999999877e-04,6.999999999999999387e-05,5.999999999999999474e-05,2.000000000000000000e+00,1.500000000000000000e+01
3.239000000000000000e+04,9.000000000000000567e-05,1.000000000000000082e-05,-2.999999999999999737e-05,-1.399999999999999877e-04,1.899999999999999834e-04,-4.499999999999999877e-04,6.999999999999999387e-05,5.999999999999999474e-05,2.000000000000000000e+00,1.500000000000000000e+01
3.239100000000000000e+04,9.000000000000000567e-05,1.000000000000000082e-05,-2.999999999999999737e-05,-1.399999999999999877e-04,1.899999999999999834e-04,-4.499999999999999877e-04,6.999999999999999387e-05,5.999999999999999474e-05,2.000000000000000000e+00,1.500000000000000000e+01
3.239200000000000000e+04,9.000000000000000567e-05,1.000000000000000082e-05,-2.999999999999999737e-05,-1.399999999999999877e-04,1.899999999999999834e-04,-4.499999999999999877e-04,6.999999999999999387e-05,5.999999999999999474e-05,2.000000000000000000e+00,1.500000000000000000e+01
3.239300000000000000e+04,9.000000000000000567e-05,1.000000000000000082e-05,-2.999999999999999737e-05,-1.399999999999999877e-04,1.899999999999999834e-04,-4.499999999999999877e-04,6.999999999999999387e-05,5.999999999999999474e-05,2.000000000000000000e+00,1.500000000000000000e+01
3.239400000000000000e+04,9.000000000000000567e-05,1.000000000000000082e-05,-2.999999999999999737e-05,-1.399999999999999877e-04,1.899999999999999834e-04,-4.499999999999999877e-04,6.999999999999999387e-05,5.999999999999999474e-05,2.000000000000000000e+00,1.500000000000000000e+01
3.239500000000000000e+04,9.000000000000000567e-05,1.000000000000000082e-05,-2.999999999999999737e-05,-1.399999999999999877e-04,1.899999999999999834e-04,-4.499999999999999877e-04,6.999999999999999387e-05,5.999999999999999474e-05,2.000000000000000000e+00,1.500000000000000000e+01
3.239600000000000000e+04,-1.100000000000000039e-04,-4.000000000000000327e-05,6.999999999999999387e-05,1.000000000000000082e-05,-1.000000000000000048e-04,-5.999999999999999474e-05,-1.800000000000000113e-04,-1.300000000000000157e-04,2.000000000000000000e+00,1.500000000000000000e+01
3.239700000000000000e+04,-1.100000000000000039e-04,-4.000000000000000327e-05,6.999999999999999387e-05,1.000000000000000082e-05,-1.000000000000000048e-04,-5.999999999999999474e-05,-1.800000000000000113e-04,-1.300000000000000157e-04,2.000000000000000000e+00,1.500000000000000000e+01
3.239800000000000000e+04,-1.100000000000000039e-04,-4.000000000000000327e-05,6.999999999999999387e-05,1.000000000000000082e-05,-1.000000000000000048e-04,-5.999999999999999474e-05,-1.800000000000000113e-04,-1.300000000000000157e-04,2.000000000000000000e+00,1.500000000000000000e+01
3.239900000000000000e+04,-1.100000000000000039e-04,-4.000000000000000327e-05,6.999999999999999387e-05,1.000000000000000082e-05,-1.000000000000000048e-04,-5.999999999999999474e-05,-1.800000000000000113e-04,-1.300000000000000157e-04,2.000000000000000000e+00,1.500000000000000000e+01
3.240000000000000000e+04,-1.100000000000000039e-04,-4.000000000000000327e-05,6.999999999999999387e-05,1.000000000000000082e-05,-1.000000000000000048e-04,-5.999999999999999474e-05,-1.800000000000000113e-04,-1.300000000000000157e-04,2.000000000000000000e+00,1.500000000000000000e+01
3.240100000000000000e+04,-1.100000000000000039e-04,-4.000000000000000327e-05,6.999999999999999387e-05,1.000000000000000082e-05,-1.000000000000000048e-04,-5.999999999999999474e-05,-1.800000000000000113e-04,-1.300000000000000157e-04,2.000000000000000000e+00,1.500000000000000000e+01
3.240200000000000000e+04,-1.100000000000000039e-04,-4.000000000000000327e-05,6.999999999999999387e-05,1.000000000000000082e-05,-1.000000000000000048e-04,-5.999999999999999474e-05,-1.800000000000000113e-04,-1.300000000000000157e-04,2.000000000000000000e+00,1.500000000000000000e+01
3.240300000000000000e+04,-1.100000000000000039e-04,-4.000000000000000327e-05,6.999999999999999387e-05,1.000000000000000082e-05,-1.000000000000000048e-04,-5.999999999999999474e-05,-1.800000000000000113e-04,-1.300000000000000157e-04,2.000000000000000000e+00,1.500000000000000000e+01
3.240400000000000000e+04,-1.100000000000000039e-04,-4.000000000000000327e-05,6.999999999999999387e-05,1.000000000000000082e-05,-1.000000000000000048e-04,-5.999999999999999474e-05,-1.800000000000000113e-04,-1.300000000000000157e-04,2.000000000000000000e+00,1.500000000000000000e+01
3.240500000000000000e+04,-1.100000000000000039e-04,-4.000000000000000327e-05,6.999999999999999387e-05,1.000000000000000082e-05,-1.000000000000000048e-04,-5.999999999999999474e-05,-1.800000000000000113e-04,-1.300000000000000157e-04,2.000000000000000000e+00,1.500000000000000000e+01
3.240600000000000000e+04,-1.100000000000000039e-04,-4.000000000000000327e-05,6.999999999999999387e-05,1.000000000000000082e-05,-1.000000000000000048e-04,-5.999999999999999474e-05,-1.800000000000000113e-04,-1.300000000000000157e-04,2.000000000000000000e+00,1.500000000000000000e+01
3.240700000000000000e+04,-1.100000000000000039e-04,-4.000000000000000327e-05,6.999999999999999387e-05,1.000000000000000082e-05,-1.000000000000000048e-04,-5.999999999999999474e-05,-1.800000000000000113e-04,-1.300000000000000157e-04,2.000000000000000000e+00,1.500000000000000000e+01
3.240800000000000000e+04,-1.100000000000000039e-04,-4.000000000000000327e-05,6.999999999999999387e-05,1.000000000000000082e-05,-1.000000000000000048e-04,-5.999999999999999474e-05,-1.800000000000000113e-04,-1.300000000000000157e-04,2.000000000000000000e+00,1.500000000000000000e+01
3.240900000000000000e+04,-1.100000000000000039e-04,-4.000000000000000327e-05,6.999999999999999387e-05,1.000000000000000082e-05,-1.000000000000000048e-04,-5.999999999999999474e-05,-1.800000000000000113e-04,-1.300000000000000157e-04,2.000000000000000000e+00,1.500000000000000000e+01
3.241000000000000000e+04,-1.100000000000000039e-04,-4.000000000000000327e-05,6.999999999999999387e-05,1.000000000000000082e-05,-1.000000000000000048e-04,-5.999999999999999474e-05,-1.800000000000000113e-04,-1.300000000000000157e-04,2.000000000000000000e+00,1.500000000000000000e+01
3.241100000000000000e+04,-2.000000000000000096e-04,-1.199999999999999895e-04,-2.100000000000000087e-04,-6.999999999999999387e-05,-2.999999999999999737e-05,2.999999999999999737e-05,-5.099999999999999282e-04,-1.600000000000000131e-04,2.000000000000000000e+00,1.500000000000000000e+01
3.241200000000000000e+04,-2.000000000000000096e-04,-1.199999999999999895e-04,-2.100000000000000087e-04,-6.999999999999999387e-05,-2.999999999999999737e-05,2.999999999999999737e-05,-5.099999999999999282e-04,-1.600000000000000131e-04,2.000000000000000000e+00,1.500000000000000000e+01
3.241300000000000000e+04,1.800000000000000113e-04,9.000000000000000567e-05,-1.000000000000000048e-04,2.100000000000000087e-04,-2.000000000000000164e-05,-2.000000000000000096e-04,3.299999999999999982e-04,8.000000000000000654e-05,2.000000000000000000e+00,1.500000000000000000e+01
3.241400000000000000e+04,1.800000000000000113e-04,9.000000000000000567e-05,-1.000000000000000048e-04,2.100000000000000087e-04,-2.000000000000000164e-05,-2.000000000000000096e-04,3.299999999999999982e-04,8.000000000000000654e-05,2.000000000000000000e+00,1.500000000000000000e+01
3.241500000000000000e+04,1.800000000000000113e-04,9.000000000000000567e-05,-1.000000000000000048e-04,2.100000000000000087e-04,-2.000000000000000164e-05,-2.000000000000000096e-04,3.299999999999999982e-04,8.000000000000000654e-05,2.000000000000000000e+00,1.500000000000000000e+01
3.241600000000000000e+04,1.800000000000000113e-04,9.000000000000000567e-05,-1.000000000000000048e-04,2.100000000000000087e-04,-2.000000000000000164e-05,-2.000000000000000096e-04,3.299999999999999982e-04,8.000000000000000654e-05,2.000000000000000000e+00,1.500000000000000000e+01
3.241700000000000000e+04,1.800000000000000113e-04,9.000000000000000567e-05,-1.000000000000000048e-04,2.100000000000000087e-04,-2.000000000000000164e-05,-2.000000000000000096e-04,3.299999999999999982e-04,8.000000000000000654e-05,2.000000000000000000e+00,1.500000000000000000e+01
3.241800000000000000e+04,1.800000000000000113e-04,9.000000000000000567e-05,-1.000000000000000048e-04,2.100000000000000087e-04,-2.000000000000000164e-05,-2.000000000000000096e-04,3.299999999999999982e-04,8.000000000000000654e-05,2.000000000000000000e+00,1.500000000000000000e+01
3.241900000000000000e+04,1.800000000000000113e-04,9.000000000000000567e-05,-1.000000000000000048e-04,2.100000000000000087e-04,-2.000000000000000164e-05,-2.000000000000000096e-04,3.299999999999999982e-04,8.000000000000000654e-05,2.000000000000000000e+00,1.500000000000000000e+01
3.242000000000000000e+04,1.800000000000000113e-04,9.000000000000000567e-05,-1.000000000000000048e-04,2.100000000000000087e-04,-2.000000000000000164e-05,-2.000000000000000096e-04,3.299999999999999982e-04,8.000000000000000654e-05,2.000000000000000000e+00,1.500000000000000000e+01
3.242100000000000000e+04,1.800000000000000113e-04,9.000000000000000567e-05,-1.000000000000000048e-04,2.100000000000000087e-04,-2.000000000000000164e-05,-2.000000000000000096e-04,3.299999999999999982e-04,8.000000000000000654e-05,2.000000000000000000e+00,1.500000000000000000e+01
3.242200000000000000e+04,1.800000000000000113e-04,9.000000000000000567e-05,-1.000000000000000048e-04,2.100000000000000087e-04,-2.000000000000000164e-05,-2.000000000000000096e-04,3.299999999999999982e-04,8.000000000000000654e-05,2.000000000000000000e+00,1.500000000000000000e+01
3.242300000000000000e+04,1.800000000000000113e-04,9.000000000000000567e-05,-1.000000000000000048e-04,2.100000000000000087e-04,-2.000000000000000164e-05,-2.000000000000000096e-04,3.299999999999999982e-04,8.000000000000000654e-05,2.000000000000000000e+00,1.500000000000000000e+01
3.242400000000000000e+04,1.800000000000000113e-04,9.000000000000000567e-05,-1.000000000000000048e-04,2.100000000000000087e-04,-2.000000000000000164e-05,-2.000000000000000096e-04,3.299999999999999982e-04,8.000000000000000654e-05,2.000000000000000000e+00,1.500000000000000000e+01
3.242500000000000000e+04,1.800000000000000113e-04,9.000000000000000567e-05,-1.000000000000000048e-04,2.100000000000000087e-04,-2.000000000000000164e-05,-2.000000000000000096e-04,3.299999999999999982e-04,8.000000000000000654e-05,2.000000000000000000e+00,1.500000000000000000e+01
3.242600000000000000e+04,1.800000000000000113e-04,9.000000000000000567e-05,-1.000000000000000048e-04,2.100000000000000087e-04,-2.000000000000000164e-05,-2.000000000000000096e-04,3.299999999999999982e-04,8.000000000000000654e-05,2.000000000000000000e+00,1.500000000000000000e+01
3.242700000000000000e+04,1.800000000000000113e-04,9.000000000000000567e-05,-1.000000000000000048e-04,2.100000000000000087e-04,-2.000000000000000164e-05,-2.000000000000000096e-04,3.299999999999999982e-04,8.000000000000000654e-05,2.000000000000000000e+00,1.500000000000000000e+01
3.242800000000000000e+04,1.800000000000000113e-04,9.000000000000000567e-05,-1.000000000000000048e-04,2.100000000000000087e-04,-2.000000000000000164e-05,-2.000000000000000096e-04,3.299999999999999982e-04,8.000000000000000654e-05,2.000000000000000000e+00,1.500000000000000000e+01
3.242900000000000000e+04,1.800000000000000113e-04,9.000000000000000567e-05,-1.000000000000000048e-04,2.100000000000000087e-04,-2.000000000000000164e-05,-2.000000000000000096e-04,3.299999999999999982e-04,8.000000000000000654e-05,2.000000000000000000e+00,1.500000000000000000e+01
3.243000000000000000e+04,1.800000000000000113e-04,9.000000000000000567e-05,-1.000000000000000048e-04,2.100000000000000087e-04,-2.000000000000000164e-05,-2.000000000000000096e-04,3.299999999999999982e-04,8.000000000000000654e-05,2.000000000000000000e+00,1.500000000000000000e+01
3.243100000000000000e+04,1.800000000000000113e-04,9.000000000000000567e-05,-1.000000000000000048e-04,2.100000000000000087e-04,-2.000000000000000164e-05,-2.000000000000000096e-04,3.299999999999999982e-04,8.000000000000000654e-05,2.000000000000000000e+00,1.500000000000000000e+01
3.243200000000000000e+04,1.800000000000000113e-04,9.000000000000000567e-05,-1.000000000000000048e-04,2.100000000000000087e-04,-2.000000000000000164e-05,-2.000000000000000096e-04,3.299999999999999982e-04,8.000000000000000654e-05,2.000000000000000000e+00,1.500000000000000000e+01
3.243300000000000000e+04,1.800000000000000113e-04,9.000000000000000567e-05,-1.000000000000000048e-04,2.100000000000000087e-04,-2.000000000000000164e-05,-2.000000000000000096e-04,3.299999999999999982e-04,8.000000000000000654e-05,2.000000000000000000e+00,1.500000000000000000e+01
3.243400000000000000e+04,1.300000000000000157e-04,-6.999999999999999387e-05,1.000000000000000048e-04,-5.000000000000000240e-05,1.100000000000000039e-04,2.600000000000000314e-04,-1.300000000000000157e-04,-2.999999999999999737e-05,2.000000000000000000e+00,1.500000000000000000e+01
3.243500000000000000e+04,-1.499999999999999869e-04,-4.000000000000000327e-05,8.000000000000000654e-05,2.000000000000000164e-05,0.000000000000000000e+00,0.000000000000000000e+00,2.999999999999999737e-05,-5.000000000000000240e-05,2.000000000000000000e+00,1.500000000000000000e+01
3.243600000000000000e+04,-1.499999999999999869e-04,-4.000000000000000327e-05,8.000000000000000654e-05,2.000000000000000164e-05,0.000000000000000000e+00,0.000000000000000000e+00,2.999999999999999737e-05,-5.000000000000000240e-05,2.000000000000000000e+00,1.500000000000000000e+01
3.243800000000000000e+04,-1.499999999999999869e-04,-4.000000000000000327e-05,8.000000000000000654e-05,2.000000000000000164e-05,0.000000000000000000e+00,0.000000000000000000e+00,2.999999999999999737e-05,-5.000000000000000240e-05,2.000000000000000000e+00,1.500000000000000000e+01
3.243900000000000000e+04,-1.499999999999999869e-04,-4.000000000000000327e-05,8.000000000000000654e-05,2.000000000000000164e-05,0.000000000000000000e+00,0.000000000000000000e+00,2.999999999999999737e-05,-5.000000000000000240e-05,2.000000000000000000e+00,1.500000000000000000e+01
3.244000000000000000e+04,-1.499999999999999869e-04,-4.000000000000000327e-05,8.000000000000000654e-05,2.000000000000000164e-05,0.000000000000000000e+00,0.000000000000000000e+00,2.999999999999999737e-05,-5.000000000000000240e-05,2.000000000000000000e+00,1.500000000000000000e+01
3.244100000000000000e+04,-1.499999999999999869e-04,-4.000000000000000327e-05,8.000000000000000654e-05,2.000000000000000164e-05,0.000000000000000000e+00,0.000000000000000000e+00,2.999999999999999737e-05,-5.000000000000000240e-05,2.000000000000000000e+00,1.500000000000000000e+01
3.244200000000000000e+04,-1.499999999999999869e-04,-4.000000000000000327e-05,8.000000000000000654e-05,2.000000000000000164e-05,0.000000000000000000e+00,0.000000000000000000e+00,2.999999999999999737e-05,-5.000000000000000240e-05,2.000000000000000000e+00,1.500000000000000000e+01
3.244300000000000000e+04,-1.499999999999999869e-04,-4.000000000000000327e-05,8.000000000000000654e-05,2.000000000000000164e-05,0.000000000000000000e+00,0.000000000000000000e+00,2.999999999999999737e-05,-5.000000000000000240e-05,2.000000000000000000e+00,1.500000000000000000e+01
3.244400000000000000e+04,-1.499999999999999869e-04,-4.000000000000000327e-05,8.000000000000000654e-05,2.000000000000000164e-05,0.000000000000000000e+00,0.000000000000000000e+00,2.999999999999999737e-05,-5.000000000000000240e-05,2.000000000000000000e+00,1.500000000000000000e+01
3.244500000000000000e+04,-1.499999999999999869e-04,-4.000000000000000327e-05,8.000000000000000654e-05,2.000000000000000164e-05,0.000000000000000000e+00,0.000000000000000000e+00,2.999999999999999737e-05,-5.000000000000000240e-05,2.000000000000000000e+00,1.500000000000000000e+01
3.244600000000000000e+04,-1.499999999999999869e-04,-4.000000000000000327e-05,8.000000000000000654e-05,2.000000000000000164e-05,0.000000000000000000e+00,0.000000000000000000e+00,2.999999999999999737e-05,-5.000000000000000240e-05,2.000000000000000000e+00,1.500000000000000000e+01
3.244700000000000000e+04,-1.499999999999999869e-04,-4.000000000000000327e-05,8.000000000000000654e-05,2.000000000000000164e-05,0.000000000000000000e+00,0.000000000000000000e+00,2.999999999999999737e-05,-5.000000000000000240e-05,2.000000000000000000e+00,1.500000000000000000e+01
3.244800000000000000e+04,-5.000000000000000240e-05,0.000000000000000000e+00,5.000000000000000240e-05,1.399999999999999877e-04,0.000000000000000000e+00,2.000000000000000164e-05,-3.099999999999999999e-04,-5.000000000000000240e-05,2.000000000000000000e+00,1.500000000000000000e+01
3.244900000000000000e+04,-5.000000000000000240e-05,0.000000000000000000e+00,5.000000000000000240e-05,1.399999999999999877e-04,0.000000000000000000e+00,2.000000000000000164e-05,-3.099999999999999999e-04,-5.000000000000000240e-05,2.000000000000000000e+00,1.500000000000000000e+01
3.245000000000000000e+04,-5.000000000000000240e-05,0.000000000000000000e+00,5.000000000000000240e-05,1.399999999999999877e-04,0.000000000000000000e+00,2.000000000000000164e-05,-3.099999999999999999e-04,-5.000000000000000240e-05,2.000000000000000000e+00,1.500000000000000000e+01
3.245100000000000000e+04,-5.000000000000000240e-05,0.000000000000000000e+00,5.000000000000000240e-05,1.399999999999999877e-04,0.000000000000000000e+00,2.000000000000000164e-05,-3.099999999999999999e-04,-5.000000000000000240e-05,2.000000000000000000e+00,1.500000000000000000e+01
3.245200000000000000e+04,-5.000000000000000240e-05,0.000000000000000000e+00,5.000000000000000240e-05,1.399999999999999877e-04,0.000000000000000000e+00,2.000000000000000164e-05,-3.099999999999999999e-04,-5.000000000000000240e-05,2.000000000000000000e+00,1.500000000000000000e+01
3.245300000000000000e+04,-5.000000000000000240e-05,0.000000000000000000e+00,5.000000000000000240e-05,1.399999999999999877e-04,0.000000000000000000e+00,2.000000000000000164e-05,-3.099999999999999999e-04,-5.000000000000000240e-05,2.000000000000000000e+00,1.500000000000000000e+01
3.245400000000000000e+04,-5.000000000000000240e-05,0.000000000000000000e+00,5.000000000000000240e-05,1.399999999999999877e-04,0.000000000000000000e+00,2.000000000000000164e-05,-3.099999999999999999e-04,-5.000000000000000240e-05,2.000000000000000000e+00,1.500000000000000000e+01
3.245500000000000000e+04,-5.000000000000000240e-05,0.000000000000000000e+00,5.000000000000000240e-05,1.399999999999999877e-04,0.000000000000000000e+00,2.000000000000000164e-05,-3.099999999999999999e-04,-5.000000000000000240e-05,2.000000000000000000e+00,1.500000000000000000e+01
3.245600000000000000e+04,-1.000000000000000048e-04,-2.000000000000000164e-05,2.999999999999999737e-05,-1.000000000000000082e-05,-1.499999999999999869e-04,0.000000000000000000e+00,-1.600000000000000131e-04,-5.000000000000000240e-05,2.000000000000000000e+00,1.500000000000000000e+01
3.245800000000000000e+04,-1.000000000000000048e-04,-2.000000000000000164e-05,2.999999999999999737e-05,-1.000000000000000082e-05,-1.499999999999999869e-04,0.000000000000000000e+00,-1.600000000000000131e-04,-5.000000000000000240e-05,2.000000000000000000e+00,1.500000000000000000e+01
3.245900000000000000e+04,-1.000000000000000048e-04,-2.000000000000000164e-05,2.999999999999999737e-05,-1.000000000000000082e-05,-1.499999999999999869e-04,0.000000000000000000e+00,-1.600000000000000131e-04,-5.000000000000000240e-05,2.000000000000000000e+00,1.500000000000000000e+01
3.246000000000000000e+04,-1.000000000000000048e-04,-2.000000000000000164e-05,2.999999999999999737e-05,-1.000000000000000082e-05,-1.499999999999999869e-04,0.000000000000000000e+00,-1.600000000000000131e-04,-5.000000000000000240e-05,2.000000000000000000e+00,1.500000000000000000e+01
3.246100000000000000e+04,-1.000000000000000048e-04,-2.000000000000000164e-05,2.999999999999999737e-05,-1.000000000000000082e-05,-1.499999999999999869e-04,0.000000000000000000e+00,-1.600000000000000131e-04,-5.000000000000000240e-05,2.000000000000000000e+00,1.500000000000000000e+01
3.246200000000000000e+04,-1.000000000000000048e-04,-2.000000000000000164e-05,2.999999999999999737e-05,-1.000000000000000082e-05,-1.499999999999999869e-04,0.000000000000000000e+00,-1.600000000000000131e-04,-5.000000000000000240e-05,2.000000000000000000e+00,1.500000000000000000e+01
3.246300000000000000e+04,-1.000000000000000048e-04,-2.000000000000000164e-05,2.999999999999999737e-05,-1.000000000000000082e-05,-1.499999999999999869e-04,0.000000000000000000e+00,-1.600000000000000131e-04,-5.000000000000000240e-05,2.000000000000000000e+00,1.500000000000000000e+01
3.246400000000000000e+04,-1.000000000000000048e-04,-2.000000000000000164e-05,2.999999999999999737e-05,-1.000000000000000082e-05,-1.499999999999999869e-04,0.000000000000000000e+00,-1.600000000000000131e-04,-5.000000000000000240e-05,2.000000000000000000e+00,1.500000000000000000e+01
3.246500000000000000e+04,-1.000000000000000048e-04,-2.000000000000000164e-05,2.999999999999999737e-05,-1.000000000000000082e-05,-1.499999999999999869e-04,0.000000000000000000e+00,-1.600000000000000131e-04,-5.000000000000000240e-05,2.000000000000000000e+00,1.500000000000000000e+01
3.246600000000000000e+04,-1.000000000000000048e-04,-2.000000000000000164e-05,2.999999999999999737e-05,-1.000000000000000082e-05,-1.499999999999999869e-04,0.000000000000000000e+00,-1.600000000000000131e-04,-5.000000000000000240e-05,2.000000000000000000e+00,1.500000000000000000e+01
3.246700000000000000e+04,-1.000000000000000048e-04,-2.000000000000000164e-05,2.999999999999999737e-05,-1.000000000000000082e-05,-1.499999999999999869e-04,0.000000000000000000e+00,-1.600000000000000131e-04,-5.000000000000000240e-05,2.000000000000000000e+00,1.500000000000000000e+01
3.246800000000000000e+04,-1.000000000000000048e-04,-2.000000000000000164e-05,2.999999999999999737e-05,-1.000000000000000082e-05,-1.499999999999999869e-04,0.000000000000000000e+00,-1.600000000000000131e-04,-5.000000000000000240e-05,2.000000000000000000e+00,1.500000000000000000e+01
3.246900000000000000e+04,-1.000000000000000048e-04,-2.000000000000000164e-05,2.999999999999999737e-05,-1.000000000000000082e-05,-1.499999999999999869e-04,0.000000000000000000e+00,-1.600000000000000131e-04,-5.000000000000000240e-05,2.000000000000000000e+00,1.500000000000000000e+01
3.247000000000000000e+04,-1.000000000000000048e-04,-2.000000000000000164e-05,2.999999999999999737e-05,-1.000000000000000082e-05,-1.499999999999999869e-04,0.000000000000000000e+00,-1.600000000000000131e-04,-5.000000000000000240e-05,2.000000000000000000e+00,1.500000000000000000e+01
3.247100000000000000e+04,2.299999999999999799e-04,5.000000000000000240e-05,1.699999999999999851e-04,1.000000000000000048e-04,1.199999999999999895e-04,2.399999999999999790e-04,5.599999999999999509e-04,1.600000000000000131e-04,2.000000000000000000e+00,1.500000000000000000e+01
3.247200000000000000e+04,2.299999999999999799e-04,5.000000000000000240e-05,1.699999999999999851e-04,1.000000000000000048e-04,1.199999999999999895e-04,2.399999999999999790e-04,5.599999999999999509e-04,1.600000000000000131e-04,2.000000000000000000e+00,1.500000000000000000e+01
3.247300000000000000e+04,2.299999999999999799e-04,5.000000000000000240e-05,1.699999999999999851e-04,1.000000000000000048e-04,1.199999999999999895e-04,2.399999999999999790e-04,5.599999999999999509e-04,1.600000000000000131e-04,2.000000000000000000e+00,1.500000000000000000e+01
3.247400000000000000e+04,2.299999999999999799e-04,5.000000000000000240e-05,1.699999999999999851e-04,1.000000000000000048e-04,1.199999999999999895e-04,2.399999999999999790e-04,5.599999999999999509e-04,1.600000000000000131e-04,2.000000000000000000e+00,1.500000000000000000e+01
3.247500000000000000e+04,2.299999999999999799e-04,5.000000000000000240e-05,1.699999999999999851e-04,1.000000000000000048e-04,1.199999999999999895e-04,2.399999999999999790e-04,5.599999999999999509e-04,1.600000000000000131e-04,2.000000000000000000e+00,1.500000000000000000e+01
3.247600000000000000e+04,2.299999999999999799e-04,5.000000000000000240e-05,1.699999999999999851e-04,1.000000000000000048e-04,1.199999999999999895e-04,2.399999999999999790e-04,5.599999999999999509e-04,1.600000000000000131e-04,2.000000000000000000e+00,1.500000000000000000e+01
3.247700000000000000e+04,2.299999999999999799e-04,5.000000000000000240e-05,1.699999999999999851e-04,1.000000000000000048e-04,1.199999999999999895e-04,2.399999999999999790e-04,5.599999999999999509e-04,1.600000000000000131e-04,2.000000000000000000e+00,1.500000000000000000e+01
3.247800000000000000e+04,2.299999999999999799e-04,5.000000000000000240e-05,1.699999999999999851e-04,1.000000000000000048e-04,1.199999999999999895e-04,2.399999999999999790e-04,5.599999999999999509e-04,1.600000000000000131e-04,2.000000000000000000e+00,1.500000000000000000e+01
3.247900000000000000e+04,-1.000000000000000082e-05,-8.000000000000000654e-05,-2.100000000000000087e-04,-1.000000000000000082e-05,-1.000000000000000082e-05,-1.000000000000000048e-04,-1.600000000000000131e-04,-1.000000000000000048e-04,2.000000000000000000e+00,1.500000000000000000e+01
3.248000000000000000e+04,-1.000000000000000082e-05,-8.000000000000000654e-05,-2.100000000000000087e-04,-1.000000000000000082e-05,-1.000000000000000082e-05,-1.000000000000000048e-04,-1.600000000000000131e-04,-1.000000000000000048e-04,2.000000000000000000e+00,1.500000000000000000e+01
3.248100000000000000e+04,-1.000000000000000082e-05,-8.000000000000000654e-05,-2.100000000000000087e-04,-1.000000000000000082e-05,-1.000000000000000082e-05,-1.000000000000000048e-04,-1.600000000000000131e-04,-1.000000000000000048e-04,2.000000000000000000e+00,1.500000000000000000e+01
3.248200000000000000e+04,-1.000000000000000082e-05,-8.000000000000000654e-05,-2.100000000000000087e-04,-1.000000000000000082e-05,-1.000000000000000082e-05,-1.000000000000000048e-04,-1.600000000000000131e-04,-1.000000000000000048e-04,2.000000000000000000e+00,1.500000000000000000e+01
3.248300000000000000e+04,-1.000000000000000082e-05,-8.000000000000000654e-05,-2.100000000000000087e-04,-1.000000000000000082e-05,-1.000000000000000082e-05,-1.000000000000000048e-04,-1.600000000000000131e-04,-1.000000000000000048e-04,2.000000000000000000e+00,1.500000000000000000e+01
3.248400000000000000e+04,-1.000000000000000082e-05,-8.000000000000000654e-05,-2.100000000000000087e-04,-1.000000000000000082e-05,-1.000000000000000082e-05,-1.000000000000000048e-04,-1.600000000000000131e-04,-1.000000000000000048e-04,2.000000000000000000e+00,1.500000000000000000e+01
3.248500000000000000e+04,-1.000000000000000082e-05,-8.000000000000000654e-05,-2.100000000000000087e-04,-1.000000000000000082e-05,-1.000000000000000082e-05,-1.000000000000000048e-04,-1.600000000000000131e-04,-1.000000000000000048e-04,2.000000000000000000e+00,1.500000000000000000e+01
3.248600000000000000e+04,-1.000000000000000082e-05,-8.000000000000000654e-05,-2.100000000000000087e-04,-1.000000000000000082e-05,-1.000000000000000082e-05,-1.000000000000000048e-04,-1.600000000000000131e-04,-1.000000000000000048e-04,2.000000000000000000e+00,1.500000000000000000e+01
3.248800000000000000e+04,-1.000000000000000082e-05,-8.000000000000000654e-05,-2.100000000000000087e-04,-1.000000000000000082e-05,-1.000000000000000082e-05,-1.000000000000000048e-04,-1.600000000000000131e-04,-1.000000000000000048e-04,2.000000000000000000e+00,1.500000000000000000e+01
3.248900000000000000e+04,-1.000000000000000082e-05,-8.000000000000000654e-05,-2.100000000000000087e-04,-1.000000000000000082e-05,-1.000000000000000082e-05,-1.000000000000000048e-04,-1.600000000000000131e-04,-1.000000000000000048e-04,2.000000000000000000e+00,1.500000000000000000e+01
3.249000000000000000e+04,-1.000000000000000082e-05,-8.000000000000000654e-05,-2.100000000000000087e-04,-1.000000000000000082e-05,-1.000000000000000082e-05,-1.000000000000000048e-04,-1.600000000000000131e-04,-1.000000000000000048e-04,2.000000000000000000e+00,1.500000000000000000e+01
3.249100000000000000e+04,-1.000000000000000082e-05,-8.000000000000000654e-05,-2.100000000000000087e-04,-1.000000000000000082e-05,-1.000000000000000082e-05,-1.000000000000000048e-04,-1.600000000000000131e-04,-1.000000000000000048e-04,2.000000000000000000e+00,1.500000000000000000e+01
3.249200000000000000e+04,-1.000000000000000082e-05,-8.000000000000000654e-05,-2.100000000000000087e-04,-1.000000000000000082e-05,-1.000000000000000082e-05,-1.000000000000000048e-04,-1.600000000000000131e-04,-1.000000000000000048e-04,2.000000000000000000e+00,1.500000000000000000e+01
3.249300000000000000e+04,-1.000000000000000082e-05,-8.000000000000000654e-05,-2.100000000000000087e-04,-1.000000000000000082e-05,-1.000000000000000082e-05,-1.000000000000000048e-04,-1.600000000000000131e-04,-1.000000000000000048e-04,2.000000000000000000e+00,1.500000000000000000e+01
3.249400000000000000e+04,-1.199999999999999895e-04,2.999999999999999737e-05,9.000000000000000567e-05,-5.000000000000000240e-05,-1.800000000000000113e-04,-4.000000000000000327e-05,-1.300000000000000157e-04,-8.000000000000000654e-05,2.000000000000000000e+00,1.500000000000000000e+01
3.249500000000000000e+04,1.000000000000000082e-05,-5.000000000000000240e-05,-5.999999999999999474e-05,-1.000000000000000048e-04,6.999999999999999387e-05,-1.000000000000000048e-04,-6.999999999999999387e-05,2.000000000000000164e-05,2.000000000000000000e+00,1.500000000000000000e+01
3.249600000000000000e+04,1.000000000000000082e-05,-5.000000000000000240e-05,-5.999999999999999474e-05,-1.000000000000000048e-04,6.999999999999999387e-05,-1.000000000000000048e-04,-6.999999999999999387e-05,2.000000000000000164e-05,2.000000000000000000e+00,1.500000000000000000e+01
3.249700000000000000e+04,1.000000000000000082e-05,-5.000000000000000240e-05,-5.999999999999999474e-05,-1.000000000000000048e-04,6.999999999999999387e-05,-1.000000000000000048e-04,-6.999999999999999387e-05,2.000000000000000164e-05,2.000000000000000000e+00,1.500000000000000000e+01
3.249800000000000000e+04,1.000000000000000082e-05,-5.000000000000000240e-05,-5.999999999999999474e-05,-1.000000000000000048e-04,6.999999999999999387e-05,-1.000000000000000048e-04,-6.999999999999999387e-05,2.000000000000000164e-05,2.000000000000000000e+00,1.500000000000000000e+01
3.249900000000000000e+04,1.000000000000000082e-05,-5.000000000000000240e-05,-5.999999999999999474e-05,-1.000000000000000048e-04,6.999999999999999387e-05,-1.000000000000000048e-04,-6.999999999999999387e-05,2.000000000000000164e-05,2.000000000000000000e+00,1.500000000000000000e+01
3.250000000000000000e+04,1.000000000000000082e-05,-5.000000000000000240e-05,-5.999999999999999474e-05,-1.000000000000000048e-04,6.999999999999999387e-05,-1.000000000000000048e-04,-6.999999999999999387e-05,2.000000000000000164e-05,2.000000000000000000e+00,1.500000000000000000e+01
3.250100000000000000e+04,1.000000000000000082e-05,-5.000000000000000240e-05,-5.999999999999999474e-05,-1.000000000000000048e-04,6.999999999999999387e-05,-1.000000000000000048e-04,-6.999999999999999387e-05,2.000000000000000164e-05,2.000000000000000000e+00,1.500000000000000000e+01
3.250200000000000000e+04,1.000000000000000082e-05,-5.000000000000000240e-05,-5.999999999999999474e-05,-1.000000000000000048e-04,6.999999999999999387e-05,-1.000000000000000048e-04,-6.999999999999999387e-05,2.000000000000000164e-05,2.000000000000000000e+00,1.500000000000000000e+01
3.250300000000000000e+04,1.000000000000000082e-05,-5.000000000000000240e-05,-5.999999999999999474e-05,-1.000000000000000048e-04,6.999999999999999387e-05,-1.000000000000000048e-04,-6.999999999999999387e-05,2.000000000000000164e-05,2.000000000000000000e+00,1.500000000000000000e+01
3.250400000000000000e+04,1.000000000000000082e-05,-5.000000000000000240e-05,-5.999999999999999474e-05,-1.000000000000000048e-04,6.999999999999999387e-05,-1.000000000000000048e-04,-6.999999999999999387e-05,2.000000000000000164e-05,2.000000000000000000e+00,1.500000000000000000e+01
3.250500000000000000e+04,1.000000000000000082e-05,-5.000000000000000240e-05,-5.999999999999999474e-05,-1.000000000000000048e-04,6.999999999999999387e-05,-1.000000000000000048e-04,-6.999999999999999387e-05,2.000000000000000164e-05,2.000000000000000000e+00,1.500000000000000000e+01
3.250600000000000000e+04,1.000000000000000082e-05,-5.000000000000000240e-05,-5.999999999999999474e-05,-1.000000000000000048e-04,6.999999999999999387e-05,-1.000000000000000048e-04,-6.999999999999999387e-05,2.000000000000000164e-05,2.000000000000000000e+00,1.500000000000000000e+01
3.250700000000000000e+04,1.800000000000000113e-04,1.000000000000000082e-05,-2.000000000000000164e-05,1.000000000000000082e-05,-2.999999999999999737e-05,-5.000000000000000240e-05,-1.800000000000000113e-04,1.000000000000000082e-05,2.000000000000000000e+00,1.500000000000000000e+01
3.250800000000000000e+04,1.800000000000000113e-04,1.000000000000000082e-05,-2.000000000000000164e-05,1.000000000000000082e-05,-2.999999999999999737e-05,-5.000000000000000240e-05,-1.800000000000000113e-04,1.000000000000000082e-05,2.000000000000000000e+00,1.500000000000000000e+01
3.250900000000000000e+04,1.800000000000000113e-04,1.000000000000000082e-05,-2.000000000000000164e-05,1.000000000000000082e-05,-2.999999999999999737e-05,-5.000000000000000240e-05,-1.800000000000000113e-04,1.000000000000000082e-05,2.000000000000000000e+00,1.500000000000000000e+01
3.251000000000000000e+04,1.800000000000000113e-04,1.000000000000000082e-05,-2.000000000000000164e-05,1.000000000000000082e-05,-2.999999999999999737e-05,-5.000000000000000240e-05,-1.800000000000000113e-04,1.000000000000000082e-05,2.000000000000000000e+00,1.500000000000000000e+01
3.251100000000000000e+04,1.800000000000000113e-04,1.000000000000000082e-05,-2.000000000000000164e-05,1.000000000000000082e-05,-2.999999999999999737e-05,-5.000000000000000240e-05,-1.800000000000000113e-04,1.000000000000000082e-05,2.000000000000000000e+00,1.500000000000000000e+01
3.251200000000000000e+04,1.800000000000000113e-04,1.000000000000000082e-05,-2.000000000000000164e-05,1.000000000000000082e-05,-2.999999999999999737e-05,-5.000000000000000240e-05,-1.800000000000000113e-04,1.000000000000000082e-05,2.000000000000000000e+00,1.500000000000000000e+01
3.251300000000000000e+04,1.800000000000000113e-04,1.000000000000000082e-05,-2.000000000000000164e-05,1.000000000000000082e-05,-2.999999999999999737e-05,-5.000000000000000240e-05,-1.800000000000000113e-04,1.000000000000000082e-05,2.000000000000000000e+00,1.500000000000000000e+01
3.251400000000000000e+04,1.800000000000000113e-04,1.000000000000000082e-05,-2.000000000000000164e-05,1.000000000000000082e-05,-2.999999999999999737e-05,-5.000000000000000240e-05,-1.800000000000000113e-04,1.000000000000000082e-05,2.000000000000000000e+00,1.500000000000000000e+01
3.251500000000000000e+04,1.800000000000000113e-04,1.000000000000000082e-05,-2.000000000000000164e-05,1.000000000000000082e-05,-2.999999999999999737e-05,-5.000000000000000240e-05,-1.800000000000000113e-04,1.000000000000000082e-05,2.000000000000000000e+00,1.500000000000000000e+01
3.251600000000000000e+04,1.800000000000000113e-04,1.000000000000000082e-05,-2.000000000000000164e-05,1.000000000000000082e-05,-2.999999999999999737e-05,-5.000000000000000240e-05,-1.800000000000000113e-04,1.000000000000000082e-05,2.000000000000000000e+00,1.500000000000000000e+01
3.251700000000000000e+04,1.800000000000000113e-04,1.000000000000000082e-05,-2.000000000000000164e-05,1.000000000000000082e-05,-2.999999999999999737e-05,-5.000000000000000240e-05,-1.800000000000000113e-04,1.000000000000000082e-05,2.000000000000000000e+00,1.500000000000000000e+01
3.251800000000000000e+04,1.800000000000000113e-04,1.000000000000000082e-05,-2.000000000000000164e-05,1.000000000000000082e-05,-2.999999999999999737e-05,-5.000000000000000240e-05,-1.800000000000000113e-04,1.000000000000000082e-05,2.000000000000000000e+00,1.500000000000000000e+01
3.251900000000000000e+04,1.800000000000000113e-04,1.000000000000000082e-05,-2.000000000000000164e-05,1.000000000000000082e-05,-2.999999999999999737e-05,-5.000000000000000240e-05,-1.800000000000000113e-04,1.000000000000000082e-05,2.000000000000000000e+00,1.500000000000000000e+01
3.252000000000000000e+04,1.800000000000000113e-04,1.000000000000000082e-05,-2.000000000000000164e-05,1.000000000000000082e-05,-2.999999999999999737e-05,-5.000000000000000240e-05,-1.800000000000000113e-04,1.000000000000000082e-05,2.000000000000000000e+00,1.500000000000000000e+01
3.252100000000000000e+04,1.800000000000000113e-04,1.000000000000000082e-05,-2.000000000000000164e-05,1.000000000000000082e-05,-2.999999999999999737e-05,-5.000000000000000240e-05,-1.800000000000000113e-04,1.000000000000000082e-05,2.000000000000000000e+00,1.500000000000000000e+01
3.252200000000000000e+04,-1.800000000000000113e-04,-1.000000000000000082e-05,5.999999999999999474e-05,5.000000000000000240e-05,-4.000000000000000327e-05,1.699999999999999851e-04,-3.299999999999999982e-04,-1.399999999999999877e-04,2.000000000000000000e+00,1.500000000000000000e+01
3.252300000000000000e+04,8.000000000000000654e-05,1.000000000000000048e-04,2.000000000000000096e-04,1.600000000000000131e-04,1.399999999999999877e-04,4.099999999999999912e-04,8.499999999999999526e-04,2.799999999999999755e-04,2.000000000000000000e+00,1.500000000000000000e+01
3.252400000000000000e+04,8.000000000000000654e-05,1.000000000000000048e-04,2.000000000000000096e-04,1.600000000000000131e-04,1.399999999999999877e-04,4.099999999999999912e-04,8.499999999999999526e-04,2.799999999999999755e-04,2.000000000000000000e+00,1.500000000000000000e+01
3.252500000000000000e+04,8.000000000000000654e-05,1.000000000000000048e-04,2.000000000000000096e-04,1.600000000000000131e-04,1.399999999999999877e-04,4.099999999999999912e-04,8.499999999999999526e-04,2.799999999999999755e-04,2.000000000000000000e+00,1.500000000000000000e+01
3.252600000000000000e+04,8.000000000000000654e-05,1.000000000000000048e-04,2.000000000000000096e-04,1.600000000000000131e-04,1.399999999999999877e-04,4.099999999999999912e-04,8.499999999999999526e-04,2.799999999999999755e-04,2.000000000000000000e+00,1.500000000000000000e+01
3.252700000000000000e+04,8.000000000000000654e-05,1.000000000000000048e-04,2.000000000000000096e-04,1.600000000000000131e-04,1.399999999999999877e-04,4.099999999999999912e-04,8.499999999999999526e-04,2.799999999999999755e-04,2.000000000000000000e+00,1.500000000000000000e+01
3.252800000000000000e+04,8.000000000000000654e-05,1.000000000000000048e-04,2.000000000000000096e-04,1.600000000000000131e-04,1.399999999999999877e-04,4.099999999999999912e-04,8.499999999999999526e-04,2.799999999999999755e-04,2.000000000000000000e+00,1.500000000000000000e+01
3.252900000000000000e+04,8.000000000000000654e-05,1.000000000000000048e-04,2.000000000000000096e-04,1.600000000000000131e-04,1.399999999999999877e-04,4.099999999999999912e-04,8.499999999999999526e-04,2.799999999999999755e-04,2.000000000000000000e+00,1.500000000000000000e+01
3.253000000000000000e+04,8.000000000000000654e-05,1.000000000000000048e-04,2.000000000000000096e-04,1.600000000000000131e-04,1.399999999999999877e-04,4.099999999999999912e-04,8.499999999999999526e-04,2.799999999999999755e-04,2.000000000000000000e+00,1.500000000000000000e+01
3.253100000000000000e+04,2.000000000000000164e-05,-1.000000000000000082e-05,-2.900000000000000017e-04,-2.600000000000000314e-04,-2.399999999999999790e-04,-2.799999999999999755e-04,2.999999999999999737e-05,0.000000000000000000e+00,2.000000000000000000e+00,1.500000000000000000e+01
3.253200000000000000e+04,2.000000000000000164e-05,-1.000000000000000082e-05,-2.900000000000000017e-04,-2.600000000000000314e-04,-2.399999999999999790e-04,-2.799999999999999755e-04,2.999999999999999737e-05,0.000000000000000000e+00,2.000000000000000000e+00,1.500000000000000000e+01
3.253300000000000000e+04,2.000000000000000164e-05,-6.999999999999999387e-05,-1.000000000000000048e-04,-1.699999999999999851e-04,2.999999999999999737e-05,-1.100000000000000039e-04,-2.700000000000000035e-04,-1.100000000000000039e-04,2.000000000000000000e+00,1.500000000000000000e+01
3.253400000000000000e+04,2.000000000000000164e-05,-6.999999999999999387e-05,-1.000000000000000048e-04,-1.699999999999999851e-04,2.999999999999999737e-05,-1.100000000000000039e-04,-2.700000000000000035e-04,-1.100000000000000039e-04,2.000000000000000000e+00,1.500000000000000000e+01
3.253500000000000000e+04,2.000000000000000164e-05,-6.999999999999999387e-05,-1.000000000000000048e-04,-1.699999999999999851e-04,2.999999999999999737e-05,-1.100000000000000039e-04,-2.700000000000000035e-04,-1.100000000000000039e-04,2.000000000000000000e+00,1.500000000000000000e+01
3.253600000000000000e+04,2.000000000000000164e-05,-6.999999999999999387e-05,-1.000000000000000048e-04,-1.699999999999999851e-04,2.999999999999999737e-05,-1.100000000000000039e-04,-2.700000000000000035e-04,-1.100000000000000039e-04,2.000000000000000000e+00,1.500000000000000000e+01
3.253900000000000000e+04,2.000000000000000164e-05,-6.999999999999999387e-05,-1.000000000000000048e-04,-1.699999999999999851e-04,2.999999999999999737e-05,-1.100000000000000039e-04,-2.700000000000000035e-04,-1.100000000000000039e-04,2.000000000000000000e+00,1.500000000000000000e+01
3.254000000000000000e+04,2.000000000000000164e-05,-6.999999999999999387e-05,-1.000000000000000048e-04,-1.699999999999999851e-04,2.999999999999999737e-05,-1.100000000000000039e-04,-2.700000000000000035e-04,-1.100000000000000039e-04,2.000000000000000000e+00,1.500000000000000000e+01
3.254100000000000000e+04,2.000000000000000164e-05,-6.999999999999999387e-05,-1.000000000000000048e-04,-1.699999999999999851e-04,2.999999999999999737e-05,-1.100000000000000039e-04,-2.700000000000000035e-04,-1.100000000000000039e-04,2.000000000000000000e+00,1.500000000000000000e+01
3.254200000000000000e+04,2.000000000000000164e-05,-6.999999999999999387e-05,-1.000000000000000048e-04,-1.699999999999999851e-04,2.999999999999999737e-05,-1.100000000000000039e-04,-2.700000000000000035e-04,-1.100000000000000039e-04,2.000000000000000000e+00,1.500000000000000000e+01
3.254300000000000000e+04,2.000000000000000164e-05,-6.999999999999999387e-05,-1.000000000000000048e-04,-1.699999999999999851e-04,2.999999999999999737e-05,-1.100000000000000039e-04,-2.700000000000000035e-04,-1.100000000000000039e-04,2.000000000000000000e+00,1.500000000000000000e+01
3.254400000000000000e+04,2.000000000000000164e-05,-6.999999999999999387e-05,-1.000000000000000048e-04,-1.699999999999999851e-04,2.999999999999999737e-05,-1.100000000000000039e-04,-2.700000000000000035e-04,-1.100000000000000039e-04,2.000000000000000000e+00,1.500000000000000000e+01
3.254500000000000000e+04,2.000000000000000164e-05,-6.999999999999999387e-05,-1.000000000000000048e-04,-1.699999999999999851e-04,2.999999999999999737e-05,-1.100000000000000039e-04,-2.700000000000000035e-04,-1.100000000000000039e-04,2.000000000000000000e+00,1.500000000000000000e+01
3.254600000000000000e+04,2.000000000000000164e-05,-6.999999999999999387e-05,-1.000000000000000048e-04,-1.699999999999999851e-04,2.999999999999999737e-05,-1.100000000000000039e-04,-2.700000000000000035e-04,-1.100000000000000039e-04,2.000000000000000000e+00,1.500000000000000000e+01
3.254700000000000000e+04,2.000000000000000164e-05,-6.999999999999999387e-05,-1.000000000000000048e-04,-1.699999999999999851e-04,2.999999999999999737e-05,-1.100000000000000039e-04,-2.700000000000000035e-04,-1.100000000000000039e-04,2.000000000000000000e+00,1.500000000000000000e+01
3.254800000000000000e+04,2.000000000000000164e-05,-6.999999999999999387e-05,-1.000000000000000048e-04,-1.699999999999999851e-04,2.999999999999999737e-05,-1.100000000000000039e-04,-2.700000000000000035e-04,-1.100000000000000039e-04,2.000000000000000000e+00,1.500000000000000000e+01
3.254900000000000000e+04,2.000000000000000164e-05,-6.999999999999999387e-05,-1.000000000000000048e-04,-1.699999999999999851e-04,2.999999999999999737e-05,-1.100000000000000039e-04,-2.700000000000000035e-04,-1.100000000000000039e-04,2.000000000000000000e+00,1.500000000000000000e+01
3.255000000000000000e+04,2.000000000000000164e-05,-6.999999999999999387e-05,-1.000000000000000048e-04,-1.699999999999999851e-04,2.999999999999999737e-05,-1.100000000000000039e-04,-2.700000000000000035e-04,-1.100000000000000039e-04,2.000000000000000000e+00,1.500000000000000000e+01
3.255100000000000000e+04,2.000000000000000164e-05,-6.999999999999999387e-05,-1.000000000000000048e-04,-1.699999999999999851e-04,2.999999999999999737e-05,-1.100000000000000039e-04,-2.700000000000000035e-04,-1.100000000000000039e-04,2.000000000000000000e+00,1.500000000000000000e+01
3.255200000000000000e+04,2.000000000000000164e-05,-6.999999999999999387e-05,-1.000000000000000048e-04,-1.699999999999999851e-04,2.999999999999999737e-05,-1.100000000000000039e-04,-2.700000000000000035e-04,-1.100000000000000039e-04,2.000000000000000000e+00,1.500000000000000000e+01
3.255300000000000000e+04,2.000000000000000164e-05,-6.999999999999999387e-05,-1.000000000000000048e-04,-1.699999999999999851e-04,2.999999999999999737e-05,-1.100000000000000039e-04,-2.700000000000000035e-04,-1.100000000000000039e-04,2.000000000000000000e+00,1.500000000000000000e+01
3.255400000000000000e+04,-9.000000000000000567e-05,1.000000000000000082e-05,9.000000000000000567e-05,2.000000000000000096e-04,-1.000000000000000082e-05,2.000000000000000164e-05,-1.300000000000000157e-04,-1.699999999999999851e-04,2.000000000000000000e+00,1.500000000000000000e+01
3.255500000000000000e+04,-1.300000000000000157e-04,0.000000000000000000e+00,0.000000000000000000e+00,-2.000000000000000096e-04,-1.300000000000000157e-04,-4.000000000000000327e-05,-1.199999999999999895e-04,-5.999999999999999474e-05,2.000000000000000000e+00,1.500000000000000000e+01
3.255600000000000000e+04,-1.300000000000000157e-04,0.000000000000000000e+00,0.000000000000000000e+00,-2.000000000000000096e-04,-1.300000000000000157e-04,-4.000000000000000327e-05,-1.199999999999999895e-04,-5.999999999999999474e-05,2.000000000000000000e+00,1.500000000000000000e+01
3.255700000000000000e+04,-1.300000000000000157e-04,0.000000000000000000e+00,0.000000000000000000e+00,-2.000000000000000096e-04,-1.300000000000000157e-04,-4.000000000000000327e-05,-1.199999999999999895e-04,-5.999999999999999474e-05,2.000000000000000000e+00,1.500000000000000000e+01
3.255800000000000000e+04,-1.300000000000000157e-04,0.000000000000000000e+00,0.000000000000000000e+00,-2.000000000000000096e-04,-1.300000000000000157e-04,-4.000000000000000327e-05,-1.199999999999999895e-04,-5.999999999999999474e-05,2.000000000000000000e+00,1.500000000000000000e+01
3.255900000000000000e+04,-1.300000000000000157e-04,0.000000000000000000e+00,0.000000000000000000e+00,-2.000000000000000096e-04,-1.300000000000000157e-04,-4.000000000000000327e-05,-1.199999999999999895e-04,-5.999999999999999474e-05,2.000000000000000000e+00,1.500000000000000000e+01
3.256000000000000000e+04,-1.300000000000000157e-04,0.000000000000000000e+00,0.000000000000000000e+00,-2.000000000000000096e-04,-1.300000000000000157e-04,-4.000000000000000327e-05,-1.199999999999999895e-04,-5.999999999999999474e-05,2.000000000000000000e+00,1.500000000000000000e+01
3.256100000000000000e+04,-1.300000000000000157e-04,0.000000000000000000e+00,0.000000000000000000e+00,-2.000000000000000096e-04,-1.300000000000000157e-04,-4.000000000000000327e-05,-1.199999999999999895e-04,-5.999999999999999474e-05,2.000000000000000000e+00,1.500000000000000000e+01
3.256200000000000000e+04,-1.300000000000000157e-04,0.000000000000000000e+00,0.000000000000000000e+00,-2.000000000000000096e-04,-1.300000000000000157e-04,-4.000000000000000327e-05,-1.199999999999999895e-04,-5.999999999999999474e-05,2.000000000000000000e+00,1.500000000000000000e+01
3.256300000000000000e+04,-1.300000000000000157e-04,0.000000000000000000e+00,0.000000000000000000e+00,-2.000000000000000096e-04,-1.300000000000000157e-04,-4.000000000000000327e-05,-1.199999999999999895e-04,-5.999999999999999474e-05,2.000000000000000000e+00,1.500000000000000000e+01
3.256400000000000000e+04,-1.300000000000000157e-04,0.000000000000000000e+00,0.000000000000000000e+00,-2.000000000000000096e-04,-1.300000000000000157e-04,-4.000000000000000327e-05,-1.199999999999999895e-04,-5.999999999999999474e-05,2.000000000000000000e+00,1.500000000000000000e+01
3.256500000000000000e+04,-1.300000000000000157e-04,0.000000000000000000e+00,0.000000000000000000e+00,-2.000000000000000096e-04,-1.300000000000000157e-04,-4.000000000000000327e-05,-1.199999999999999895e-04,-5.999999999999999474e-05,2.000000000000000000e+00,1.500000000000000000e+01
3.256600000000000000e+04,-1.300000000000000157e-04,0.000000000000000000e+00,0.000000000000000000e+00,-2.000000000000000096e-04,-1.300000000000000157e-04,-4.000000000000000327e-05,-1.199999999999999895e-04,-5.999999999999999474e-05,2.000000000000000000e+00,1.500000000000000000e+01
3.256700000000000000e+04,-1.300000000000000157e-04,0.000000000000000000e+00,0.000000000000000000e+00,-2.000000000000000096e-04,-1.300000000000000157e-04,-4.000000000000000327e-05,-1.199999999999999895e-04,-5.999999999999999474e-05,2.000000000000000000e+00,1.500000000000000000e+01
3.256800000000000000e+04,-1.300000000000000157e-04,0.000000000000000000e+00,0.000000000000000000e+00,-2.000000000000000096e-04,-1.300000000000000157e-04,-4.000000000000000327e-05,-1.199999999999999895e-04,-5.999999999999999474e-05,2.000000000000000000e+00,1.500000000000000000e+01
3.256900000000000000e+04,-1.300000000000000157e-04,0.000000000000000000e+00,0.000000000000000000e+00,-2.000000000000000096e-04,-1.300000000000000157e-04,-4.000000000000000327e-05,-1.199999999999999895e-04,-5.999999999999999474e-05,2.000000000000000000e+00,1.500000000000000000e+01
3.257000000000000000e+04,-1.300000000000000157e-04,0.000000000000000000e+00,0.000000000000000000e+00,-2.000000000000000096e-04,-1.300000000000000157e-04,-4.000000000000000327e-05,-1.199999999999999895e-04,-5.999999999999999474e-05,2.000000000000000000e+00,1.500000000000000000e+01
3.257100000000000000e+04,-1.300000000000000157e-04,0.000000000000000000e+00,0.000000000000000000e+00,-2.000000000000000096e-04,-1.300000000000000157e-04,-4.000000000000000327e-05,-1.199999999999999895e-04,-5.999999999999999474e-05,2.000000000000000000e+00,1.500000000000000000e+01
3.257200000000000000e+04,-1.300000000000000157e-04,0.000000000000000000e+00,0.000000000000000000e+00,-2.000000000000000096e-04,-1.300000000000000157e-04,-4.000000000000000327e-05,-1.199999999999999895e-04,-5.999999999999999474e-05,2.000000000000000000e+00,1.500000000000000000e+01
3.257300000000000000e+04,-1.300000000000000157e-04,0.000000000000000000e+00,0.000000000000000000e+00,-2.000000000000000096e-04,-1.300000000000000157e-04,-4.000000000000000327e-05,-1.199999999999999895e-04,-5.999999999999999474e-05,2.000000000000000000e+00,1.500000000000000000e+01
3.257400000000000000e+04,-1.300000000000000157e-04,0.000000000000000000e+00,0.000000000000000000e+00,-2.000000000000000096e-04,-1.300000000000000157e-04,-4.000000000000000327e-05,-1.199999999999999895e-04,-5.999999999999999474e-05,2.000000000000000000e+00,1.500000000000000000e+01
3.257500000000000000e+04,-1.300000000000000157e-04,0.000000000000000000e+00,0.000000000000000000e+00,-2.000000000000000096e-04,-1.300000000000000157e-04,-4.000000000000000327e-05,-1.199999999999999895e-04,-5.999999999999999474e-05,2.000000000000000000e+00,1.500000000000000000e+01
3.257600000000000000e+04,-1.300000000000000157e-04,0.000000000000000000e+00,0.000000000000000000e+00,-2.000000000000000096e-04,-1.300000000000000157e-04,-4.000000000000000327e-05,-1.199999999999999895e-04,-5.999999999999999474e-05,2.000000000000000000e+00,1.500000000000000000e+01
3.257700000000000000e+04,1.000000000000000048e-04,-2.999999999999999737e-05,-6.999999999999999387e-05,-8.000000000000000654e-05,2.600000000000000314e-04,9.000000000000000567e-05,3.099999999999999999e-04,1.000000000000000048e-04,2.000000000000000000e+00,1.500000000000000000e+01
3.257800000000000000e+04,-2.000000000000000164e-05,2.000000000000000164e-05,1.199999999999999895e-04,9.000000000000000567e-05,0.000000000000000000e+00,5.000000000000000240e-05,5.999999999999999474e-05,-4.000000000000000327e-05,2.000000000000000000e+00,1.500000000000000000e+01
3.257900000000000000e+04,-2.000000000000000164e-05,2.000000000000000164e-05,1.199999999999999895e-04,9.000000000000000567e-05,0.000000000000000000e+00,5.000000000000000240e-05,5.999999999999999474e-05,-4.000000000000000327e-05,2.000000000000000000e+00,1.500000000000000000e+01
3.258000000000000000e+04,-2.000000000000000164e-05,2.000000000000000164e-05,1.199999999999999895e-04,9.000000000000000567e-05,0.000000000000000000e+00,5.000000000000000240e-05,5.999999999999999474e-05,-4.000000000000000327e-05,2.000000000000000000e+00,1.500000000000000000e+01
3.258100000000000000e+04,-2.000000000000000164e-05,2.000000000000000164e-05,1.199999999999999895e-04,9.000000000000000567e-05,0.000000000000000000e+00,5.000000000000000240e-05,5.999999999999999474e-05,-4.000000000000000327e-05,2.000000000000000000e+00,1.500000000000000000e+01
3.258200000000000000e+04,-2.000000000000000164e-05,2.000000000000000164e-05,1.199999999999999895e-04,9.000000000000000567e-05,0.000000000000000000e+00,5.000000000000000240e-05,5.999999999999999474e-05,-4.000000000000000327e-05,2.000000000000000000e+00,1.500000000000000000e+01
3.258300000000000000e+04,-2.000000000000000164e-05,2.000000000000000164e-05,1.199999999999999895e-04,9.000000000000000567e-05,0.000000000000000000e+00,5.000000000000000240e-05,5.999999999999999474e-05,-4.000000000000000327e-05,2.000000000000000000e+00,1.500000000000000000e+01
3.258400000000000000e+04,-2.000000000000000164e-05,2.000000000000000164e-05,1.199999999999999895e-04,9.000000000000000567e-05,0.000000000000000000e+00,5.000000000000000240e-05,5.999999999999999474e-05,-4.000000000000000327e-05,2.000000000000000000e+00,1.500000000000000000e+01
3.258500000000000000e+04,-2.000000000000000164e-05,2.000000000000000164e-05,1.199999999999999895e-04,9.000000000000000567e-05,0.000000000000000000e+00,5.000000000000000240e-05,5.999999999999999474e-05,-4.000000000000000327e-05,2.000000000000000000e+00,1.500000000000000000e+01
3.258600000000000000e+04,-2.000000000000000164e-05,2.000000000000000164e-05,1.199999999999999895e-04,9.000000000000000567e-05,0.000000000000000000e+00,5.000000000000000240e-05,5.999999999999999474e-05,-4.000000000000000327e-05,2.000000000000000000e+00,1.500000000000000000e+01
3.258900000000000000e+04,-2.000000000000000164e-05,2.000000000000000164e-05,1.199999999999999895e-04,9.000000000000000567e-05,0.000000000000000000e+00,5.000000000000000240e-05,5.999999999999999474e-05,-4.000000000000000327e-05,2.000000000000000000e+00,1.500000000000000000e+01
3.259000000000000000e+04,-2.000000000000000164e-05,2.000000000000000164e-05,1.199999999999999895e-04,9.000000000000000567e-05,0.000000000000000000e+00,5.000000000000000240e-05,5.999999999999999474e-05,-4.000000000000000327e-05,2.000000000000000000e+00,1.500000000000000000e+01
3.259100000000000000e+04,-8.000000000000000654e-05,-4.000000000000000327e-05,-9.000000000000000567e-05,-1.600000000000000131e-04,-8.000000000000000654e-05,-6.999999999999999387e-05,5.999999999999999474e-05,-1.000000000000000082e-05,2.000000000000000000e+00,1.500000000000000000e+01
3.259200000000000000e+04,-8.000000000000000654e-05,-4.000000000000000327e-05,-9.000000000000000567e-05,-1.600000000000000131e-04,-8.000000000000000654e-05,-6.999999999999999387e-05,5.999999999999999474e-05,-1.000000000000000082e-05,2.000000000000000000e+00,1.500000000000000000e+01
3.259300000000000000e+04,2.999999999999999737e-05,-4.000000000000000327e-05,-3.399999999999999702e-04,2.000000000000000164e-05,5.999999999999999474e-05,-6.999999999999999387e-05,-1.800000000000000113e-04,-2.999999999999999737e-05,2.000000000000000000e+00,1.500000000000000000e+01
3.259400000000000000e+04,2.999999999999999737e-05,-4.000000000000000327e-05,-3.399999999999999702e-04,2.000000000000000164e-05,5.999999999999999474e-05,-6.999999999999999387e-05,-1.800000000000000113e-04,-2.999999999999999737e-05,2.000000000000000000e+00,1.500000000000000000e+01
3.259500000000000000e+04,2.999999999999999737e-05,-4.000000000000000327e-05,-3.399999999999999702e-04,2.000000000000000164e-05,5.999999999999999474e-05,-6.999999999999999387e-05,-1.800000000000000113e-04,-2.999999999999999737e-05,2.000000000000000000e+00,1.500000000000000000e+01
3.259600000000000000e+04,2.999999999999999737e-05,-4.000000000000000327e-05,-3.399999999999999702e-04,2.000000000000000164e-05,5.999999999999999474e-05,-6.999999999999999387e-05,-1.800000000000000113e-04,-2.999999999999999737e-05,2.000000000000000000e+00,1.500000000000000000e+01
3.259700000000000000e+04,2.999999999999999737e-05,-4.000000000000000327e-05,-3.399999999999999702e-04,2.000000000000000164e-05,5.999999999999999474e-05,-6.999999999999999387e-05,-1.800000000000000113e-04,-2.999999999999999737e-05,2.000000000000000000e+00,1.500000000000000000e+01
3.259800000000000000e+04,2.999999999999999737e-05,-4.000000000000000327e-05,-3.399999999999999702e-04,2.000000000000000164e-05,5.999999999999999474e-05,-6.999999999999999387e-05,-1.800000000000000113e-04,-2.999999999999999737e-05,2.000000000000000000e+00,1.500000000000000000e+01
3.259900000000000000e+04,2.999999999999999737e-05,-4.000000000000000327e-05,-3.399999999999999702e-04,2.000000000000000164e-05,5.999999999999999474e-05,-6.999999999999999387e-05,-1.800000000000000113e-04,-2.999999999999999737e-05,2.000000000000000000e+00,1.500000000000000000e+01
3.260000000000000000e+04,2.999999999999999737e-05,-4.000000000000000327e-05,-3.399999999999999702e-04,2.000000000000000164e-05,5.999999999999999474e-05,-6.999999999999999387e-05,-1.800000000000000113e-04,-2.999999999999999737e-05,2.000000000000000000e+00,1.500000000000000000e+01
3.260100000000000000e+04,2.999999999999999737e-05,-4.000000000000000327e-05,-3.399999999999999702e-04,2.000000000000000164e-05,5.999999999999999474e-05,-6.999999999999999387e-05,-1.800000000000000113e-04,-2.999999999999999737e-05,2.000000000000000000e+00,1.500000000000000000e+01
3.260200000000000000e+04,2.999999999999999737e-05,-4.000000000000000327e-05,-3.399999999999999702e-04,2.000000000000000164e-05,5.999999999999999474e-05,-6.999999999999999387e-05,-1.800000000000000113e-04,-2.999999999999999737e-05,2.000000000000000000e+00,1.500000000000000000e+01
3.260300000000000000e+04,2.999999999999999737e-05,-4.000000000000000327e-05,-3.399999999999999702e-04,2.000000000000000164e-05,5.999999999999999474e-05,-6.999999999999999387e-05,-1.800000000000000113e-04,-2.999999999999999737e-05,2.000000000000000000e+00,1.500000000000000000e+01
3.260400000000000000e+04,2.999999999999999737e-05,-4.000000000000000327e-05,-3.399999999999999702e-04,2.000000000000000164e-05,5.999999999999999474e-05,-6.999999999999999387e-05,-1.800000000000000113e-04,-2.999999999999999737e-05,2.000000000000000000e+00,1.500000000000000000e+01
3.260500000000000000e+04,2.999999999999999737e-05,-4.000000000000000327e-05,-3.399999999999999702e-04,2.000000000000000164e-05,5.999999999999999474e-05,-6.999999999999999387e-05,-1.800000000000000113e-04,-2.999999999999999737e-05,2.000000000000000000e+00,1.500000000000000000e+01
3.260600000000000000e+04,2.999999999999999737e-05,-4.000000000000000327e-05,-3.399999999999999702e-04,2.000000000000000164e-05,5.999999999999999474e-05,-6.999999999999999387e-05,-1.800000000000000113e-04,-2.999999999999999737e-05,2.000000000000000000e+00,1.500000000000000000e+01
3.260700000000000000e+04,2.999999999999999737e-05,-4.000000000000000327e-05,-3.399999999999999702e-04,2.000000000000000164e-05,5.999999999999999474e-05,-6.999999999999999387e-05,-1.800000000000000113e-04,-2.999999999999999737e-05,2.000000000000000000e+00,1.500000000000000000e+01
3.260800000000000000e+04,2.999999999999999737e-05,-4.000000000000000327e-05,-3.399999999999999702e-04,2.000000000000000164e-05,5.999999999999999474e-05,-6.999999999999999387e-05,-1.800000000000000113e-04,-2.999999999999999737e-05,2.000000000000000000e+00,1.500000000000000000e+01
3.260900000000000000e+04,2.999999999999999737e-05,-4.000000000000000327e-05,-3.399999999999999702e-04,2.000000000000000164e-05,5.999999999999999474e-05,-6.999999999999999387e-05,-1.800000000000000113e-04,-2.999999999999999737e-05,2.000000000000000000e+00,1.500000000000000000e+01
3.261000000000000000e+04,2.999999999999999737e-05,-4.000000000000000327e-05,-3.399999999999999702e-04,2.000000000000000164e-05,5.999999999999999474e-05,-6.999999999999999387e-05,-1.800000000000000113e-04,-2.999999999999999737e-05,2.000000000000000000e+00,1.500000000000000000e+01
3.261100000000000000e+04,2.999999999999999737e-05,-4.000000000000000327e-05,-3.399999999999999702e-04,2.000000000000000164e-05,5.999999999999999474e-05,-6.999999999999999387e-05,-1.800000000000000113e-04,-2.999999999999999737e-05,2.000000000000000000e+00,1.500000000000000000e+01
3.261200000000000000e+04,2.999999999999999737e-05,-4.000000000000000327e-05,-3.399999999999999702e-04,2.000000000000000164e-05,5.999999999999999474e-05,-6.999999999999999387e-05,-1.800000000000000113e-04,-2.999999999999999737e-05,2.000000000000000000e+00,1.500000000000000000e+01
3.261300000000000000e+04,2.999999999999999737e-05,-4.000000000000000327e-05,-3.399999999999999702e-04,2.000000000000000164e-05,5.999999999999999474e-05,-6.999999999999999387e-05,-1.800000000000000113e-04,-2.999999999999999737e-05,2.000000000000000000e+00,1.500000000000000000e+01
3.261400000000000000e+04,-2.100000000000000087e-04,-1.300000000000000157e-04,-1.699999999999999851e-04,-1.499999999999999869e-04,-1.399999999999999877e-04,9.000000000000000567e-05,1.399999999999999877e-04,-5.000000000000000240e-05,2.000000000000000000e+00,1.500000000000000000e+01
3.261500000000000000e+04,-9.000000000000000567e-05,-2.999999999999999737e-05,5.999999999999999474e-05,1.100000000000000039e-04,0.000000000000000000e+00,-8.000000000000000654e-05,-2.000000000000000164e-05,-1.000000000000000048e-04,2.000000000000000000e+00,1.500000000000000000e+01
3.261600000000000000e+04,-9.000000000000000567e-05,-2.999999999999999737e-05,5.999999999999999474e-05,1.100000000000000039e-04,0.000000000000000000e+00,-8.000000000000000654e-05,-2.000000000000000164e-05,-1.000000000000000048e-04,2.000000000000000000e+00,1.500000000000000000e+01
3.261700000000000000e+04,-9.000000000000000567e-05,-2.999999999999999737e-05,5.999999999999999474e-05,1.100000000000000039e-04,0.000000000000000000e+00,-8.000000000000000654e-05,-2.000000000000000164e-05,-1.000000000000000048e-04,2.000000000000000000e+00,1.500000000000000000e+01
3.261800000000000000e+04,-9.000000000000000567e-05,-2.999999999999999737e-05,5.999999999999999474e-05,1.100000000000000039e-04,0.000000000000000000e+00,-8.000000000000000654e-05,-2.000000000000000164e-05,-1.000000000000000048e-04,2.000000000000000000e+00,1.500000000000000000e+01
3.261900000000000000e+04,-9.000000000000000567e-05,-2.999999999999999737e-05,5.999999999999999474e-05,1.100000000000000039e-04,0.000000000000000000e+00,-8.000000000000000654e-05,-2.000000000000000164e-05,-1.000000000000000048e-04,2.000000000000000000e+00,1.500000000000000000e+01
3.262000000000000000e+04,-9.000000000000000567e-05,-2.999999999999999737e-05,5.999999999999999474e-05,1.100000000000000039e-04,0.000000000000000000e+00,-8.000000000000000654e-05,-2.000000000000000164e-05,-1.000000000000000048e-04,2.000000000000000000e+00,1.500000000000000000e+01
3.262100000000000000e+04,-9.000000000000000567e-05,-2.999999999999999737e-05,5.999999999999999474e-05,1.100000000000000039e-04,0.000000000000000000e+00,-8.000000000000000654e-05,-2.000000000000000164e-05,-1.000000000000000048e-04,2.000000000000000000e+00,1.500000000000000000e+01
3.262200000000000000e+04,-9.000000000000000567e-05,-2.999999999999999737e-05,5.999999999999999474e-05,1.100000000000000039e-04,0.000000000000000000e+00,-8.000000000000000654e-05,-2.000000000000000164e-05,-1.000000000000000048e-04,2.000000000000000000e+00,1.500000000000000000e+01
3.262300000000000000e+04,-9.000000000000000567e-05,-2.999999999999999737e-05,5.999999999999999474e-05,1.100000000000000039e-04,0.000000000000000000e+00,-8.000000000000000654e-05,-2.000000000000000164e-05,-1.000000000000000048e-04,2.000000000000000000e+00,1.500000000000000000e+01
3.262400000000000000e+04,-9.000000000000000567e-05,-2.999999999999999737e-05,5.999999999999999474e-05,1.100000000000000039e-04,0.000000000000000000e+00,-8.000000000000000654e-05,-2.000000000000000164e-05,-1.000000000000000048e-04,2.000000000000000000e+00,1.500000000000000000e+01
3.262500000000000000e+04,-9.000000000000000567e-05,-2.999999999999999737e-05,5.999999999999999474e-05,1.100000000000000039e-04,0.000000000000000000e+00,-8.000000000000000654e-05,-2.000000000000000164e-05,-1.000000000000000048e-04,2.000000000000000000e+00,1.500000000000000000e+01
3.262600000000000000e+04,-9.000000000000000567e-05,-2.999999999999999737e-05,5.999999999999999474e-05,1.100000000000000039e-04,0.000000000000000000e+00,-8.000000000000000654e-05,-2.000000000000000164e-05,-1.000000000000000048e-04,2.000000000000000000e+00,1.500000000000000000e+01
3.262700000000000000e+04,-9.000000000000000567e-05,-2.999999999999999737e-05,5.999999999999999474e-05,1.100000000000000039e-04,0.000000000000000000e+00,-8.000000000000000654e-05,-2.000000000000000164e-05,-1.000000000000000048e-04,2.000000000000000000e+00,1.500000000000000000e+01
3.262800000000000000e+04,-9.000000000000000567e-05,-2.999999999999999737e-05,5.999999999999999474e-05,1.100000000000000039e-04,0.000000000000000000e+00,-8.000000000000000654e-05,-2.000000000000000164e-05,-1.000000000000000048e-04,2.000000000000000000e+00,1.500000000000000000e+01
3.262900000000000000e+04,-9.000000000000000567e-05,-2.999999999999999737e-05,5.999999999999999474e-05,1.100000000000000039e-04,0.000000000000000000e+00,-8.000000000000000654e-05,-2.000000000000000164e-05,-1.000000000000000048e-04,2.000000000000000000e+00,1.500000000000000000e+01
3.263000000000000000e+04,-9.000000000000000567e-05,-2.999999999999999737e-05,5.999999999999999474e-05,1.100000000000000039e-04,0.000000000000000000e+00,-8.000000000000000654e-05,-2.000000000000000164e-05,-1.000000000000000048e-04,2.000000000000000000e+00,1.500000000000000000e+01
3.263100000000000000e+04,-9.000000000000000567e-05,-2.999999999999999737e-05,5.999999999999999474e-05,1.100000000000000039e-04,0.000000000000000000e+00,-8.000000000000000654e-05,-2.000000000000000164e-05,-1.000000000000000048e-04,2.000000000000000000e+00,1.500000000000000000e+01
3.263200000000000000e+04,-9.000000000000000567e-05,-2.999999999999999737e-05,5.999999999999999474e-05,1.100000000000000039e-04,0.000000000000000000e+00,-8.000000000000000654e-05,-2.000000000000000164e-05,-1.000000000000000048e-04,2.000000000000000000e+00,1.500000000000000000e+01
3.263300000000000000e+04,-9.000000000000000567e-05,-2.999999999999999737e-05,5.999999999999999474e-05,1.100000000000000039e-04,0.000000000000000000e+00,-8.000000000000000654e-05,-2.000000000000000164e-05,-1.000000000000000048e-04,2.000000000000000000e+00,1.500000000000000000e+01
3.263400000000000000e+04,-9.000000000000000567e-05,-2.999999999999999737e-05,5.999999999999999474e-05,1.100000000000000039e-04,0.000000000000000000e+00,-8.000000000000000654e-05,-2.000000000000000164e-05,-1.000000000000000048e-04,2.000000000000000000e+00,1.500000000000000000e+01
3.263500000000000000e+04,-9.000000000000000567e-05,-2.999999999999999737e-05,5.999999999999999474e-05,1.100000000000000039e-04,0.000000000000000000e+00,-8.000000000000000654e-05,-2.000000000000000164e-05,-1.000000000000000048e-04,2.000000000000000000e+00,1.500000000000000000e+01
3.263600000000000000e+04,2.999999999999999737e-05,8.000000000000000654e-05,1.399999999999999877e-04,2.000000000000000164e-05,-1.000000000000000082e-05,-9.000000000000000567e-05,1.199999999999999895e-04,0.000000000000000000e+00,2.000000000000000000e+00,1.500000000000000000e+01
3.263900000000000000e+04,-1.000000000000000082e-05,-5.999999999999999474e-05,-1.499999999999999869e-04,-1.000000000000000082e-05,-1.000000000000000048e-04,-2.999999999999999737e-05,5.999999999999999474e-05,-2.000000000000000164e-05,2.000000000000000000e+00,1.500000000000000000e+01
3.264000000000000000e+04,-1.000000000000000082e-05,-5.999999999999999474e-05,-1.499999999999999869e-04,-1.000000000000000082e-05,-1.000000000000000048e-04,-2.999999999999999737e-05,5.999999999999999474e-05,-2.000000000000000164e-05,2.000000000000000000e+00,1.500000000000000000e+01
3.264100000000000000e+04,-1.000000000000000082e-05,-5.999999999999999474e-05,-1.499999999999999869e-04,-1.000000000000000082e-05,-1.000000000000000048e-04,-2.999999999999999737e-05,5.999999999999999474e-05,-2.000000000000000164e-05,2.000000000000000000e+00,1.500000000000000000e+01
3.264200000000000000e+04,-1.000000000000000082e-05,-5.999999999999999474e-05,-1.499999999999999869e-04,-1.000000000000000082e-05,-1.000000000000000048e-04,-2.999999999999999737e-05,5.999999999999999474e-05,-2.000000000000000164e-05,2.000000000000000000e+00,1.500000000000000000e+01
3.264300000000000000e+04,-1.000000000000000082e-05,-5.999999999999999474e-05,-1.499999999999999869e-04,-1.000000000000000082e-05,-1.000000000000000048e-04,-2.999999999999999737e-05,5.999999999999999474e-05,-2.000000000000000164e-05,2.000000000000000000e+00,1.500000000000000000e+01
3.264400000000000000e+04,-1.000000000000000082e-05,-5.999999999999999474e-05,-1.499999999999999869e-04,-1.000000000000000082e-05,-1.000000000000000048e-04,-2.999999999999999737e-05,5.999999999999999474e-05,-2.000000000000000164e-05,2.000000000000000000e+00,1.500000000000000000e+01
3.264500000000000000e+04,-1.000000000000000082e-05,-5.999999999999999474e-05,-1.499999999999999869e-04,-1.000000000000000082e-05,-1.000000000000000048e-04,-2.999999999999999737e-05,5.999999999999999474e-05,-2.000000000000000164e-05,2.000000000000000000e+00,1.500000000000000000e+01
3.264600000000000000e+04,-1.000000000000000082e-05,-5.999999999999999474e-05,-1.499999999999999869e-04,-1.000000000000000082e-05,-1.000000000000000048e-04,-2.999999999999999737e-05,5.999999999999999474e-05,-2.000000000000000164e-05,2.000000000000000000e+00,1.500000000000000000e+01
3.264700000000000000e+04,-1.000000000000000082e-05,-5.999999999999999474e-05,-1.499999999999999869e-04,-1.000000000000000082e-05,-1.000000000000000048e-04,-2.999999999999999737e-05,5.999999999999999474e-05,-2.000000000000000164e-05,2.000000000000000000e+00,1.500000000000000000e+01
3.264800000000000000e+04,-1.000000000000000082e-05,-5.999999999999999474e-05,-1.499999999999999869e-04,-1.000000000000000082e-05,-1.000000000000000048e-04,-2.999999999999999737e-05,5.999999999999999474e-05,-2.000000000000000164e-05,2.000000000000000000e+00,1.500000000000000000e+01
3.264900000000000000e+04,-1.000000000000000082e-05,-5.999999999999999474e-05,-1.499999999999999869e-04,-1.000000000000000082e-05,-1.000000000000000048e-04,-2.999999999999999737e-05,5.999999999999999474e-05,-2.000000000000000164e-05,2.000000000000000000e+00,1.500000000000000000e+01
3.265000000000000000e+04,-1.000000000000000082e-05,-5.999999999999999474e-05,-1.499999999999999869e-04,-1.000000000000000082e-05,-1.000000000000000048e-04,-2.999999999999999737e-05,5.999999999999999474e-05,-2.000000000000000164e-05,2.000000000000000000e+00,1.500000000000000000e+01
3.265100000000000000e+04,0.000000000000000000e+00,-8.000000000000000654e-05,1.100000000000000039e-04,4.000000000000000327e-05,-6.999999999999999387e-05,5.999999999999999474e-05,2.000000000000000164e-05,-2.000000000000000164e-05,2.000000000000000000e+00,1.500000000000000000e+01
3.265200000000000000e+04,0.000000000000000000e+00,-8.000000000000000654e-05,1.100000000000000039e-04,4.000000000000000327e-05,-6.999999999999999387e-05,5.999999999999999474e-05,2.000000000000000164e-05,-2.000000000000000164e-05,2.000000000000000000e+00,1.500000000000000000e+01
3.265300000000000000e+04,-1.699999999999999851e-04,-2.000000000000000164e-05,3.200000000000000262e-04,-5.000000000000000240e-05,-6.999999999999999387e-05,-1.399999999999999877e-04,-4.499999999999999877e-04,-2.200000000000000078e-04,2.000000000000000000e+00,1.500000000000000000e+01
3.265400000000000000e+04,-1.699999999999999851e-04,-2.000000000000000164e-05,3.200000000000000262e-04,-5.000000000000000240e-05,-6.999999999999999387e-05,-1.399999999999999877e-04,-4.499999999999999877e-04,-2.200000000000000078e-04,2.000000000000000000e+00,1.500000000000000000e+01
3.265500000000000000e+04,-1.699999999999999851e-04,-2.000000000000000164e-05,3.200000000000000262e-04,-5.000000000000000240e-05,-6.999999999999999387e-05,-1.399999999999999877e-04,-4.499999999999999877e-04,-2.200000000000000078e-04,2.000000000000000000e+00,1.500000000000000000e+01
3.265600000000000000e+04,-1.699999999999999851e-04,-2.000000000000000164e-05,3.200000000000000262e-04,-5.000000000000000240e-05,-6.999999999999999387e-05,-1.399999999999999877e-04,-4.499999999999999877e-04,-2.200000000000000078e-04,2.000000000000000000e+00,1.500000000000000000e+01
3.265700000000000000e+04,-1.699999999999999851e-04,-2.000000000000000164e-05,3.200000000000000262e-04,-5.000000000000000240e-05,-6.999999999999999387e-05,-1.399999999999999877e-04,-4.499999999999999877e-04,-2.200000000000000078e-04,2.000000000000000000e+00,1.500000000000000000e+01
3.265800000000000000e+04,-1.699999999999999851e-04,-2.000000000000000164e-05,3.200000000000000262e-04,-5.000000000000000240e-05,-6.999999999999999387e-05,-1.399999999999999877e-04,-4.499999999999999877e-04,-2.200000000000000078e-04,2.000000000000000000e+00,1.500000000000000000e+01
3.265900000000000000e+04,-1.699999999999999851e-04,-2.000000000000000164e-05,3.200000000000000262e-04,-5.000000000000000240e-05,-6.999999999999999387e-05,-1.399999999999999877e-04,-4.499999999999999877e-04,-2.200000000000000078e-04,2.000000000000000000e+00,1.500000000000000000e+01
3.266000000000000000e+04,-1.699999999999999851e-04,-2.000000000000000164e-05,3.200000000000000262e-04,-5.000000000000000240e-05,-6.999999999999999387e-05,-1.399999999999999877e-04,-4.499999999999999877e-04,-2.200000000000000078e-04,2.000000000000000000e+00,1.500000000000000000e+01
3.266100000000000000e+04,-1.699999999999999851e-04,-2.000000000000000164e-05,3.200000000000000262e-04,-5.000000000000000240e-05,-6.999999999999999387e-05,-1.399999999999999877e-04,-4.499999999999999877e-04,-2.200000000000000078e-04,2.000000000000000000e+00,1.500000000000000000e+01
3.266200000000000000e+04,-1.699999999999999851e-04,-2.000000000000000164e-05,3.200000000000000262e-04,-5.000000000000000240e-05,-6.999999999999999387e-05,-1.399999999999999877e-04,-4.499999999999999877e-04,-2.200000000000000078e-04,2.000000000000000000e+00,1.500000000000000000e+01
3.266300000000000000e+04,-1.699999999999999851e-04,-2.000000000000000164e-05,3.200000000000000262e-04,-5.000000000000000240e-05,-6.999999999999999387e-05,-1.399999999999999877e-04,-4.499999999999999877e-04,-2.200000000000000078e-04,2.000000000000000000e+00,1.500000000000000000e+01
3.266400000000000000e+04,-1.699999999999999851e-04,-2.000000000000000164e-05,3.200000000000000262e-04,-5.000000000000000240e-05,-6.999999999999999387e-05,-1.399999999999999877e-04,-4.499999999999999877e-04,-2.200000000000000078e-04,2.000000000000000000e+00,1.500000000000000000e+01
3.266500000000000000e+04,-1.699999999999999851e-04,-2.000000000000000164e-05,3.200000000000000262e-04,-5.000000000000000240e-05,-6.999999999999999387e-05,-1.399999999999999877e-04,-4.499999999999999877e-04,-2.200000000000000078e-04,2.000000000000000000e+00,1.500000000000000000e+01
3.266600000000000000e+04,-1.699999999999999851e-04,-2.000000000000000164e-05,3.200000000000000262e-04,-5.000000000000000240e-05,-6.999999999999999387e-05,-1.399999999999999877e-04,-4.499999999999999877e-04,-2.200000000000000078e-04,2.000000000000000000e+00,1.500000000000000000e+01
3.266700000000000000e+04,-1.699999999999999851e-04,-2.000000000000000164e-05,3.200000000000000262e-04,-5.000000000000000240e-05,-6.999999999999999387e-05,-1.399999999999999877e-04,-4.499999999999999877e-04,-2.200000000000000078e-04,2.000000000000000000e+00,1.500000000000000000e+01
3.266800000000000000e+04,-1.699999999999999851e-04,-2.000000000000000164e-05,3.200000000000000262e-04,-5.000000000000000240e-05,-6.999999999999999387e-05,-1.399999999999999877e-04,-4.499999999999999877e-04,-2.200000000000000078e-04,2.000000000000000000e+00,1.500000000000000000e+01
3.266900000000000000e+04,-1.699999999999999851e-04,-2.000000000000000164e-05,3.200000000000000262e-04,-5.000000000000000240e-05,-6.999999999999999387e-05,-1.399999999999999877e-04,-4.499999999999999877e-04,-2.200000000000000078e-04,2.000000000000000000e+00,1.500000000000000000e+01
3.267000000000000000e+04,-1.699999999999999851e-04,-2.000000000000000164e-05,3.200000000000000262e-04,-5.000000000000000240e-05,-6.999999999999999387e-05,-1.399999999999999877e-04,-4.499999999999999877e-04,-2.200000000000000078e-04,2.000000000000000000e+00,1.500000000000000000e+01
3.267100000000000000e+04,-1.699999999999999851e-04,-2.000000000000000164e-05,3.200000000000000262e-04,-5.000000000000000240e-05,-6.999999999999999387e-05,-1.399999999999999877e-04,-4.499999999999999877e-04,-2.200000000000000078e-04,2.000000000000000000e+00,1.500000000000000000e+01
3.267200000000000000e+04,-1.699999999999999851e-04,-2.000000000000000164e-05,3.200000000000000262e-04,-5.000000000000000240e-05,-6.999999999999999387e-05,-1.399999999999999877e-04,-4.499999999999999877e-04,-2.200000000000000078e-04,2.000000000000000000e+00,1.500000000000000000e+01
3.267300000000000000e+04,-1.699999999999999851e-04,-2.000000000000000164e-05,3.200000000000000262e-04,-5.000000000000000240e-05,-6.999999999999999387e-05,-1.399999999999999877e-04,-4.499999999999999877e-04,-2.200000000000000078e-04,2.000000000000000000e+00,1.500000000000000000e+01
3.267400000000000000e+04,1.000000000000000048e-04,-1.000000000000000082e-05,6.999999999999999387e-05,1.300000000000000157e-04,1.000000000000000082e-05,4.000000000000000327e-05,-1.399999999999999877e-04,4.000000000000000327e-05,2.000000000000000000e+00,1.500000000000000000e+01
3.267500000000000000e+04,4.000000000000000327e-05,4.000000000000000327e-05,6.999999999999999387e-05,2.999999999999999737e-05,1.899999999999999834e-04,-1.000000000000000048e-04,-2.799999999999999755e-04,0.000000000000000000e+00,2.000000000000000000e+00,1.500000000000000000e+01
3.267600000000000000e+04,4.000000000000000327e-05,4.000000000000000327e-05,6.999999999999999387e-05,2.999999999999999737e-05,1.899999999999999834e-04,-1.000000000000000048e-04,-2.799999999999999755e-04,0.000000000000000000e+00,2.000000000000000000e+00,1.500000000000000000e+01
3.267700000000000000e+04,4.000000000000000327e-05,4.000000000000000327e-05,6.999999999999999387e-05,2.999999999999999737e-05,1.899999999999999834e-04,-1.000000000000000048e-04,-2.799999999999999755e-04,0.000000000000000000e+00,2.000000000000000000e+00,1.500000000000000000e+01
3.267800000000000000e+04,4.000000000000000327e-05,4.000000000000000327e-05,6.999999999999999387e-05,2.999999999999999737e-05,1.899999999999999834e-04,-1.000000000000000048e-04,-2.799999999999999755e-04,0.000000000000000000e+00,2.000000000000000000e+00,1.500000000000000000e+01
3.267900000000000000e+04,4.000000000000000327e-05,4.000000000000000327e-05,6.999999999999999387e-05,2.999999999999999737e-05,1.899999999999999834e-04,-1.000000000000000048e-04,-2.799999999999999755e-04,0.000000000000000000e+00,2.000000000000000000e+00,1.500000000000000000e+01
3.268000000000000000e+04,4.000000000000000327e-05,4.000000000000000327e-05,6.999999999999999387e-05,2.999999999999999737e-05,1.899999999999999834e-04,-1.000000000000000048e-04,-2.799999999999999755e-04,0.000000000000000000e+00,2.000000000000000000e+00,1.500000000000000000e+01
3.268100000000000000e+04,4.000000000000000327e-05,4.000000000000000327e-05,6.999999999999999387e-05,2.999999999999999737e-05,1.899999999999999834e-04,-1.000000000000000048e-04,-2.799999999999999755e-04,0.000000000000000000e+00,2.000000000000000000e+00,1.500000000000000000e+01
3.268200000000000000e+04,4.000000000000000327e-05,4.000000000000000327e-05,6.999999999999999387e-05,2.999999999999999737e-05,1.899999999999999834e-04,-1.000000000000000048e-04,-2.799999999999999755e-04,0.000000000000000000e+00,2.000000000000000000e+00,1.500000000000000000e+01
3.268300000000000000e+04,4.000000000000000327e-05,4.000000000000000327e-05,6.999999999999999387e-05,2.999999999999999737e-05,1.899999999999999834e-04,-1.000000000000000048e-04,-2.799999999999999755e-04,0.000000000000000000e+00,2.000000000000000000e+00,1.500000000000000000e+01
3.268400000000000000e+04,4.000000000000000327e-05,4.000000000000000327e-05,6.999999999999999387e-05,2.999999999999999737e-05,1.899999999999999834e-04,-1.000000000000000048e-04,-2.799999999999999755e-04,0.000000000000000000e+00,2.000000000000000000e+00,1.500000000000000000e+01
3.268500000000000000e+04,4.000000000000000327e-05,4.000000000000000327e-05,6.999999999999999387e-05,2.999999999999999737e-05,1.899999999999999834e-04,-1.000000000000000048e-04,-2.799999999999999755e-04,0.000000000000000000e+00,2.000000000000000000e+00,1.500000000000000000e+01
3.268600000000000000e+04,4.000000000000000327e-05,4.000000000000000327e-05,6.999999999999999387e-05,2.999999999999999737e-05,1.899999999999999834e-04,-1.000000000000000048e-04,-2.799999999999999755e-04,0.000000000000000000e+00,2.000000000000000000e+00,1.500000000000000000e+01
3.268900000000000000e+04,4.000000000000000327e-05,4.000000000000000327e-05,6.999999999999999387e-05,2.999999999999999737e-05,1.899999999999999834e-04,-1.000000000000000048e-04,-2.799999999999999755e-04,0.000000000000000000e+00,2.000000000000000000e+00,1.500000000000000000e+01
3.269000000000000000e+04,4.000000000000000327e-05,4.000000000000000327e-05,6.999999999999999387e-05,2.999999999999999737e-05,1.899999999999999834e-04,-1.000000000000000048e-04,-2.799999999999999755e-04,0.000000000000000000e+00,2.000000000000000000e+00,1.500000000000000000e+01
3.269100000000000000e+04,4.000000000000000327e-05,4.000000000000000327e-05,6.999999999999999387e-05,2.999999999999999737e-05,1.899999999999999834e-04,-1.000000000000000048e-04,-2.799999999999999755e-04,0.000000000000000000e+00,2.000000000000000000e+00,1.500000000000000000e+01
3.269200000000000000e+04,4.000000000000000327e-05,4.000000000000000327e-05,6.999999999999999387e-05,2.999999999999999737e-05,1.899999999999999834e-04,-1.000000000000000048e-04,-2.799999999999999755e-04,0.000000000000000000e+00,2.000000000000000000e+00,1.500000000000000000e+01
3.269300000000000000e+04,4.000000000000000327e-05,4.000000000000000327e-05,6.999999999999999387e-05,2.999999999999999737e-05,1.899999999999999834e-04,-1.000000000000000048e-04,-2.799999999999999755e-04,0.000000000000000000e+00,2.000000000000000000e+00,1.500000000000000000e+01
3.269400000000000000e+04,4.000000000000000327e-05,4.000000000000000327e-05,6.999999999999999387e-05,2.999999999999999737e-05,1.899999999999999834e-04,-1.000000000000000048e-04,-2.799999999999999755e-04,0.000000000000000000e+00,2.000000000000000000e+00,1.500000000000000000e+01
3.269500000000000000e+04,4.000000000000000327e-05,4.000000000000000327e-05,6.999999999999999387e-05,2.999999999999999737e-05,1.899999999999999834e-04,-1.000000000000000048e-04,-2.799999999999999755e-04,0.000000000000000000e+00,2.000000000000000000e+00,1.500000000000000000e+01
3.269600000000000000e+04,4.000000000000000327e-05,2.000000000000000164e-05,-8.000000000000000654e-05,-1.100000000000000039e-04,-1.100000000000000039e-04,1.000000000000000082e-05,1.300000000000000157e-04,-1.000000000000000048e-04,2.000000000000000000e+00,1.500000000000000000e+01
3.269700000000000000e+04,4.000000000000000327e-05,2.000000000000000164e-05,-8.000000000000000654e-05,-1.100000000000000039e-04,-1.100000000000000039e-04,1.000000000000000082e-05,1.300000000000000157e-04,-1.000000000000000048e-04,2.000000000000000000e+00,1.500000000000000000e+01
3.269800000000000000e+04,-8.000000000000000654e-05,-5.999999999999999474e-05,-1.199999999999999895e-04,-2.999999999999999737e-05,1.699999999999999851e-04,1.399999999999999877e-04,1.100000000000000039e-04,5.999999999999999474e-05,2.000000000000000000e+00,1.500000000000000000e+01
3.269900000000000000e+04,-8.000000000000000654e-05,-5.999999999999999474e-05,-1.199999999999999895e-04,-2.999999999999999737e-05,1.699999999999999851e-04,1.399999999999999877e-04,1.100000000000000039e-04,5.999999999999999474e-05,2.000000000000000000e+00,1.500000000000000000e+01
3.270000000000000000e+04,-8.000000000000000654e-05,-5.999999999999999474e-05,-1.199999999999999895e-04,-2.999999999999999737e-05,1.699999999999999851e-04,1.399999999999999877e-04,1.100000000000000039e-04,5.999999999999999474e-05,2.000000000000000000e+00,1.500000000000000000e+01
3.270100000000000000e+04,-8.000000000000000654e-05,-5.999999999999999474e-05,-1.199999999999999895e-04,-2.999999999999999737e-05,1.699999999999999851e-04,1.399999999999999877e-04,1.100000000000000039e-04,5.999999999999999474e-05,2.000000000000000000e+00,1.500000000000000000e+01
3.270200000000000000e+04,-8.000000000000000654e-05,-5.999999999999999474e-05,-1.199999999999999895e-04,-2.999999999999999737e-05,1.699999999999999851e-04,1.399999999999999877e-04,1.100000000000000039e-04,5.999999999999999474e-05,2.000000000000000000e+00,1.500000000000000000e+01
3.270300000000000000e+04,-8.000000000000000654e-05,-5.999999999999999474e-05,-1.199999999999999895e-04,-2.999999999999999737e-05,1.699999999999999851e-04,1.399999999999999877e-04,1.100000000000000039e-04,5.999999999999999474e-05,2.000000000000000000e+00,1.500000000000000000e+01
3.270400000000000000e+04,-8.000000000000000654e-05,-5.999999999999999474e-05,-1.199999999999999895e-04,-2.999999999999999737e-05,1.699999999999999851e-04,1.399999999999999877e-04,1.100000000000000039e-04,5.999999999999999474e-05,2.000000000000000000e+00,1.500000000000000000e+01
3.270500000000000000e+04,-8.000000000000000654e-05,-5.999999999999999474e-05,-1.199999999999999895e-04,-2.999999999999999737e-05,1.699999999999999851e-04,1.399999999999999877e-04,1.100000000000000039e-04,5.999999999999999474e-05,2.000000000000000000e+00,1.500000000000000000e+01
3.270600000000000000e+04,-8.000000000000000654e-05,-5.999999999999999474e-05,-1.199999999999999895e-04,-2.999999999999999737e-05,1.699999999999999851e-04,1.399999999999999877e-04,1.100000000000000039e-04,5.999999999999999474e-05,2.000000000000000000e+00,1.500000000000000000e+01
3.270700000000000000e+04,-8.000000000000000654e-05,-5.999999999999999474e-05,-1.199999999999999895e-04,-2.999999999999999737e-05,1.699999999999999851e-04,1.399999999999999877e-04,1.100000000000000039e-04,5.999999999999999474e-05,2.000000000000000000e+00,1.500000000000000000e+01
3.270800000000000000e+04,-8.000000000000000654e-05,-5.999999999999999474e-05,-1.199999999999999895e-04,-2.999999999999999737e-05,1.699999999999999851e-04,1.399999999999999877e-04,1.100000000000000039e-04,5.999999999999999474e-05,2.000000000000000000e+00,1.500000000000000000e+01
3.270900000000000000e+04,-8.000000000000000654e-05,-5.999999999999999474e-05,-1.199999999999999895e-04,-2.999999999999999737e-05,1.699999999999999851e-04,1.399999999999999877e-04,1.100000000000000039e-04,5.999999999999999474e-05,2.000000000000000000e+00,1.500000000000000000e+01
3.271000000000000000e+04,2.999999999999999737e-05,0.000000000000000000e+00,1.000000000000000082e-05,2.000000000000000164e-05,-2.999999999999999737e-05,-2.000000000000000164e-05,8.000000000000000654e-05,2.299999999999999799e-04,2.000000000000000000e+00,1.500000000000000000e+01
3.271100000000000000e+04,1.499999999999999869e-04,0.000000000000000000e+00,1.100000000000000039e-04,2.700000000000000035e-04,1.000000000000000082e-05,0.000000000000000000e+00,1.800000000000000113e-04,1.300000000000000157e-04,2.000000000000000000e+00,1.500000000000000000e+01
3.271200000000000000e+04,1.499999999999999869e-04,0.000000000000000000e+00,1.100000000000000039e-04,2.700000000000000035e-04,1.000000000000000082e-05,0.000000000000000000e+00,1.800000000000000113e-04,1.300000000000000157e-04,2.000000000000000000e+00,1.500000000000000000e+01
3.271300000000000000e+04,1.499999999999999869e-04,0.000000000000000000e+00,1.100000000000000039e-04,2.700000000000000035e-04,1.000000000000000082e-05,0.000000000000000000e+00,1.800000000000000113e-04,1.300000000000000157e-04,2.000000000000000000e+00,1.500000000000000000e+01
3.271400000000000000e+04,1.499999999999999869e-04,0.000000000000000000e+00,1.100000000000000039e-04,2.700000000000000035e-04,1.000000000000000082e-05,0.000000000000000000e+00,1.800000000000000113e-04,1.300000000000000157e-04,2.000000000000000000e+00,1.500000000000000000e+01
3.271500000000000000e+04,1.499999999999999869e-04,0.000000000000000000e+00,1.100000000000000039e-04,2.700000000000000035e-04,1.000000000000000082e-05,0.000000000000000000e+00,1.800000000000000113e-04,1.300000000000000157e-04,2.000000000000000000e+00,1.500000000000000000e+01
3.271600000000000000e+04,1.499999999999999869e-04,0.000000000000000000e+00,1.100000000000000039e-04,2.700000000000000035e-04,1.000000000000000082e-05,0.000000000000000000e+00,1.800000000000000113e-04,1.300000000000000157e-04,2.000000000000000000e+00,1.500000000000000000e+01
3.271700000000000000e+04,-6.999999999999999387e-05,-1.000000000000000048e-04,-6.999999999999999387e-05,-1.000000000000000048e-04,-1.499999999999999869e-04,5.000000000000000240e-05,2.600000000000000314e-04,5.000000000000000240e-05,2.000000000000000000e+00,1.500000000000000000e+01
3.271800000000000000e+04,-6.999999999999999387e-05,-1.000000000000000048e-04,-6.999999999999999387e-05,-1.000000000000000048e-04,-1.499999999999999869e-04,5.000000000000000240e-05,2.600000000000000314e-04,5.000000000000000240e-05,2.000000000000000000e+00,1.500000000000000000e+01
3.271900000000000000e+04,-6.999999999999999387e-05,-1.000000000000000048e-04,-6.999999999999999387e-05,-1.000000000000000048e-04,-1.499999999999999869e-04,5.000000000000000240e-05,2.600000000000000314e-04,5.000000000000000240e-05,2.000000000000000000e+00,1.500000000000000000e+01
3.272000000000000000e+04,-6.999999999999999387e-05,-1.000000000000000048e-04,-6.999999999999999387e-05,-1.000000000000000048e-04,-1.499999999999999869e-04,5.000000000000000240e-05,2.600000000000000314e-04,5.000000000000000240e-05,2.000000000000000000e+00,1.500000000000000000e+01
3.272100000000000000e+04,-6.999999999999999387e-05,-1.000000000000000048e-04,-6.999999999999999387e-05,-1.000000000000000048e-04,-1.499999999999999869e-04,5.000000000000000240e-05,2.600000000000000314e-04,5.000000000000000240e-05,2.000000000000000000e+00,1.500000000000000000e+01
3.272200000000000000e+04,-6.999999999999999387e-05,-1.000000000000000048e-04,-6.999999999999999387e-05,-1.000000000000000048e-04,-1.499999999999999869e-04,5.000000000000000240e-05,2.600000000000000314e-04,5.000000000000000240e-05,2.000000000000000000e+00,1.500000000000000000e+01
3.272300000000000000e+04,-6.999999999999999387e-05,-1.000000000000000048e-04,-6.999999999999999387e-05,-1.000000000000000048e-04,-1.499999999999999869e-04,5.000000000000000240e-05,2.600000000000000314e-04,5.000000000000000240e-05,2.000000000000000000e+00,1.500000000000000000e+01
3.272400000000000000e+04,-6.999999999999999387e-05,-1.000000000000000048e-04,-6.999999999999999387e-05,-1.000000000000000048e-04,-1.499999999999999869e-04,5.000000000000000240e-05,2.600000000000000314e-04,5.000000000000000240e-05,2.000000000000000000e+00,1.500000000000000000e+01
3.272500000000000000e+04,-6.999999999999999387e-05,-1.000000000000000048e-04,-6.999999999999999387e-05,-1.000000000000000048e-04,-1.499999999999999869e-04,5.000000000000000240e-05,2.600000000000000314e-04,5.000000000000000240e-05,2.000000000000000000e+00,1.500000000000000000e+01
3.272600000000000000e+04,-6.999999999999999387e-05,-1.000000000000000048e-04,-6.999999999999999387e-05,-1.000000000000000048e-04,-1.499999999999999869e-04,5.000000000000000240e-05,2.600000000000000314e-04,5.000000000000000240e-05,2.000000000000000000e+00,1.500000000000000000e+01
3.272700000000000000e+04,-6.999999999999999387e-05,-1.000000000000000048e-04,-6.999999999999999387e-05,-1.000000000000000048e-04,-1.499999999999999869e-04,5.000000000000000240e-05,2.600000000000000314e-04,5.000000000000000240e-05,2.000000000000000000e+00,1.500000000000000000e+01
3.272800000000000000e+04,-6.999999999999999387e-05,-1.000000000000000048e-04,-6.999999999999999387e-05,-1.000000000000000048e-04,-1.499999999999999869e-04,5.000000000000000240e-05,2.600000000000000314e-04,5.000000000000000240e-05,2.000000000000000000e+00,1.500000000000000000e+01
3.272900000000000000e+04,-6.999999999999999387e-05,-1.000000000000000048e-04,-6.999999999999999387e-05,-1.000000000000000048e-04,-1.499999999999999869e-04,5.000000000000000240e-05,2.600000000000000314e-04,5.000000000000000240e-05,2.000000000000000000e+00,1.500000000000000000e+01
3.273000000000000000e+04,-6.999999999999999387e-05,-1.000000000000000048e-04,-6.999999999999999387e-05,-1.000000000000000048e-04,-1.499999999999999869e-04,5.000000000000000240e-05,2.600000000000000314e-04,5.000000000000000240e-05,2.000000000000000000e+00,1.500000000000000000e+01
3.273100000000000000e+04,-6.999999999999999387e-05,-1.000000000000000048e-04,-6.999999999999999387e-05,-1.000000000000000048e-04,-1.499999999999999869e-04,5.000000000000000240e-05,2.600000000000000314e-04,5.000000000000000240e-05,2.000000000000000000e+00,1.500000000000000000e+01
3.273200000000000000e+04,-6.999999999999999387e-05,-1.000000000000000048e-04,-6.999999999999999387e-05,-1.000000000000000048e-04,-1.499999999999999869e-04,5.000000000000000240e-05,2.600000000000000314e-04,5.000000000000000240e-05,2.000000000000000000e+00,1.500000000000000000e+01
3.273300000000000000e+04,-1.000000000000000048e-04,2.000000000000000164e-05,-2.000000000000000164e-05,1.499999999999999869e-04,3.200000000000000262e-04,-2.999999999999999737e-05,2.600000000000000314e-04,-2.500000000000000052e-04,2.000000000000000000e+00,1.500000000000000000e+01
3.273400000000000000e+04,-2.000000000000000164e-05,9.000000000000000567e-05,1.499999999999999869e-04,5.999999999999999474e-05,-2.399999999999999790e-04,-1.100000000000000039e-04,-1.699999999999999851e-04,-5.000000000000000240e-05,2.000000000000000000e+00,1.500000000000000000e+01
3.273500000000000000e+04,-2.000000000000000164e-05,9.000000000000000567e-05,1.499999999999999869e-04,5.999999999999999474e-05,-2.399999999999999790e-04,-1.100000000000000039e-04,-1.699999999999999851e-04,-5.000000000000000240e-05,2.000000000000000000e+00,1.500000000000000000e+01
3.273600000000000000e+04,-2.000000000000000164e-05,9.000000000000000567e-05,1.499999999999999869e-04,5.999999999999999474e-05,-2.399999999999999790e-04,-1.100000000000000039e-04,-1.699999999999999851e-04,-5.000000000000000240e-05,2.000000000000000000e+00,1.500000000000000000e+01
3.273800000000000000e+04,-2.000000000000000164e-05,9.000000000000000567e-05,1.499999999999999869e-04,5.999999999999999474e-05,-2.399999999999999790e-04,-1.100000000000000039e-04,-1.699999999999999851e-04,-5.000000000000000240e-05,2.000000000000000000e+00,1.500000000000000000e+01
3.274000000000000000e+04,-6.999999999999999387e-05,2.000000000000000164e-05,2.000000000000000164e-05,5.999999999999999474e-05,-1.499999999999999869e-04,0.000000000000000000e+00,2.399999999999999790e-04,2.000000000000000164e-05,2.000000000000000000e+00,1.500000000000000000e+01
3.274100000000000000e+04,-6.999999999999999387e-05,2.000000000000000164e-05,2.000000000000000164e-05,5.999999999999999474e-05,-1.499999999999999869e-04,0.000000000000000000e+00,2.399999999999999790e-04,2.000000000000000164e-05,2.000000000000000000e+00,1.500000000000000000e+01
3.274200000000000000e+04,-6.999999999999999387e-05,2.000000000000000164e-05,2.000000000000000164e-05,5.999999999999999474e-05,-1.499999999999999869e-04,0.000000000000000000e+00,2.399999999999999790e-04,2.000000000000000164e-05,2.000000000000000000e+00,1.500000000000000000e+01
3.274300000000000000e+04,-6.999999999999999387e-05,2.000000000000000164e-05,2.000000000000000164e-05,5.999999999999999474e-05,-1.499999999999999869e-04,0.000000000000000000e+00,2.399999999999999790e-04,2.000000000000000164e-05,2.000000000000000000e+00,1.500000000000000000e+01
3.274400000000000000e+04,-6.999999999999999387e-05,2.000000000000000164e-05,2.000000000000000164e-05,5.999999999999999474e-05,-1.499999999999999869e-04,0.000000000000000000e+00,2.399999999999999790e-04,2.000000000000000164e-05,2.000000000000000000e+00,1.500000000000000000e+01
3.274500000000000000e+04,-6.999999999999999387e-05,2.000000000000000164e-05,2.000000000000000164e-05,5.999999999999999474e-05,-1.499999999999999869e-04,0.000000000000000000e+00,2.399999999999999790e-04,2.000000000000000164e-05,2.000000000000000000e+00,1.500000000000000000e+01
3.274600000000000000e+04,-6.999999999999999387e-05,2.000000000000000164e-05,2.000000000000000164e-05,5.999999999999999474e-05,-1.499999999999999869e-04,0.000000000000000000e+00,2.399999999999999790e-04,2.000000000000000164e-05,2.000000000000000000e+00,1.500000000000000000e+01
3.274700000000000000e+04,-6.999999999999999387e-05,2.000000000000000164e-05,2.000000000000000164e-05,5.999999999999999474e-05,-1.499999999999999869e-04,0.000000000000000000e+00,2.399999999999999790e-04,2.000000000000000164e-05,2.000000000000000000e+00,1.500000000000000000e+01
3.274800000000000000e+04,-6.999999999999999387e-05,2.000000000000000164e-05,2.000000000000000164e-05,5.999999999999999474e-05,-1.499999999999999869e-04,0.000000000000000000e+00,2.399999999999999790e-04,2.000000000000000164e-05,2.000000000000000000e+00,1.500000000000000000e+01
3.274900000000000000e+04,-6.999999999999999387e-05,2.000000000000000164e-05,2.000000000000000164e-05,5.999999999999999474e-05,-1.499999999999999869e-04,0.000000000000000000e+00,2.399999999999999790e-04,2.000000000000000164e-05,2.000000000000000000e+00,1.500000000000000000e+01
3.275000000000000000e+04,-6.999999999999999387e-05,2.000000000000000164e-05,2.000000000000000164e-05,5.999999999999999474e-05,-1.499999999999999869e-04,0.000000000000000000e+00,2.399999999999999790e-04,2.000000000000000164e-05,2.000000000000000000e+00,1.500000000000000000e+01
3.275100000000000000e+04,-6.999999999999999387e-05,2.000000000000000164e-05,2.000000000000000164e-05,5.999999999999999474e-05,-1.499999999999999869e-04,0.000000000000000000e+00,2.399999999999999790e-04,2.000000000000000164e-05,2.000000000000000000e+00,1.500000000000000000e+01
3.275200000000000000e+04,-6.999999999999999387e-05,2.000000000000000164e-05,2.000000000000000164e-05,5.999999999999999474e-05,-1.499999999999999869e-04,0.000000000000000000e+00,2.399999999999999790e-04,2.000000000000000164e-05,2.000000000000000000e+00,1.500000000000000000e+01
3.275300000000000000e+04,-6.999999999999999387e-05,2.000000000000000164e-05,2.000000000000000164e-05,5.999999999999999474e-05,-1.499999999999999869e-04,0.000000000000000000e+00,2.399999999999999790e-04,2.000000000000000164e-05,2.000000000000000000e+00,1.500000000000000000e+01
3.275400000000000000e+04,-6.999999999999999387e-05,2.000000000000000164e-05,2.000000000000000164e-05,5.999999999999999474e-05,-1.499999999999999869e-04,0.000000000000000000e+00,2.399999999999999790e-04,2.000000000000000164e-05,2.000000000000000000e+00,1.500000000000000000e+01
3.275500000000000000e+04,-6.999999999999999387e-05,2.000000000000000164e-05,2.000000000000000164e-05,5.999999999999999474e-05,-1.499999999999999869e-04,0.000000000000000000e+00,2.399999999999999790e-04,2.000000000000000164e-05,2.000000000000000000e+00,1.500000000000000000e+01
3.275600000000000000e+04,-2.000000000000000164e-05,1.000000000000000082e-05,-5.999999999999999474e-05,5.999999999999999474e-05,-1.600000000000000131e-04,-8.000000000000000654e-05,1.300000000000000157e-04,1.000000000000000082e-05,2.000000000000000000e+00,1.500000000000000000e+01
3.275700000000000000e+04,-2.000000000000000164e-05,1.000000000000000082e-05,-5.999999999999999474e-05,5.999999999999999474e-05,-1.600000000000000131e-04,-8.000000000000000654e-05,1.300000000000000157e-04,1.000000000000000082e-05,2.000000000000000000e+00,1.500000000000000000e+01
3.275800000000000000e+04,6.999999999999999387e-05,-1.000000000000000082e-05,-1.199999999999999895e-04,1.000000000000000082e-05,6.999999999999999387e-05,-4.000000000000000327e-05,-2.600000000000000314e-04,-2.999999999999999737e-05,2.000000000000000000e+00,1.500000000000000000e+01
3.275900000000000000e+04,6.999999999999999387e-05,-1.000000000000000082e-05,-1.199999999999999895e-04,1.000000000000000082e-05,6.999999999999999387e-05,-4.000000000000000327e-05,-2.600000000000000314e-04,-2.999999999999999737e-05,2.000000000000000000e+00,1.500000000000000000e+01
3.276000000000000000e+04,6.999999999999999387e-05,-1.000000000000000082e-05,-1.199999999999999895e-04,1.000000000000000082e-05,6.999999999999999387e-05,-4.000000000000000327e-05,-2.600000000000000314e-04,-2.999999999999999737e-05,2.000000000000000000e+00,1.500000000000000000e+01
3.276100000000000000e+04,6.999999999999999387e-05,-1.000000000000000082e-05,-1.199999999999999895e-04,1.000000000000000082e-05,6.999999999999999387e-05,-4.000000000000000327e-05,-2.600000000000000314e-04,-2.999999999999999737e-05,2.000000000000000000e+00,1.500000000000000000e+01
3.276200000000000000e+04,6.999999999999999387e-05,-1.000000000000000082e-05,-1.199999999999999895e-04,1.000000000000000082e-05,6.999999999999999387e-05,-4.000000000000000327e-05,-2.600000000000000314e-04,-2.999999999999999737e-05,2.000000000000000000e+00,1.500000000000000000e+01
3.276300000000000000e+04,6.999999999999999387e-05,-1.000000000000000082e-05,-1.199999999999999895e-04,1.000000000000000082e-05,6.999999999999999387e-05,-4.000000000000000327e-05,-2.600000000000000314e-04,-2.999999999999999737e-05,2.000000000000000000e+00,1.500000000000000000e+01
3.276400000000000000e+04,6.999999999999999387e-05,-1.000000000000000082e-05,-1.199999999999999895e-04,1.000000000000000082e-05,6.999999999999999387e-05,-4.000000000000000327e-05,-2.600000000000000314e-04,-2.999999999999999737e-05,2.000000000000000000e+00,1.500000000000000000e+01
3.276500000000000000e+04,6.999999999999999387e-05,-1.000000000000000082e-05,-1.199999999999999895e-04,1.000000000000000082e-05,6.999999999999999387e-05,-4.000000000000000327e-05,-2.600000000000000314e-04,-2.999999999999999737e-05,2.000000000000000000e+00,1.500000000000000000e+01
3.276600000000000000e+04,6.999999999999999387e-05,-1.000000000000000082e-05,-1.199999999999999895e-04,1.000000000000000082e-05,6.999999999999999387e-05,-4.000000000000000327e-05,-2.600000000000000314e-04,-2.999999999999999737e-05,2.000000000000000000e+00,1.500000000000000000e+01
3.276700000000000000e+04,6.999999999999999387e-05,-1.000000000000000082e-05,-1.199999999999999895e-04,1.000000000000000082e-05,6.999999999999999387e-05,-4.000000000000000327e-05,-2.600000000000000314e-04,-2.999999999999999737e-05,2.000000000000000000e+00,1.500000000000000000e+01
3.276800000000000000e+04,6.999999999999999387e-05,-1.000000000000000082e-05,-1.199999999999999895e-04,1.000000000000000082e-05,6.999999999999999387e-05,-4.000000000000000327e-05,-2.600000000000000314e-04,-2.999999999999999737e-05,2.000000000000000000e+00,1.500000000000000000e+01
3.276900000000000000e+04,6.999999999999999387e-05,-1.000000000000000082e-05,-1.199999999999999895e-04,1.000000000000000082e-05,6.999999999999999387e-05,-4.000000000000000327e-05,-2.600000000000000314e-04,-2.999999999999999737e-05,2.000000000000000000e+00,1.500000000000000000e+01
3.277000000000000000e+04,1.000000000000000048e-04,0.000000000000000000e+00,2.999999999999999737e-05,6.999999999999999387e-05,-5.000000000000000240e-05,6.999999999999999387e-05,3.600000000000000227e-04,4.000000000000000327e-05,2.000000000000000000e+00,1.500000000000000000e+01
3.277100000000000000e+04,2.000000000000000164e-05,4.000000000000000327e-05,1.000000000000000082e-05,1.000000000000000082e-05,-2.999999999999999737e-05,1.000000000000000082e-05,-2.600000000000000314e-04,-5.999999999999999474e-05,2.000000000000000000e+00,1.500000000000000000e+01
3.277200000000000000e+04,2.000000000000000164e-05,4.000000000000000327e-05,1.000000000000000082e-05,1.000000000000000082e-05,-2.999999999999999737e-05,1.000000000000000082e-05,-2.600000000000000314e-04,-5.999999999999999474e-05,2.000000000000000000e+00,1.500000000000000000e+01
3.277300000000000000e+04,2.000000000000000164e-05,4.000000000000000327e-05,1.000000000000000082e-05,1.000000000000000082e-05,-2.999999999999999737e-05,1.000000000000000082e-05,-2.600000000000000314e-04,-5.999999999999999474e-05,2.000000000000000000e+00,1.500000000000000000e+01
3.277400000000000000e+04,2.000000000000000164e-05,4.000000000000000327e-05,1.000000000000000082e-05,1.000000000000000082e-05,-2.999999999999999737e-05,1.000000000000000082e-05,-2.600000000000000314e-04,-5.999999999999999474e-05,2.000000000000000000e+00,1.500000000000000000e+01
3.277500000000000000e+04,2.000000000000000164e-05,4.000000000000000327e-05,1.000000000000000082e-05,1.000000000000000082e-05,-2.999999999999999737e-05,1.000000000000000082e-05,-2.600000000000000314e-04,-5.999999999999999474e-05,2.000000000000000000e+00,1.500000000000000000e+01
3.277600000000000000e+04,2.000000000000000164e-05,4.000000000000000327e-05,1.000000000000000082e-05,1.000000000000000082e-05,-2.999999999999999737e-05,1.000000000000000082e-05,-2.600000000000000314e-04,-5.999999999999999474e-05,2.000000000000000000e+00,1.500000000000000000e+01
3.277700000000000000e+04,2.200000000000000078e-04,1.100000000000000039e-04,-1.800000000000000113e-04,8.000000000000000654e-05,2.000000000000000096e-04,5.699999999999999772e-04,1.010000000000000047e-03,4.099999999999999912e-04,2.000000000000000000e+00,1.500000000000000000e+01
3.277800000000000000e+04,2.200000000000000078e-04,1.100000000000000039e-04,-1.800000000000000113e-04,8.000000000000000654e-05,2.000000000000000096e-04,5.699999999999999772e-04,1.010000000000000047e-03,4.099999999999999912e-04,2.000000000000000000e+00,1.500000000000000000e+01
3.277900000000000000e+04,2.200000000000000078e-04,1.100000000000000039e-04,-1.800000000000000113e-04,8.000000000000000654e-05,2.000000000000000096e-04,5.699999999999999772e-04,1.010000000000000047e-03,4.099999999999999912e-04,2.000000000000000000e+00,1.500000000000000000e+01
3.278000000000000000e+04,2.200000000000000078e-04,1.100000000000000039e-04,-1.800000000000000113e-04,8.000000000000000654e-05,2.000000000000000096e-04,5.699999999999999772e-04,1.010000000000000047e-03,4.099999999999999912e-04,2.000000000000000000e+00,1.500000000000000000e+01
3.278100000000000000e+04,2.200000000000000078e-04,1.100000000000000039e-04,-1.800000000000000113e-04,8.000000000000000654e-05,2.000000000000000096e-04,5.699999999999999772e-04,1.010000000000000047e-03,4.099999999999999912e-04,2.000000000000000000e+00,1.500000000000000000e+01
3.278200000000000000e+04,2.200000000000000078e-04,1.100000000000000039e-04,-1.800000000000000113e-04,8.000000000000000654e-05,2.000000000000000096e-04,5.699999999999999772e-04,1.010000000000000047e-03,4.099999999999999912e-04,2.000000000000000000e+00,1.500000000000000000e+01
3.278300000000000000e+04,2.200000000000000078e-04,1.100000000000000039e-04,-1.800000000000000113e-04,8.000000000000000654e-05,2.000000000000000096e-04,5.699999999999999772e-04,1.010000000000000047e-03,4.099999999999999912e-04,2.000000000000000000e+00,1.500000000000000000e+01
3.278400000000000000e+04,2.200000000000000078e-04,1.100000000000000039e-04,-1.800000000000000113e-04,8.000000000000000654e-05,2.000000000000000096e-04,5.699999999999999772e-04,1.010000000000000047e-03,4.099999999999999912e-04,2.000000000000000000e+00,1.500000000000000000e+01
3.278500000000000000e+04,2.200000000000000078e-04,1.100000000000000039e-04,-1.800000000000000113e-04,8.000000000000000654e-05,2.000000000000000096e-04,5.699999999999999772e-04,1.010000000000000047e-03,4.099999999999999912e-04,2.000000000000000000e+00,1.500000000000000000e+01
