2.886700000000000000e+04,-4.099999999999999912e-04,-1.499999999999999869e-04,-2.000000000000000164e-05,3.200000000000000262e-04,-3.399999999999999702e-04,-5.200000000000000629e-04,-2.299999999999999799e-04,-9.199999999999999194e-04,2.000000000000000000e+00,1.400000000000000000e+01
2.886800000000000000e+04,-4.099999999999999912e-04,-1.499999999999999869e-04,-2.000000000000000164e-05,3.200000000000000262e-04,-3.399999999999999702e-04,-5.200000000000000629e-04,-2.299999999999999799e-04,-9.199999999999999194e-04,2.000000000000000000e+00,1.400000000000000000e+01
2.886900000000000000e+04,-4.099999999999999912e-04,-1.499999999999999869e-04,-2.000000000000000164e-05,3.200000000000000262e-04,-3.399999999999999702e-04,-5.200000000000000629e-04,-2.299999999999999799e-04,-9.199999999999999194e-04,2.000000000000000000e+00,1.400000000000000000e+01
2.887000000000000000e+04,-4.099999999999999912e-04,-1.499999999999999869e-04,-2.000000000000000164e-05,3.200000000000000262e-04,-3.399999999999999702e-04,-5.200000000000000629e-04,-2.299999999999999799e-04,-9.199999999999999194e-04,2.000000000000000000e+00,1.400000000000000000e+01
2.887100000000000000e+04,-4.099999999999999912e-04,-1.499999999999999869e-04,-2.000000000000000164e-05,3.200000000000000262e-04,-3.399999999999999702e-04,-5.200000000000000629e-04,-2.299999999999999799e-04,-9.199999999999999194e-04,2.000000000000000000e+00,1.400000000000000000e+01
2.887200000000000000e+04,-1.899999999999999834e-04,-1.899999999999999834e-04,-1.499999999999999869e-04,-4.799999999999999580e-04,-1.399999999999999877e-04,-4.000000000000000192e-04,-1.399999999999999877e-04,-5.000000000000000104e-04,2.000000000000000000e+00,1.400000000000000000e+01
2.887300000000000000e+04,-1.899999999999999834e-04,-1.899999999999999834e-04,-1.499999999999999869e-04,-4.799999999999999580e-04,-1.399999999999999877e-04,-4.000000000000000192e-04,-1.399999999999999877e-04,-5.000000000000000104e-04,2.000000000000000000e+00,1.400000000000000000e+01
2.887400000000000000e+04,-1.899999999999999834e-04,-1.899999999999999834e-04,-1.499999999999999869e-04,-4.799999999999999580e-04,-1.399999999999999877e-04,-4.000000000000000192e-04,-1.399999999999999877e-04,-5.000000000000000104e-04,2.000000000000000000e+00,1.400000000000000000e+01
2.887500000000000000e+04,-1.899999999999999834e-04,-1.899999999999999834e-04,-1.499999999999999869e-04,-4.799999999999999580e-04,-1.399999999999999877e-04,-4.000000000000000192e-04,-1.399999999999999877e-04,-5.000000000000000104e-04,2.000000000000000000e+00,1.400000000000000000e+01
2.887600000000000000e+04,-1.899999999999999834e-04,-1.899999999999999834e-04,-1.499999999999999869e-04,-4.799999999999999580e-04,-1.399999999999999877e-04,-4.000000000000000192e-04,-1.399999999999999877e-04,-5.000000000000000104e-04,2.000000000000000000e+00,1.400000000000000000e+01
2.887700000000000000e+04,-1.899999999999999834e-04,-1.899999999999999834e-04,-1.499999999999999869e-04,-4.799999999999999580e-04,-1.399999999999999877e-04,-4.000000000000000192e-04,-1.399999999999999877e-04,-5.000000000000000104e-04,2.000000000000000000e+00,1.400000000000000000e+01
2.887800000000000000e+04,-1.899999999999999834e-04,-1.899999999999999834e-04,-1.499999999999999869e-04,-4.799999999999999580e-04,-1.399999999999999877e-04,-4.000000000000000192e-04,-1.399999999999999877e-04,-5.000000000000000104e-04,2.000000000000000000e+00,1.400000000000000000e+01
2.887900000000000000e+04,-1.899999999999999834e-04,-1.899999999999999834e-04,-1.499999999999999869e-04,-4.799999999999999580e-04,-1.399999999999999877e-04,-4.000000000000000192e-04,-1.399999999999999877e-04,-5.000000000000000104e-04,2.000000000000000000e+00,1.400000000000000000e+01
2.888000000000000000e+04,-1.899999999999999834e-04,-1.899999999999999834e-04,-1.499999999999999869e-04,-4.799999999999999580e-04,-1.399999999999999877e-04,-4.000000000000000192e-04,-1.399999999999999877e-04,-5.000000000000000104e-04,2.000000000000000000e+00,1.400000000000000000e+01
2.888100000000000000e+04,-1.899999999999999834e-04,-1.899999999999999834e-04,-1.499999999999999869e-04,-4.799999999999999580e-04,-1.399999999999999877e-04,-4.000000000000000192e-04,-1.399999999999999877e-04,-5.000000000000000104e-04,2.000000000000000000e+00,1.400000000000000000e+01
2.888200000000000000e+04,-1.899999999999999834e-04,-1.899999999999999834e-04,-1.499999999999999869e-04,-4.799999999999999580e-04,-1.399999999999999877e-04,-4.000000000000000192e-04,-1.399999999999999877e-04,-5.000000000000000104e-04,2.000000000000000000e+00,1.400000000000000000e+01
2.888300000000000000e+04,-1.899999999999999834e-04,-1.899999999999999834e-04,-1.499999999999999869e-04,-4.799999999999999580e-04,-1.399999999999999877e-04,-4.000000000000000192e-04,-1.399999999999999877e-04,-5.000000000000000104e-04,2.000000000000000000e+00,1.400000000000000000e+01
2.888400000000000000e+04,-1.899999999999999834e-04,-1.899999999999999834e-04,-1.499999999999999869e-04,-4.799999999999999580e-04,-1.399999999999999877e-04,-4.000000000000000192e-04,-1.399999999999999877e-04,-5.000000000000000104e-04,2.000000000000000000e+00,1.400000000000000000e+01
2.888500000000000000e+04,-1.899999999999999834e-04,-1.899999999999999834e-04,-1.499999999999999869e-04,-4.799999999999999580e-04,-1.399999999999999877e-04,-4.000000000000000192e-04,-1.399999999999999877e-04,-5.000000000000000104e-04,2.000000000000000000e+00,1.400000000000000000e+01
2.888600000000000000e+04,-1.899999999999999834e-04,-1.899999999999999834e-04,-1.499999999999999869e-04,-4.799999999999999580e-04,-1.399999999999999877e-04,-4.000000000000000192e-04,-1.399999999999999877e-04,-5.000000000000000104e-04,2.000000000000000000e+00,1.400000000000000000e+01
2.888900000000000000e+04,-3.499999999999999964e-04,-5.999999999999999474e-05,-2.200000000000000078e-04,-4.000000000000000192e-04,-1.300000000000000157e-04,-1.499999999999999869e-04,-2.799999999999999755e-04,-1.000000000000000082e-05,2.000000000000000000e+00,1.400000000000000000e+01
2.889000000000000000e+04,-1.699999999999999851e-04,1.000000000000000048e-04,2.999999999999999737e-05,5.400000000000000069e-04,8.000000000000000654e-05,2.200000000000000078e-04,-1.499999999999999869e-04,-6.599999999999999964e-04,2.000000000000000000e+00,1.400000000000000000e+01
2.889100000000000000e+04,-1.699999999999999851e-04,1.000000000000000048e-04,2.999999999999999737e-05,5.400000000000000069e-04,8.000000000000000654e-05,2.200000000000000078e-04,-1.499999999999999869e-04,-6.599999999999999964e-04,2.000000000000000000e+00,1.400000000000000000e+01
2.889200000000000000e+04,-1.699999999999999851e-04,1.000000000000000048e-04,2.999999999999999737e-05,5.400000000000000069e-04,8.000000000000000654e-05,2.200000000000000078e-04,-1.499999999999999869e-04,-6.599999999999999964e-04,2.000000000000000000e+00,1.400000000000000000e+01
2.889300000000000000e+04,-1.699999999999999851e-04,1.000000000000000048e-04,2.999999999999999737e-05,5.400000000000000069e-04,8.000000000000000654e-05,2.200000000000000078e-04,-1.499999999999999869e-04,-6.599999999999999964e-04,2.000000000000000000e+00,1.400000000000000000e+01
2.889500000000000000e+04,-1.699999999999999851e-04,1.000000000000000048e-04,2.999999999999999737e-05,5.400000000000000069e-04,8.000000000000000654e-05,2.200000000000000078e-04,-1.499999999999999869e-04,-6.599999999999999964e-04,2.000000000000000000e+00,1.400000000000000000e+01
2.889600000000000000e+04,-1.699999999999999851e-04,1.000000000000000048e-04,2.999999999999999737e-05,5.400000000000000069e-04,8.000000000000000654e-05,2.200000000000000078e-04,-1.499999999999999869e-04,-6.599999999999999964e-04,2.000000000000000000e+00,1.400000000000000000e+01
2.889700000000000000e+04,-1.699999999999999851e-04,1.000000000000000048e-04,2.999999999999999737e-05,5.400000000000000069e-04,8.000000000000000654e-05,2.200000000000000078e-04,-1.499999999999999869e-04,-6.599999999999999964e-04,2.000000000000000000e+00,1.400000000000000000e+01
2.889800000000000000e+04,-1.699999999999999851e-04,1.000000000000000048e-04,2.999999999999999737e-05,5.400000000000000069e-04,8.000000000000000654e-05,2.200000000000000078e-04,-1.499999999999999869e-04,-6.599999999999999964e-04,2.000000000000000000e+00,1.400000000000000000e+01
2.889900000000000000e+04,-1.699999999999999851e-04,1.000000000000000048e-04,2.999999999999999737e-05,5.400000000000000069e-04,8.000000000000000654e-05,2.200000000000000078e-04,-1.499999999999999869e-04,-6.599999999999999964e-04,2.000000000000000000e+00,1.400000000000000000e+01
2.890000000000000000e+04,-1.699999999999999851e-04,1.000000000000000048e-04,2.999999999999999737e-05,5.400000000000000069e-04,8.000000000000000654e-05,2.200000000000000078e-04,-1.499999999999999869e-04,-6.599999999999999964e-04,2.000000000000000000e+00,1.400000000000000000e+01
2.890100000000000000e+04,-1.699999999999999851e-04,1.000000000000000048e-04,2.999999999999999737e-05,5.400000000000000069e-04,8.000000000000000654e-05,2.200000000000000078e-04,-1.499999999999999869e-04,-6.599999999999999964e-04,2.000000000000000000e+00,1.400000000000000000e+01
2.890200000000000000e+04,-1.699999999999999851e-04,1.000000000000000048e-04,2.999999999999999737e-05,5.400000000000000069e-04,8.000000000000000654e-05,2.200000000000000078e-04,-1.499999999999999869e-04,-6.599999999999999964e-04,2.000000000000000000e+00,1.400000000000000000e+01
2.890300000000000000e+04,-1.699999999999999851e-04,1.000000000000000048e-04,2.999999999999999737e-05,5.400000000000000069e-04,8.000000000000000654e-05,2.200000000000000078e-04,-1.499999999999999869e-04,-6.599999999999999964e-04,2.000000000000000000e+00,1.400000000000000000e+01
2.890400000000000000e+04,-1.699999999999999851e-04,1.000000000000000048e-04,2.999999999999999737e-05,5.400000000000000069e-04,8.000000000000000654e-05,2.200000000000000078e-04,-1.499999999999999869e-04,-6.599999999999999964e-04,2.000000000000000000e+00,1.400000000000000000e+01
2.890500000000000000e+04,-1.699999999999999851e-04,1.000000000000000048e-04,2.999999999999999737e-05,5.400000000000000069e-04,8.000000000000000654e-05,2.200000000000000078e-04,-1.499999999999999869e-04,-6.599999999999999964e-04,2.000000000000000000e+00,1.400000000000000000e+01
2.890600000000000000e+04,-1.699999999999999851e-04,1.000000000000000048e-04,2.999999999999999737e-05,5.400000000000000069e-04,8.000000000000000654e-05,2.200000000000000078e-04,-1.499999999999999869e-04,-6.599999999999999964e-04,2.000000000000000000e+00,1.400000000000000000e+01
2.890700000000000000e+04,-1.699999999999999851e-04,1.000000000000000048e-04,2.999999999999999737e-05,5.400000000000000069e-04,8.000000000000000654e-05,2.200000000000000078e-04,-1.499999999999999869e-04,-6.599999999999999964e-04,2.000000000000000000e+00,1.400000000000000000e+01
2.890800000000000000e+04,-1.699999999999999851e-04,1.000000000000000048e-04,2.999999999999999737e-05,5.400000000000000069e-04,8.000000000000000654e-05,2.200000000000000078e-04,-1.499999999999999869e-04,-6.599999999999999964e-04,2.000000000000000000e+00,1.400000000000000000e+01
2.890900000000000000e+04,-1.699999999999999851e-04,1.000000000000000048e-04,2.999999999999999737e-05,5.400000000000000069e-04,8.000000000000000654e-05,2.200000000000000078e-04,-1.499999999999999869e-04,-6.599999999999999964e-04,2.000000000000000000e+00,1.400000000000000000e+01
2.891000000000000000e+04,-4.400000000000000157e-04,-1.300000000000000157e-04,4.000000000000000327e-05,-6.999999999999999387e-05,9.000000000000000567e-05,1.800000000000000113e-04,2.100000000000000087e-04,2.999999999999999737e-05,2.000000000000000000e+00,1.400000000000000000e+01
2.891100000000000000e+04,1.399999999999999877e-04,-9.000000000000000567e-05,-1.199999999999999895e-04,-1.499999999999999869e-04,-9.000000000000000567e-05,-4.899999999999999842e-04,-5.900000000000000296e-04,-6.199999999999999999e-04,2.000000000000000000e+00,1.400000000000000000e+01
2.891200000000000000e+04,1.399999999999999877e-04,-9.000000000000000567e-05,-1.199999999999999895e-04,-1.499999999999999869e-04,-9.000000000000000567e-05,-4.899999999999999842e-04,-5.900000000000000296e-04,-6.199999999999999999e-04,2.000000000000000000e+00,1.400000000000000000e+01
2.891300000000000000e+04,5.000000000000000104e-04,2.500000000000000052e-04,6.999999999999999387e-05,2.000000000000000096e-04,-8.000000000000000654e-05,-8.000000000000000654e-05,-5.000000000000000240e-05,1.199999999999999895e-04,2.000000000000000000e+00,1.400000000000000000e+01
2.891500000000000000e+04,5.000000000000000104e-04,2.500000000000000052e-04,6.999999999999999387e-05,2.000000000000000096e-04,-8.000000000000000654e-05,-8.000000000000000654e-05,-5.000000000000000240e-05,1.199999999999999895e-04,2.000000000000000000e+00,1.400000000000000000e+01
2.891600000000000000e+04,5.000000000000000104e-04,2.500000000000000052e-04,6.999999999999999387e-05,2.000000000000000096e-04,-8.000000000000000654e-05,-8.000000000000000654e-05,-5.000000000000000240e-05,1.199999999999999895e-04,2.000000000000000000e+00,1.400000000000000000e+01
2.891700000000000000e+04,5.000000000000000104e-04,2.500000000000000052e-04,6.999999999999999387e-05,2.000000000000000096e-04,-8.000000000000000654e-05,-8.000000000000000654e-05,-5.000000000000000240e-05,1.199999999999999895e-04,2.000000000000000000e+00,1.400000000000000000e+01
2.891800000000000000e+04,5.000000000000000104e-04,2.500000000000000052e-04,6.999999999999999387e-05,2.000000000000000096e-04,-8.000000000000000654e-05,-8.000000000000000654e-05,-5.000000000000000240e-05,1.199999999999999895e-04,2.000000000000000000e+00,1.400000000000000000e+01
2.891900000000000000e+04,5.000000000000000104e-04,2.500000000000000052e-04,6.999999999999999387e-05,2.000000000000000096e-04,-8.000000000000000654e-05,-8.000000000000000654e-05,-5.000000000000000240e-05,1.199999999999999895e-04,2.000000000000000000e+00,1.400000000000000000e+01
2.892000000000000000e+04,5.000000000000000104e-04,2.500000000000000052e-04,6.999999999999999387e-05,2.000000000000000096e-04,-8.000000000000000654e-05,-8.000000000000000654e-05,-5.000000000000000240e-05,1.199999999999999895e-04,2.000000000000000000e+00,1.400000000000000000e+01
2.892100000000000000e+04,5.000000000000000104e-04,2.500000000000000052e-04,6.999999999999999387e-05,2.000000000000000096e-04,-8.000000000000000654e-05,-8.000000000000000654e-05,-5.000000000000000240e-05,1.199999999999999895e-04,2.000000000000000000e+00,1.400000000000000000e+01
2.892200000000000000e+04,5.000000000000000104e-04,2.500000000000000052e-04,6.999999999999999387e-05,2.000000000000000096e-04,-8.000000000000000654e-05,-8.000000000000000654e-05,-5.000000000000000240e-05,1.199999999999999895e-04,2.000000000000000000e+00,1.400000000000000000e+01
2.892300000000000000e+04,5.000000000000000104e-04,2.500000000000000052e-04,6.999999999999999387e-05,2.000000000000000096e-04,-8.000000000000000654e-05,-8.000000000000000654e-05,-5.000000000000000240e-05,1.199999999999999895e-04,2.000000000000000000e+00,1.400000000000000000e+01
2.892400000000000000e+04,9.400000000000000803e-04,2.999999999999999737e-04,8.000000000000000654e-05,4.000000000000000192e-04,1.399999999999999877e-04,2.600000000000000314e-04,5.200000000000000629e-04,5.999999999999999474e-04,2.000000000000000000e+00,1.400000000000000000e+01
2.892500000000000000e+04,9.400000000000000803e-04,2.999999999999999737e-04,8.000000000000000654e-05,4.000000000000000192e-04,1.399999999999999877e-04,2.600000000000000314e-04,5.200000000000000629e-04,5.999999999999999474e-04,2.000000000000000000e+00,1.400000000000000000e+01
2.892600000000000000e+04,9.400000000000000803e-04,2.999999999999999737e-04,8.000000000000000654e-05,4.000000000000000192e-04,1.399999999999999877e-04,2.600000000000000314e-04,5.200000000000000629e-04,5.999999999999999474e-04,2.000000000000000000e+00,1.400000000000000000e+01
2.892700000000000000e+04,9.400000000000000803e-04,2.999999999999999737e-04,8.000000000000000654e-05,4.000000000000000192e-04,1.399999999999999877e-04,2.600000000000000314e-04,5.200000000000000629e-04,5.999999999999999474e-04,2.000000000000000000e+00,1.400000000000000000e+01
2.892800000000000000e+04,9.400000000000000803e-04,2.999999999999999737e-04,8.000000000000000654e-05,4.000000000000000192e-04,1.399999999999999877e-04,2.600000000000000314e-04,5.200000000000000629e-04,5.999999999999999474e-04,2.000000000000000000e+00,1.400000000000000000e+01
2.892900000000000000e+04,9.400000000000000803e-04,2.999999999999999737e-04,8.000000000000000654e-05,4.000000000000000192e-04,1.399999999999999877e-04,2.600000000000000314e-04,5.200000000000000629e-04,5.999999999999999474e-04,2.000000000000000000e+00,1.400000000000000000e+01
2.893000000000000000e+04,9.400000000000000803e-04,2.999999999999999737e-04,8.000000000000000654e-05,4.000000000000000192e-04,1.399999999999999877e-04,2.600000000000000314e-04,5.200000000000000629e-04,5.999999999999999474e-04,2.000000000000000000e+00,1.400000000000000000e+01
2.893100000000000000e+04,9.400000000000000803e-04,2.999999999999999737e-04,8.000000000000000654e-05,4.000000000000000192e-04,1.399999999999999877e-04,2.600000000000000314e-04,5.200000000000000629e-04,5.999999999999999474e-04,2.000000000000000000e+00,1.400000000000000000e+01
2.893200000000000000e+04,-4.599999999999999597e-04,-2.700000000000000035e-04,-1.000000000000000082e-05,-1.499999999999999869e-04,-4.000000000000000327e-05,2.200000000000000078e-04,-1.600000000000000131e-04,-7.599999999999999334e-04,2.000000000000000000e+00,1.400000000000000000e+01
2.893300000000000000e+04,-4.599999999999999597e-04,-2.700000000000000035e-04,-1.000000000000000082e-05,-1.499999999999999869e-04,-4.000000000000000327e-05,2.200000000000000078e-04,-1.600000000000000131e-04,-7.599999999999999334e-04,2.000000000000000000e+00,1.400000000000000000e+01
2.893400000000000000e+04,-4.599999999999999597e-04,-2.700000000000000035e-04,-1.000000000000000082e-05,-1.499999999999999869e-04,-4.000000000000000327e-05,2.200000000000000078e-04,-1.600000000000000131e-04,-7.599999999999999334e-04,2.000000000000000000e+00,1.400000000000000000e+01
2.893500000000000000e+04,-4.599999999999999597e-04,-2.700000000000000035e-04,-1.000000000000000082e-05,-1.499999999999999869e-04,-4.000000000000000327e-05,2.200000000000000078e-04,-1.600000000000000131e-04,-7.599999999999999334e-04,2.000000000000000000e+00,1.400000000000000000e+01
2.893600000000000000e+04,-4.599999999999999597e-04,-2.700000000000000035e-04,-1.000000000000000082e-05,-1.499999999999999869e-04,-4.000000000000000327e-05,2.200000000000000078e-04,-1.600000000000000131e-04,-7.599999999999999334e-04,2.000000000000000000e+00,1.400000000000000000e+01
2.893900000000000000e+04,-4.599999999999999597e-04,-2.700000000000000035e-04,-1.000000000000000082e-05,-1.499999999999999869e-04,-4.000000000000000327e-05,2.200000000000000078e-04,-1.600000000000000131e-04,-7.599999999999999334e-04,2.000000000000000000e+00,1.400000000000000000e+01
2.894000000000000000e+04,-4.599999999999999597e-04,-2.700000000000000035e-04,-1.000000000000000082e-05,-1.499999999999999869e-04,-4.000000000000000327e-05,2.200000000000000078e-04,-1.600000000000000131e-04,-7.599999999999999334e-04,2.000000000000000000e+00,1.400000000000000000e+01
2.894100000000000000e+04,-4.599999999999999597e-04,-2.700000000000000035e-04,-1.000000000000000082e-05,-1.499999999999999869e-04,-4.000000000000000327e-05,2.200000000000000078e-04,-1.600000000000000131e-04,-7.599999999999999334e-04,2.000000000000000000e+00,1.400000000000000000e+01
2.894200000000000000e+04,-4.599999999999999597e-04,-2.700000000000000035e-04,-1.000000000000000082e-05,-1.499999999999999869e-04,-4.000000000000000327e-05,2.200000000000000078e-04,-1.600000000000000131e-04,-7.599999999999999334e-04,2.000000000000000000e+00,1.400000000000000000e+01
2.894300000000000000e+04,-4.599999999999999597e-04,-2.700000000000000035e-04,-1.000000000000000082e-05,-1.499999999999999869e-04,-4.000000000000000327e-05,2.200000000000000078e-04,-1.600000000000000131e-04,-7.599999999999999334e-04,2.000000000000000000e+00,1.400000000000000000e+01
2.894400000000000000e+04,-4.599999999999999597e-04,-2.700000000000000035e-04,-1.000000000000000082e-05,-1.499999999999999869e-04,-4.000000000000000327e-05,2.200000000000000078e-04,-1.600000000000000131e-04,-7.599999999999999334e-04,2.000000000000000000e+00,1.400000000000000000e+01
2.894500000000000000e+04,-4.599999999999999597e-04,-2.700000000000000035e-04,-1.000000000000000082e-05,-1.499999999999999869e-04,-4.000000000000000327e-05,2.200000000000000078e-04,-1.600000000000000131e-04,-7.599999999999999334e-04,2.000000000000000000e+00,1.400000000000000000e+01
2.894600000000000000e+04,-4.599999999999999597e-04,-2.700000000000000035e-04,-1.000000000000000082e-05,-1.499999999999999869e-04,-4.000000000000000327e-05,2.200000000000000078e-04,-1.600000000000000131e-04,-7.599999999999999334e-04,2.000000000000000000e+00,1.400000000000000000e+01
2.894700000000000000e+04,-4.599999999999999597e-04,-2.700000000000000035e-04,-1.000000000000000082e-05,-1.499999999999999869e-04,-4.000000000000000327e-05,2.200000000000000078e-04,-1.600000000000000131e-04,-7.599999999999999334e-04,2.000000000000000000e+00,1.400000000000000000e+01
2.894800000000000000e+04,1.000000000000000082e-05,1.000000000000000082e-05,-1.600000000000000131e-04,-4.099999999999999912e-04,-4.000000000000000327e-05,-2.999999999999999737e-04,1.399999999999999877e-04,1.600000000000000131e-04,2.000000000000000000e+00,1.400000000000000000e+01
2.894900000000000000e+04,-8.099999999999999561e-04,-3.200000000000000262e-04,0.000000000000000000e+00,-8.000000000000000654e-05,2.000000000000000164e-05,-2.600000000000000314e-04,-6.799999999999999404e-04,-5.400000000000000069e-04,2.000000000000000000e+00,1.400000000000000000e+01
2.895000000000000000e+04,-8.099999999999999561e-04,-3.200000000000000262e-04,0.000000000000000000e+00,-8.000000000000000654e-05,2.000000000000000164e-05,-2.600000000000000314e-04,-6.799999999999999404e-04,-5.400000000000000069e-04,2.000000000000000000e+00,1.400000000000000000e+01
2.895100000000000000e+04,-8.099999999999999561e-04,-3.200000000000000262e-04,0.000000000000000000e+00,-8.000000000000000654e-05,2.000000000000000164e-05,-2.600000000000000314e-04,-6.799999999999999404e-04,-5.400000000000000069e-04,2.000000000000000000e+00,1.400000000000000000e+01
2.895200000000000000e+04,-8.099999999999999561e-04,-3.200000000000000262e-04,0.000000000000000000e+00,-8.000000000000000654e-05,2.000000000000000164e-05,-2.600000000000000314e-04,-6.799999999999999404e-04,-5.400000000000000069e-04,2.000000000000000000e+00,1.400000000000000000e+01
2.895300000000000000e+04,-8.099999999999999561e-04,-3.200000000000000262e-04,0.000000000000000000e+00,-8.000000000000000654e-05,2.000000000000000164e-05,-2.600000000000000314e-04,-6.799999999999999404e-04,-5.400000000000000069e-04,2.000000000000000000e+00,1.400000000000000000e+01
2.895400000000000000e+04,-8.099999999999999561e-04,-3.200000000000000262e-04,0.000000000000000000e+00,-8.000000000000000654e-05,2.000000000000000164e-05,-2.600000000000000314e-04,-6.799999999999999404e-04,-5.400000000000000069e-04,2.000000000000000000e+00,1.400000000000000000e+01
2.895500000000000000e+04,-3.399999999999999702e-04,-6.999999999999999387e-05,-1.100000000000000039e-04,4.000000000000000327e-05,-2.100000000000000087e-04,-2.299999999999999799e-04,-2.000000000000000164e-05,-8.000000000000000654e-05,2.000000000000000000e+00,1.400000000000000000e+01
2.895600000000000000e+04,-3.399999999999999702e-04,-6.999999999999999387e-05,-1.100000000000000039e-04,4.000000000000000327e-05,-2.100000000000000087e-04,-2.299999999999999799e-04,-2.000000000000000164e-05,-8.000000000000000654e-05,2.000000000000000000e+00,1.400000000000000000e+01
2.895700000000000000e+04,-3.399999999999999702e-04,-6.999999999999999387e-05,-1.100000000000000039e-04,4.000000000000000327e-05,-2.100000000000000087e-04,-2.299999999999999799e-04,-2.000000000000000164e-05,-8.000000000000000654e-05,2.000000000000000000e+00,1.400000000000000000e+01
2.895800000000000000e+04,-3.399999999999999702e-04,-6.999999999999999387e-05,-1.100000000000000039e-04,4.000000000000000327e-05,-2.100000000000000087e-04,-2.299999999999999799e-04,-2.000000000000000164e-05,-8.000000000000000654e-05,2.000000000000000000e+00,1.400000000000000000e+01
2.895900000000000000e+04,-3.399999999999999702e-04,-6.999999999999999387e-05,-1.100000000000000039e-04,4.000000000000000327e-05,-2.100000000000000087e-04,-2.299999999999999799e-04,-2.000000000000000164e-05,-8.000000000000000654e-05,2.000000000000000000e+00,1.400000000000000000e+01
2.896000000000000000e+04,-3.399999999999999702e-04,-6.999999999999999387e-05,-1.100000000000000039e-04,4.000000000000000327e-05,-2.100000000000000087e-04,-2.299999999999999799e-04,-2.000000000000000164e-05,-8.000000000000000654e-05,2.000000000000000000e+00,1.400000000000000000e+01
2.896100000000000000e+04,-3.399999999999999702e-04,-6.999999999999999387e-05,-1.100000000000000039e-04,4.000000000000000327e-05,-2.100000000000000087e-04,-2.299999999999999799e-04,-2.000000000000000164e-05,-8.000000000000000654e-05,2.000000000000000000e+00,1.400000000000000000e+01
2.896200000000000000e+04,-3.399999999999999702e-04,-6.999999999999999387e-05,-1.100000000000000039e-04,4.000000000000000327e-05,-2.100000000000000087e-04,-2.299999999999999799e-04,-2.000000000000000164e-05,-8.000000000000000654e-05,2.000000000000000000e+00,1.400000000000000000e+01
2.896300000000000000e+04,-3.399999999999999702e-04,-6.999999999999999387e-05,-1.100000000000000039e-04,4.000000000000000327e-05,-2.100000000000000087e-04,-2.299999999999999799e-04,-2.000000000000000164e-05,-8.000000000000000654e-05,2.000000000000000000e+00,1.400000000000000000e+01
2.896400000000000000e+04,-3.399999999999999702e-04,-6.999999999999999387e-05,-1.100000000000000039e-04,4.000000000000000327e-05,-2.100000000000000087e-04,-2.299999999999999799e-04,-2.000000000000000164e-05,-8.000000000000000654e-05,2.000000000000000000e+00,1.400000000000000000e+01
2.896500000000000000e+04,-3.399999999999999702e-04,-6.999999999999999387e-05,-1.100000000000000039e-04,4.000000000000000327e-05,-2.100000000000000087e-04,-2.299999999999999799e-04,-2.000000000000000164e-05,-8.000000000000000654e-05,2.000000000000000000e+00,1.400000000000000000e+01
2.896600000000000000e+04,-3.399999999999999702e-04,-6.999999999999999387e-05,-1.100000000000000039e-04,4.000000000000000327e-05,-2.100000000000000087e-04,-2.299999999999999799e-04,-2.000000000000000164e-05,-8.000000000000000654e-05,2.000000000000000000e+00,1.400000000000000000e+01
2.896700000000000000e+04,-3.399999999999999702e-04,-6.999999999999999387e-05,-1.100000000000000039e-04,4.000000000000000327e-05,-2.100000000000000087e-04,-2.299999999999999799e-04,-2.000000000000000164e-05,-8.000000000000000654e-05,2.000000000000000000e+00,1.400000000000000000e+01
2.896800000000000000e+04,-3.399999999999999702e-04,-6.999999999999999387e-05,-1.100000000000000039e-04,4.000000000000000327e-05,-2.100000000000000087e-04,-2.299999999999999799e-04,-2.000000000000000164e-05,-8.000000000000000654e-05,2.000000000000000000e+00,1.400000000000000000e+01
2.896900000000000000e+04,-3.399999999999999702e-04,-6.999999999999999387e-05,-1.100000000000000039e-04,4.000000000000000327e-05,-2.100000000000000087e-04,-2.299999999999999799e-04,-2.000000000000000164e-05,-8.000000000000000654e-05,2.000000000000000000e+00,1.400000000000000000e+01
2.897000000000000000e+04,-3.399999999999999702e-04,-6.999999999999999387e-05,-1.100000000000000039e-04,4.000000000000000327e-05,-2.100000000000000087e-04,-2.299999999999999799e-04,-2.000000000000000164e-05,-8.000000000000000654e-05,2.000000000000000000e+00,1.400000000000000000e+01
2.897100000000000000e+04,-3.399999999999999702e-04,-6.999999999999999387e-05,-1.100000000000000039e-04,4.000000000000000327e-05,-2.100000000000000087e-04,-2.299999999999999799e-04,-2.000000000000000164e-05,-8.000000000000000654e-05,2.000000000000000000e+00,1.400000000000000000e+01
2.897200000000000000e+04,-3.399999999999999702e-04,-6.999999999999999387e-05,-1.100000000000000039e-04,4.000000000000000327e-05,-2.100000000000000087e-04,-2.299999999999999799e-04,-2.000000000000000164e-05,-8.000000000000000654e-05,2.000000000000000000e+00,1.400000000000000000e+01
2.897300000000000000e+04,-3.399999999999999702e-04,-6.999999999999999387e-05,-1.100000000000000039e-04,4.000000000000000327e-05,-2.100000000000000087e-04,-2.299999999999999799e-04,-2.000000000000000164e-05,-8.000000000000000654e-05,2.000000000000000000e+00,1.400000000000000000e+01
2.897400000000000000e+04,-3.399999999999999702e-04,-6.999999999999999387e-05,-1.100000000000000039e-04,4.000000000000000327e-05,-2.100000000000000087e-04,-2.299999999999999799e-04,-2.000000000000000164e-05,-8.000000000000000654e-05,2.000000000000000000e+00,1.400000000000000000e+01
2.897500000000000000e+04,-3.399999999999999702e-04,-6.999999999999999387e-05,-1.100000000000000039e-04,4.000000000000000327e-05,-2.100000000000000087e-04,-2.299999999999999799e-04,-2.000000000000000164e-05,-8.000000000000000654e-05,2.000000000000000000e+00,1.400000000000000000e+01
2.897600000000000000e+04,-3.399999999999999702e-04,-6.999999999999999387e-05,-1.100000000000000039e-04,4.000000000000000327e-05,-2.100000000000000087e-04,-2.299999999999999799e-04,-2.000000000000000164e-05,-8.000000000000000654e-05,2.000000000000000000e+00,1.400000000000000000e+01
2.897700000000000000e+04,-3.399999999999999702e-04,-6.999999999999999387e-05,-1.100000000000000039e-04,4.000000000000000327e-05,-2.100000000000000087e-04,-2.299999999999999799e-04,-2.000000000000000164e-05,-8.000000000000000654e-05,2.000000000000000000e+00,1.400000000000000000e+01
2.897800000000000000e+04,-3.399999999999999702e-04,-6.999999999999999387e-05,-1.100000000000000039e-04,4.000000000000000327e-05,-2.100000000000000087e-04,-2.299999999999999799e-04,-2.000000000000000164e-05,-8.000000000000000654e-05,2.000000000000000000e+00,1.400000000000000000e+01
2.897900000000000000e+04,-3.399999999999999702e-04,-6.999999999999999387e-05,-1.100000000000000039e-04,4.000000000000000327e-05,-2.100000000000000087e-04,-2.299999999999999799e-04,-2.000000000000000164e-05,-8.000000000000000654e-05,2.000000000000000000e+00,1.400000000000000000e+01
2.898000000000000000e+04,2.299999999999999799e-04,5.999999999999999474e-05,-1.000000000000000082e-05,2.299999999999999799e-04,2.200000000000000078e-04,8.400000000000000348e-04,1.080000000000000014e-03,1.260000000000000052e-03,2.000000000000000000e+00,1.400000000000000000e+01
2.898100000000000000e+04,2.299999999999999799e-04,5.999999999999999474e-05,-1.000000000000000082e-05,2.299999999999999799e-04,2.200000000000000078e-04,8.400000000000000348e-04,1.080000000000000014e-03,1.260000000000000052e-03,2.000000000000000000e+00,1.400000000000000000e+01
2.898200000000000000e+04,2.299999999999999799e-04,5.999999999999999474e-05,-1.000000000000000082e-05,2.299999999999999799e-04,2.200000000000000078e-04,8.400000000000000348e-04,1.080000000000000014e-03,1.260000000000000052e-03,2.000000000000000000e+00,1.400000000000000000e+01
2.898300000000000000e+04,2.299999999999999799e-04,5.999999999999999474e-05,-1.000000000000000082e-05,2.299999999999999799e-04,2.200000000000000078e-04,8.400000000000000348e-04,1.080000000000000014e-03,1.260000000000000052e-03,2.000000000000000000e+00,1.400000000000000000e+01
2.898400000000000000e+04,-4.700000000000000401e-04,5.999999999999999474e-05,1.600000000000000131e-04,-6.199999999999999999e-04,8.000000000000000654e-05,4.599999999999999597e-04,1.199999999999999895e-04,-3.600000000000000227e-04,2.000000000000000000e+00,1.400000000000000000e+01
2.898500000000000000e+04,-4.700000000000000401e-04,5.999999999999999474e-05,1.600000000000000131e-04,-6.199999999999999999e-04,8.000000000000000654e-05,4.599999999999999597e-04,1.199999999999999895e-04,-3.600000000000000227e-04,2.000000000000000000e+00,1.400000000000000000e+01
2.898600000000000000e+04,-4.700000000000000401e-04,5.999999999999999474e-05,1.600000000000000131e-04,-6.199999999999999999e-04,8.000000000000000654e-05,4.599999999999999597e-04,1.199999999999999895e-04,-3.600000000000000227e-04,2.000000000000000000e+00,1.400000000000000000e+01
2.898900000000000000e+04,-4.700000000000000401e-04,5.999999999999999474e-05,1.600000000000000131e-04,-6.199999999999999999e-04,8.000000000000000654e-05,4.599999999999999597e-04,1.199999999999999895e-04,-3.600000000000000227e-04,2.000000000000000000e+00,1.400000000000000000e+01
2.899000000000000000e+04,-4.700000000000000401e-04,5.999999999999999474e-05,1.600000000000000131e-04,-6.199999999999999999e-04,8.000000000000000654e-05,4.599999999999999597e-04,1.199999999999999895e-04,-3.600000000000000227e-04,2.000000000000000000e+00,1.400000000000000000e+01
2.899100000000000000e+04,-4.700000000000000401e-04,5.999999999999999474e-05,1.600000000000000131e-04,-6.199999999999999999e-04,8.000000000000000654e-05,4.599999999999999597e-04,1.199999999999999895e-04,-3.600000000000000227e-04,2.000000000000000000e+00,1.400000000000000000e+01
2.899200000000000000e+04,-4.700000000000000401e-04,5.999999999999999474e-05,1.600000000000000131e-04,-6.199999999999999999e-04,8.000000000000000654e-05,4.599999999999999597e-04,1.199999999999999895e-04,-3.600000000000000227e-04,2.000000000000000000e+00,1.400000000000000000e+01
2.899300000000000000e+04,-4.700000000000000401e-04,5.999999999999999474e-05,1.600000000000000131e-04,-6.199999999999999999e-04,8.000000000000000654e-05,4.599999999999999597e-04,1.199999999999999895e-04,-3.600000000000000227e-04,2.000000000000000000e+00,1.400000000000000000e+01
2.899400000000000000e+04,-4.700000000000000401e-04,5.999999999999999474e-05,1.600000000000000131e-04,-6.199999999999999999e-04,8.000000000000000654e-05,4.599999999999999597e-04,1.199999999999999895e-04,-3.600000000000000227e-04,2.000000000000000000e+00,1.400000000000000000e+01
2.899600000000000000e+04,-4.700000000000000401e-04,5.999999999999999474e-05,1.600000000000000131e-04,-6.199999999999999999e-04,8.000000000000000654e-05,4.599999999999999597e-04,1.199999999999999895e-04,-3.600000000000000227e-04,2.000000000000000000e+00,1.400000000000000000e+01
2.899700000000000000e+04,-4.700000000000000401e-04,5.999999999999999474e-05,1.600000000000000131e-04,-6.199999999999999999e-04,8.000000000000000654e-05,4.599999999999999597e-04,1.199999999999999895e-04,-3.600000000000000227e-04,2.000000000000000000e+00,1.400000000000000000e+01
2.899800000000000000e+04,-4.700000000000000401e-04,5.999999999999999474e-05,1.600000000000000131e-04,-6.199999999999999999e-04,8.000000000000000654e-05,4.599999999999999597e-04,1.199999999999999895e-04,-3.600000000000000227e-04,2.000000000000000000e+00,1.400000000000000000e+01
2.899900000000000000e+04,-4.700000000000000401e-04,5.999999999999999474e-05,1.600000000000000131e-04,-6.199999999999999999e-04,8.000000000000000654e-05,4.599999999999999597e-04,1.199999999999999895e-04,-3.600000000000000227e-04,2.000000000000000000e+00,1.400000000000000000e+01
2.900000000000000000e+04,-3.799999999999999667e-04,2.999999999999999737e-05,1.199999999999999895e-04,1.600000000000000131e-04,2.399999999999999790e-04,3.399999999999999702e-04,2.700000000000000035e-04,2.000000000000000096e-04,2.000000000000000000e+00,1.400000000000000000e+01
2.900100000000000000e+04,-3.799999999999999667e-04,2.999999999999999737e-05,1.199999999999999895e-04,1.600000000000000131e-04,2.399999999999999790e-04,3.399999999999999702e-04,2.700000000000000035e-04,2.000000000000000096e-04,2.000000000000000000e+00,1.400000000000000000e+01
2.900200000000000000e+04,-3.799999999999999667e-04,2.999999999999999737e-05,1.199999999999999895e-04,1.600000000000000131e-04,2.399999999999999790e-04,3.399999999999999702e-04,2.700000000000000035e-04,2.000000000000000096e-04,2.000000000000000000e+00,1.400000000000000000e+01
2.900300000000000000e+04,-3.799999999999999667e-04,2.999999999999999737e-05,1.199999999999999895e-04,1.600000000000000131e-04,2.399999999999999790e-04,3.399999999999999702e-04,2.700000000000000035e-04,2.000000000000000096e-04,2.000000000000000000e+00,1.400000000000000000e+01
2.900400000000000000e+04,-3.799999999999999667e-04,2.999999999999999737e-05,1.199999999999999895e-04,1.600000000000000131e-04,2.399999999999999790e-04,3.399999999999999702e-04,2.700000000000000035e-04,2.000000000000000096e-04,2.000000000000000000e+00,1.400000000000000000e+01
2.900600000000000000e+04,-3.799999999999999667e-04,2.999999999999999737e-05,1.199999999999999895e-04,1.600000000000000131e-04,2.399999999999999790e-04,3.399999999999999702e-04,2.700000000000000035e-04,2.000000000000000096e-04,2.000000000000000000e+00,1.400000000000000000e+01
2.900700000000000000e+04,-2.200000000000000078e-04,-2.000000000000000164e-05,2.000000000000000164e-05,1.899999999999999834e-04,1.899999999999999834e-04,-2.000000000000000164e-05,-5.999999999999999474e-05,-4.799999999999999580e-04,2.000000000000000000e+00,1.400000000000000000e+01
2.900800000000000000e+04,-8.000000000000000654e-05,-1.499999999999999869e-04,5.000000000000000240e-05,1.000000000000000082e-05,-2.100000000000000087e-04,9.000000000000000567e-05,-2.000000000000000096e-04,3.099999999999999999e-04,2.000000000000000000e+00,1.400000000000000000e+01
2.900900000000000000e+04,-8.000000000000000654e-05,-1.499999999999999869e-04,5.000000000000000240e-05,1.000000000000000082e-05,-2.100000000000000087e-04,9.000000000000000567e-05,-2.000000000000000096e-04,3.099999999999999999e-04,2.000000000000000000e+00,1.400000000000000000e+01
2.901000000000000000e+04,-8.000000000000000654e-05,-1.499999999999999869e-04,5.000000000000000240e-05,1.000000000000000082e-05,-2.100000000000000087e-04,9.000000000000000567e-05,-2.000000000000000096e-04,3.099999999999999999e-04,2.000000000000000000e+00,1.400000000000000000e+01
2.901100000000000000e+04,-8.000000000000000654e-05,-1.499999999999999869e-04,5.000000000000000240e-05,1.000000000000000082e-05,-2.100000000000000087e-04,9.000000000000000567e-05,-2.000000000000000096e-04,3.099999999999999999e-04,2.000000000000000000e+00,1.400000000000000000e+01
2.901200000000000000e+04,-8.000000000000000654e-05,-1.499999999999999869e-04,5.000000000000000240e-05,1.000000000000000082e-05,-2.100000000000000087e-04,9.000000000000000567e-05,-2.000000000000000096e-04,3.099999999999999999e-04,2.000000000000000000e+00,1.400000000000000000e+01
2.901300000000000000e+04,-8.000000000000000654e-05,-1.499999999999999869e-04,5.000000000000000240e-05,1.000000000000000082e-05,-2.100000000000000087e-04,9.000000000000000567e-05,-2.000000000000000096e-04,3.099999999999999999e-04,2.000000000000000000e+00,1.400000000000000000e+01
2.901400000000000000e+04,-8.000000000000000654e-05,-1.499999999999999869e-04,5.000000000000000240e-05,1.000000000000000082e-05,-2.100000000000000087e-04,9.000000000000000567e-05,-2.000000000000000096e-04,3.099999999999999999e-04,2.000000000000000000e+00,1.400000000000000000e+01
2.901500000000000000e+04,-8.000000000000000654e-05,-1.499999999999999869e-04,5.000000000000000240e-05,1.000000000000000082e-05,-2.100000000000000087e-04,9.000000000000000567e-05,-2.000000000000000096e-04,3.099999999999999999e-04,2.000000000000000000e+00,1.400000000000000000e+01
2.901600000000000000e+04,-8.000000000000000654e-05,-1.499999999999999869e-04,5.000000000000000240e-05,1.000000000000000082e-05,-2.100000000000000087e-04,9.000000000000000567e-05,-2.000000000000000096e-04,3.099999999999999999e-04,2.000000000000000000e+00,1.400000000000000000e+01
2.901700000000000000e+04,-8.000000000000000654e-05,-1.499999999999999869e-04,5.000000000000000240e-05,1.000000000000000082e-05,-2.100000000000000087e-04,9.000000000000000567e-05,-2.000000000000000096e-04,3.099999999999999999e-04,2.000000000000000000e+00,1.400000000000000000e+01
2.901800000000000000e+04,-8.000000000000000654e-05,-1.499999999999999869e-04,5.000000000000000240e-05,1.000000000000000082e-05,-2.100000000000000087e-04,9.000000000000000567e-05,-2.000000000000000096e-04,3.099999999999999999e-04,2.000000000000000000e+00,1.400000000000000000e+01
2.901900000000000000e+04,-8.000000000000000654e-05,-1.499999999999999869e-04,5.000000000000000240e-05,1.000000000000000082e-05,-2.100000000000000087e-04,9.000000000000000567e-05,-2.000000000000000096e-04,3.099999999999999999e-04,2.000000000000000000e+00,1.400000000000000000e+01
2.902000000000000000e+04,-8.000000000000000654e-05,-1.499999999999999869e-04,5.000000000000000240e-05,1.000000000000000082e-05,-2.100000000000000087e-04,9.000000000000000567e-05,-2.000000000000000096e-04,3.099999999999999999e-04,2.000000000000000000e+00,1.400000000000000000e+01
2.902100000000000000e+04,-8.000000000000000654e-05,-1.499999999999999869e-04,5.000000000000000240e-05,1.000000000000000082e-05,-2.100000000000000087e-04,9.000000000000000567e-05,-2.000000000000000096e-04,3.099999999999999999e-04,2.000000000000000000e+00,1.400000000000000000e+01
2.902200000000000000e+04,-8.000000000000000654e-05,-1.499999999999999869e-04,5.000000000000000240e-05,1.000000000000000082e-05,-2.100000000000000087e-04,9.000000000000000567e-05,-2.000000000000000096e-04,3.099999999999999999e-04,2.000000000000000000e+00,1.400000000000000000e+01
2.902300000000000000e+04,-8.000000000000000654e-05,-1.499999999999999869e-04,5.000000000000000240e-05,1.000000000000000082e-05,-2.100000000000000087e-04,9.000000000000000567e-05,-2.000000000000000096e-04,3.099999999999999999e-04,2.000000000000000000e+00,1.400000000000000000e+01
2.902400000000000000e+04,-8.000000000000000654e-05,-1.499999999999999869e-04,5.000000000000000240e-05,1.000000000000000082e-05,-2.100000000000000087e-04,9.000000000000000567e-05,-2.000000000000000096e-04,3.099999999999999999e-04,2.000000000000000000e+00,1.400000000000000000e+01
2.902500000000000000e+04,-8.000000000000000654e-05,-1.499999999999999869e-04,5.000000000000000240e-05,1.000000000000000082e-05,-2.100000000000000087e-04,9.000000000000000567e-05,-2.000000000000000096e-04,3.099999999999999999e-04,2.000000000000000000e+00,1.400000000000000000e+01
2.902600000000000000e+04,-8.000000000000000654e-05,-1.499999999999999869e-04,5.000000000000000240e-05,1.000000000000000082e-05,-2.100000000000000087e-04,9.000000000000000567e-05,-2.000000000000000096e-04,3.099999999999999999e-04,2.000000000000000000e+00,1.400000000000000000e+01
2.902700000000000000e+04,-8.000000000000000654e-05,-1.499999999999999869e-04,5.000000000000000240e-05,1.000000000000000082e-05,-2.100000000000000087e-04,9.000000000000000567e-05,-2.000000000000000096e-04,3.099999999999999999e-04,2.000000000000000000e+00,1.400000000000000000e+01
2.902800000000000000e+04,-8.000000000000000654e-05,-1.499999999999999869e-04,5.000000000000000240e-05,1.000000000000000082e-05,-2.100000000000000087e-04,9.000000000000000567e-05,-2.000000000000000096e-04,3.099999999999999999e-04,2.000000000000000000e+00,1.400000000000000000e+01
2.902900000000000000e+04,-8.000000000000000654e-05,-1.499999999999999869e-04,5.000000000000000240e-05,1.000000000000000082e-05,-2.100000000000000087e-04,9.000000000000000567e-05,-2.000000000000000096e-04,3.099999999999999999e-04,2.000000000000000000e+00,1.400000000000000000e+01
2.903000000000000000e+04,-5.699999999999999772e-04,-5.999999999999999474e-05,-2.000000000000000164e-05,2.999999999999999737e-04,-2.299999999999999799e-04,-5.599999999999999509e-04,-8.000000000000000654e-05,-7.099999999999999107e-04,2.000000000000000000e+00,1.400000000000000000e+01
2.903100000000000000e+04,4.499999999999999877e-04,-5.000000000000000240e-05,-1.000000000000000082e-05,-1.000000000000000048e-04,1.199999999999999895e-04,2.200000000000000078e-04,2.000000000000000164e-05,5.500000000000000331e-04,2.000000000000000000e+00,1.400000000000000000e+01
2.903200000000000000e+04,4.499999999999999877e-04,-5.000000000000000240e-05,-1.000000000000000082e-05,-1.000000000000000048e-04,1.199999999999999895e-04,2.200000000000000078e-04,2.000000000000000164e-05,5.500000000000000331e-04,2.000000000000000000e+00,1.400000000000000000e+01
2.903300000000000000e+04,4.499999999999999877e-04,-5.000000000000000240e-05,-1.000000000000000082e-05,-1.000000000000000048e-04,1.199999999999999895e-04,2.200000000000000078e-04,2.000000000000000164e-05,5.500000000000000331e-04,2.000000000000000000e+00,1.400000000000000000e+01
2.903400000000000000e+04,4.499999999999999877e-04,-5.000000000000000240e-05,-1.000000000000000082e-05,-1.000000000000000048e-04,1.199999999999999895e-04,2.200000000000000078e-04,2.000000000000000164e-05,5.500000000000000331e-04,2.000000000000000000e+00,1.400000000000000000e+01
2.903500000000000000e+04,4.499999999999999877e-04,-5.000000000000000240e-05,-1.000000000000000082e-05,-1.000000000000000048e-04,1.199999999999999895e-04,2.200000000000000078e-04,2.000000000000000164e-05,5.500000000000000331e-04,2.000000000000000000e+00,1.400000000000000000e+01
2.903600000000000000e+04,4.499999999999999877e-04,-5.000000000000000240e-05,-1.000000000000000082e-05,-1.000000000000000048e-04,1.199999999999999895e-04,2.200000000000000078e-04,2.000000000000000164e-05,5.500000000000000331e-04,2.000000000000000000e+00,1.400000000000000000e+01
2.903800000000000000e+04,4.499999999999999877e-04,-5.000000000000000240e-05,-1.000000000000000082e-05,-1.000000000000000048e-04,1.199999999999999895e-04,2.200000000000000078e-04,2.000000000000000164e-05,5.500000000000000331e-04,2.000000000000000000e+00,1.400000000000000000e+01
2.903900000000000000e+04,4.499999999999999877e-04,-5.000000000000000240e-05,-1.000000000000000082e-05,-1.000000000000000048e-04,1.199999999999999895e-04,2.200000000000000078e-04,2.000000000000000164e-05,5.500000000000000331e-04,2.000000000000000000e+00,1.400000000000000000e+01
2.904000000000000000e+04,4.499999999999999877e-04,-5.000000000000000240e-05,-1.000000000000000082e-05,-1.000000000000000048e-04,1.199999999999999895e-04,2.200000000000000078e-04,2.000000000000000164e-05,5.500000000000000331e-04,2.000000000000000000e+00,1.400000000000000000e+01
2.904100000000000000e+04,4.499999999999999877e-04,-5.000000000000000240e-05,-1.000000000000000082e-05,-1.000000000000000048e-04,1.199999999999999895e-04,2.200000000000000078e-04,2.000000000000000164e-05,5.500000000000000331e-04,2.000000000000000000e+00,1.400000000000000000e+01
2.904200000000000000e+04,4.499999999999999877e-04,-5.000000000000000240e-05,-1.000000000000000082e-05,-1.000000000000000048e-04,1.199999999999999895e-04,2.200000000000000078e-04,2.000000000000000164e-05,5.500000000000000331e-04,2.000000000000000000e+00,1.400000000000000000e+01
2.904300000000000000e+04,4.499999999999999877e-04,-5.000000000000000240e-05,-1.000000000000000082e-05,-1.000000000000000048e-04,1.199999999999999895e-04,2.200000000000000078e-04,2.000000000000000164e-05,5.500000000000000331e-04,2.000000000000000000e+00,1.400000000000000000e+01
2.904400000000000000e+04,4.499999999999999877e-04,-5.000000000000000240e-05,-1.000000000000000082e-05,-1.000000000000000048e-04,1.199999999999999895e-04,2.200000000000000078e-04,2.000000000000000164e-05,5.500000000000000331e-04,2.000000000000000000e+00,1.400000000000000000e+01
2.904500000000000000e+04,4.499999999999999877e-04,-5.000000000000000240e-05,-1.000000000000000082e-05,-1.000000000000000048e-04,1.199999999999999895e-04,2.200000000000000078e-04,2.000000000000000164e-05,5.500000000000000331e-04,2.000000000000000000e+00,1.400000000000000000e+01
2.904600000000000000e+04,4.499999999999999877e-04,-5.000000000000000240e-05,-1.000000000000000082e-05,-1.000000000000000048e-04,1.199999999999999895e-04,2.200000000000000078e-04,2.000000000000000164e-05,5.500000000000000331e-04,2.000000000000000000e+00,1.400000000000000000e+01
2.904700000000000000e+04,4.499999999999999877e-04,-5.000000000000000240e-05,-1.000000000000000082e-05,-1.000000000000000048e-04,1.199999999999999895e-04,2.200000000000000078e-04,2.000000000000000164e-05,5.500000000000000331e-04,2.000000000000000000e+00,1.400000000000000000e+01
2.904800000000000000e+04,4.499999999999999877e-04,-5.000000000000000240e-05,-1.000000000000000082e-05,-1.000000000000000048e-04,1.199999999999999895e-04,2.200000000000000078e-04,2.000000000000000164e-05,5.500000000000000331e-04,2.000000000000000000e+00,1.400000000000000000e+01
2.904900000000000000e+04,4.499999999999999877e-04,-5.000000000000000240e-05,-1.000000000000000082e-05,-1.000000000000000048e-04,1.199999999999999895e-04,2.200000000000000078e-04,2.000000000000000164e-05,5.500000000000000331e-04,2.000000000000000000e+00,1.400000000000000000e+01
2.905000000000000000e+04,4.499999999999999877e-04,-5.000000000000000240e-05,-1.000000000000000082e-05,-1.000000000000000048e-04,1.199999999999999895e-04,2.200000000000000078e-04,2.000000000000000164e-05,5.500000000000000331e-04,2.000000000000000000e+00,1.400000000000000000e+01
2.905100000000000000e+04,4.499999999999999877e-04,-5.000000000000000240e-05,-1.000000000000000082e-05,-1.000000000000000048e-04,1.199999999999999895e-04,2.200000000000000078e-04,2.000000000000000164e-05,5.500000000000000331e-04,2.000000000000000000e+00,1.400000000000000000e+01
2.905200000000000000e+04,4.499999999999999877e-04,-5.000000000000000240e-05,-1.000000000000000082e-05,-1.000000000000000048e-04,1.199999999999999895e-04,2.200000000000000078e-04,2.000000000000000164e-05,5.500000000000000331e-04,2.000000000000000000e+00,1.400000000000000000e+01
2.905300000000000000e+04,4.499999999999999877e-04,-5.000000000000000240e-05,-1.000000000000000082e-05,-1.000000000000000048e-04,1.199999999999999895e-04,2.200000000000000078e-04,2.000000000000000164e-05,5.500000000000000331e-04,2.000000000000000000e+00,1.400000000000000000e+01
2.905400000000000000e+04,4.499999999999999877e-04,-5.000000000000000240e-05,-1.000000000000000082e-05,-1.000000000000000048e-04,1.199999999999999895e-04,2.200000000000000078e-04,2.000000000000000164e-05,5.500000000000000331e-04,2.000000000000000000e+00,1.400000000000000000e+01
2.905500000000000000e+04,-1.000000000000000048e-04,-2.000000000000000164e-05,-8.000000000000000654e-05,-1.000000000000000082e-05,2.200000000000000078e-04,0.000000000000000000e+00,-1.600000000000000131e-04,-4.700000000000000401e-04,2.000000000000000000e+00,1.400000000000000000e+01
2.905600000000000000e+04,-1.000000000000000048e-04,-2.000000000000000164e-05,-8.000000000000000654e-05,-1.000000000000000082e-05,2.200000000000000078e-04,0.000000000000000000e+00,-1.600000000000000131e-04,-4.700000000000000401e-04,2.000000000000000000e+00,1.400000000000000000e+01
2.905700000000000000e+04,-1.000000000000000048e-04,-2.000000000000000164e-05,-8.000000000000000654e-05,-1.000000000000000082e-05,2.200000000000000078e-04,0.000000000000000000e+00,-1.600000000000000131e-04,-4.700000000000000401e-04,2.000000000000000000e+00,1.400000000000000000e+01
2.905800000000000000e+04,-1.000000000000000048e-04,-2.000000000000000164e-05,-8.000000000000000654e-05,-1.000000000000000082e-05,2.200000000000000078e-04,0.000000000000000000e+00,-1.600000000000000131e-04,-4.700000000000000401e-04,2.000000000000000000e+00,1.400000000000000000e+01
2.905900000000000000e+04,-1.000000000000000048e-04,-2.000000000000000164e-05,-8.000000000000000654e-05,-1.000000000000000082e-05,2.200000000000000078e-04,0.000000000000000000e+00,-1.600000000000000131e-04,-4.700000000000000401e-04,2.000000000000000000e+00,1.400000000000000000e+01
2.906000000000000000e+04,-1.000000000000000048e-04,-2.000000000000000164e-05,-8.000000000000000654e-05,-1.000000000000000082e-05,2.200000000000000078e-04,0.000000000000000000e+00,-1.600000000000000131e-04,-4.700000000000000401e-04,2.000000000000000000e+00,1.400000000000000000e+01
2.906100000000000000e+04,-1.000000000000000048e-04,-2.000000000000000164e-05,-8.000000000000000654e-05,-1.000000000000000082e-05,2.200000000000000078e-04,0.000000000000000000e+00,-1.600000000000000131e-04,-4.700000000000000401e-04,2.000000000000000000e+00,1.400000000000000000e+01
2.906200000000000000e+04,-1.000000000000000048e-04,-2.000000000000000164e-05,-8.000000000000000654e-05,-1.000000000000000082e-05,2.200000000000000078e-04,0.000000000000000000e+00,-1.600000000000000131e-04,-4.700000000000000401e-04,2.000000000000000000e+00,1.400000000000000000e+01
2.906300000000000000e+04,-1.000000000000000048e-04,-2.000000000000000164e-05,-8.000000000000000654e-05,-1.000000000000000082e-05,2.200000000000000078e-04,0.000000000000000000e+00,-1.600000000000000131e-04,-4.700000000000000401e-04,2.000000000000000000e+00,1.400000000000000000e+01
2.906400000000000000e+04,-1.000000000000000048e-04,-2.000000000000000164e-05,-8.000000000000000654e-05,-1.000000000000000082e-05,2.200000000000000078e-04,0.000000000000000000e+00,-1.600000000000000131e-04,-4.700000000000000401e-04,2.000000000000000000e+00,1.400000000000000000e+01
2.906500000000000000e+04,-1.000000000000000048e-04,-2.000000000000000164e-05,-8.000000000000000654e-05,-1.000000000000000082e-05,2.200000000000000078e-04,0.000000000000000000e+00,-1.600000000000000131e-04,-4.700000000000000401e-04,2.000000000000000000e+00,1.400000000000000000e+01
2.906600000000000000e+04,-1.000000000000000048e-04,-2.000000000000000164e-05,-8.000000000000000654e-05,-1.000000000000000082e-05,2.200000000000000078e-04,0.000000000000000000e+00,-1.600000000000000131e-04,-4.700000000000000401e-04,2.000000000000000000e+00,1.400000000000000000e+01
2.906700000000000000e+04,-1.000000000000000048e-04,-2.000000000000000164e-05,-8.000000000000000654e-05,-1.000000000000000082e-05,2.200000000000000078e-04,0.000000000000000000e+00,-1.600000000000000131e-04,-4.700000000000000401e-04,2.000000000000000000e+00,1.400000000000000000e+01
2.906800000000000000e+04,-1.000000000000000048e-04,-2.000000000000000164e-05,-8.000000000000000654e-05,-1.000000000000000082e-05,2.200000000000000078e-04,0.000000000000000000e+00,-1.600000000000000131e-04,-4.700000000000000401e-04,2.000000000000000000e+00,1.400000000000000000e+01
2.906900000000000000e+04,-1.000000000000000048e-04,-2.000000000000000164e-05,-8.000000000000000654e-05,-1.000000000000000082e-05,2.200000000000000078e-04,0.000000000000000000e+00,-1.600000000000000131e-04,-4.700000000000000401e-04,2.000000000000000000e+00,1.400000000000000000e+01
2.907000000000000000e+04,-1.000000000000000048e-04,-2.000000000000000164e-05,-8.000000000000000654e-05,-1.000000000000000082e-05,2.200000000000000078e-04,0.000000000000000000e+00,-1.600000000000000131e-04,-4.700000000000000401e-04,2.000000000000000000e+00,1.400000000000000000e+01
2.907100000000000000e+04,-1.000000000000000048e-04,-2.000000000000000164e-05,-8.000000000000000654e-05,-1.000000000000000082e-05,2.200000000000000078e-04,0.000000000000000000e+00,-1.600000000000000131e-04,-4.700000000000000401e-04,2.000000000000000000e+00,1.400000000000000000e+01
2.907200000000000000e+04,-1.000000000000000048e-04,-2.000000000000000164e-05,-8.000000000000000654e-05,-1.000000000000000082e-05,2.200000000000000078e-04,0.000000000000000000e+00,-1.600000000000000131e-04,-4.700000000000000401e-04,2.000000000000000000e+00,1.400000000000000000e+01
2.907300000000000000e+04,-1.000000000000000048e-04,-2.000000000000000164e-05,-8.000000000000000654e-05,-1.000000000000000082e-05,2.200000000000000078e-04,0.000000000000000000e+00,-1.600000000000000131e-04,-4.700000000000000401e-04,2.000000000000000000e+00,1.400000000000000000e+01
2.907400000000000000e+04,-1.000000000000000048e-04,-2.000000000000000164e-05,-8.000000000000000654e-05,-1.000000000000000082e-05,2.200000000000000078e-04,0.000000000000000000e+00,-1.600000000000000131e-04,-4.700000000000000401e-04,2.000000000000000000e+00,1.400000000000000000e+01
2.907500000000000000e+04,-1.000000000000000048e-04,-2.000000000000000164e-05,-8.000000000000000654e-05,-1.000000000000000082e-05,2.200000000000000078e-04,0.000000000000000000e+00,-1.600000000000000131e-04,-4.700000000000000401e-04,2.000000000000000000e+00,1.400000000000000000e+01
2.907600000000000000e+04,-6.999999999999999387e-05,0.000000000000000000e+00,-2.000000000000000164e-05,-1.199999999999999895e-04,1.899999999999999834e-04,3.600000000000000227e-04,0.000000000000000000e+00,-5.000000000000000240e-05,2.000000000000000000e+00,1.400000000000000000e+01
2.907700000000000000e+04,-6.999999999999999387e-05,0.000000000000000000e+00,-2.000000000000000164e-05,-1.199999999999999895e-04,1.899999999999999834e-04,3.600000000000000227e-04,0.000000000000000000e+00,-5.000000000000000240e-05,2.000000000000000000e+00,1.400000000000000000e+01
2.907800000000000000e+04,-6.999999999999999387e-05,0.000000000000000000e+00,-2.000000000000000164e-05,-1.199999999999999895e-04,1.899999999999999834e-04,3.600000000000000227e-04,0.000000000000000000e+00,-5.000000000000000240e-05,2.000000000000000000e+00,1.400000000000000000e+01
2.907900000000000000e+04,-6.999999999999999387e-05,0.000000000000000000e+00,-2.000000000000000164e-05,-1.199999999999999895e-04,1.899999999999999834e-04,3.600000000000000227e-04,0.000000000000000000e+00,-5.000000000000000240e-05,2.000000000000000000e+00,1.400000000000000000e+01
2.908000000000000000e+04,-6.999999999999999387e-05,0.000000000000000000e+00,-2.000000000000000164e-05,-1.199999999999999895e-04,1.899999999999999834e-04,3.600000000000000227e-04,0.000000000000000000e+00,-5.000000000000000240e-05,2.000000000000000000e+00,1.400000000000000000e+01
2.908100000000000000e+04,-6.999999999999999387e-05,0.000000000000000000e+00,-2.000000000000000164e-05,-1.199999999999999895e-04,1.899999999999999834e-04,3.600000000000000227e-04,0.000000000000000000e+00,-5.000000000000000240e-05,2.000000000000000000e+00,1.400000000000000000e+01
2.908200000000000000e+04,-6.999999999999999387e-05,0.000000000000000000e+00,-2.000000000000000164e-05,-1.199999999999999895e-04,1.899999999999999834e-04,3.600000000000000227e-04,0.000000000000000000e+00,-5.000000000000000240e-05,2.000000000000000000e+00,1.400000000000000000e+01
2.908300000000000000e+04,-6.999999999999999387e-05,0.000000000000000000e+00,-2.000000000000000164e-05,-1.199999999999999895e-04,1.899999999999999834e-04,3.600000000000000227e-04,0.000000000000000000e+00,-5.000000000000000240e-05,2.000000000000000000e+00,1.400000000000000000e+01
2.908500000000000000e+04,-6.999999999999999387e-05,0.000000000000000000e+00,-2.000000000000000164e-05,-1.199999999999999895e-04,1.899999999999999834e-04,3.600000000000000227e-04,0.000000000000000000e+00,-5.000000000000000240e-05,2.000000000000000000e+00,1.400000000000000000e+01
2.908600000000000000e+04,-6.999999999999999387e-05,0.000000000000000000e+00,-2.000000000000000164e-05,-1.199999999999999895e-04,1.899999999999999834e-04,3.600000000000000227e-04,0.000000000000000000e+00,-5.000000000000000240e-05,2.000000000000000000e+00,1.400000000000000000e+01
2.908800000000000000e+04,-6.999999999999999387e-05,0.000000000000000000e+00,-2.000000000000000164e-05,-1.199999999999999895e-04,1.899999999999999834e-04,3.600000000000000227e-04,0.000000000000000000e+00,-5.000000000000000240e-05,2.000000000000000000e+00,1.400000000000000000e+01
2.908900000000000000e+04,-6.999999999999999387e-05,0.000000000000000000e+00,-2.000000000000000164e-05,-1.199999999999999895e-04,1.899999999999999834e-04,3.600000000000000227e-04,0.000000000000000000e+00,-5.000000000000000240e-05,2.000000000000000000e+00,1.400000000000000000e+01
2.909000000000000000e+04,-6.999999999999999387e-05,0.000000000000000000e+00,-2.000000000000000164e-05,-1.199999999999999895e-04,1.899999999999999834e-04,3.600000000000000227e-04,0.000000000000000000e+00,-5.000000000000000240e-05,2.000000000000000000e+00,1.400000000000000000e+01
2.909100000000000000e+04,-6.999999999999999387e-05,0.000000000000000000e+00,-2.000000000000000164e-05,-1.199999999999999895e-04,1.899999999999999834e-04,3.600000000000000227e-04,0.000000000000000000e+00,-5.000000000000000240e-05,2.000000000000000000e+00,1.400000000000000000e+01
2.909200000000000000e+04,-6.999999999999999387e-05,0.000000000000000000e+00,-2.000000000000000164e-05,-1.199999999999999895e-04,1.899999999999999834e-04,3.600000000000000227e-04,0.000000000000000000e+00,-5.000000000000000240e-05,2.000000000000000000e+00,1.400000000000000000e+01
2.909300000000000000e+04,-6.999999999999999387e-05,0.000000000000000000e+00,-2.000000000000000164e-05,-1.199999999999999895e-04,1.899999999999999834e-04,3.600000000000000227e-04,0.000000000000000000e+00,-5.000000000000000240e-05,2.000000000000000000e+00,1.400000000000000000e+01
2.909400000000000000e+04,-6.999999999999999387e-05,0.000000000000000000e+00,-2.000000000000000164e-05,-1.199999999999999895e-04,1.899999999999999834e-04,3.600000000000000227e-04,0.000000000000000000e+00,-5.000000000000000240e-05,2.000000000000000000e+00,1.400000000000000000e+01
2.909500000000000000e+04,-6.999999999999999387e-05,0.000000000000000000e+00,-2.000000000000000164e-05,-1.199999999999999895e-04,1.899999999999999834e-04,3.600000000000000227e-04,0.000000000000000000e+00,-5.000000000000000240e-05,2.000000000000000000e+00,1.400000000000000000e+01
2.909600000000000000e+04,-6.999999999999999387e-05,0.000000000000000000e+00,-2.000000000000000164e-05,-1.199999999999999895e-04,1.899999999999999834e-04,3.600000000000000227e-04,0.000000000000000000e+00,-5.000000000000000240e-05,2.000000000000000000e+00,1.400000000000000000e+01
2.909700000000000000e+04,-6.999999999999999387e-05,0.000000000000000000e+00,-2.000000000000000164e-05,-1.199999999999999895e-04,1.899999999999999834e-04,3.600000000000000227e-04,0.000000000000000000e+00,-5.000000000000000240e-05,2.000000000000000000e+00,1.400000000000000000e+01
2.909800000000000000e+04,-4.899999999999999842e-04,-2.200000000000000078e-04,-1.300000000000000157e-04,3.499999999999999964e-04,1.699999999999999851e-04,-2.000000000000000096e-04,-3.799999999999999667e-04,-5.000000000000000240e-05,2.000000000000000000e+00,1.400000000000000000e+01
2.909900000000000000e+04,-2.200000000000000078e-04,5.000000000000000240e-05,5.000000000000000240e-05,-2.799999999999999755e-04,-5.999999999999999474e-05,4.099999999999999912e-04,5.999999999999999474e-05,-3.600000000000000227e-04,2.000000000000000000e+00,1.400000000000000000e+01
2.910000000000000000e+04,-2.200000000000000078e-04,5.000000000000000240e-05,5.000000000000000240e-05,-2.799999999999999755e-04,-5.999999999999999474e-05,4.099999999999999912e-04,5.999999999999999474e-05,-3.600000000000000227e-04,2.000000000000000000e+00,1.400000000000000000e+01
2.910100000000000000e+04,-2.200000000000000078e-04,5.000000000000000240e-05,5.000000000000000240e-05,-2.799999999999999755e-04,-5.999999999999999474e-05,4.099999999999999912e-04,5.999999999999999474e-05,-3.600000000000000227e-04,2.000000000000000000e+00,1.400000000000000000e+01
2.910200000000000000e+04,-2.200000000000000078e-04,5.000000000000000240e-05,5.000000000000000240e-05,-2.799999999999999755e-04,-5.999999999999999474e-05,4.099999999999999912e-04,5.999999999999999474e-05,-3.600000000000000227e-04,2.000000000000000000e+00,1.400000000000000000e+01
2.910300000000000000e+04,-2.200000000000000078e-04,5.000000000000000240e-05,5.000000000000000240e-05,-2.799999999999999755e-04,-5.999999999999999474e-05,4.099999999999999912e-04,5.999999999999999474e-05,-3.600000000000000227e-04,2.000000000000000000e+00,1.400000000000000000e+01
2.910400000000000000e+04,-2.200000000000000078e-04,5.000000000000000240e-05,5.000000000000000240e-05,-2.799999999999999755e-04,-5.999999999999999474e-05,4.099999999999999912e-04,5.999999999999999474e-05,-3.600000000000000227e-04,2.000000000000000000e+00,1.400000000000000000e+01
2.910500000000000000e+04,-3.799999999999999667e-04,-6.999999999999999387e-05,-2.000000000000000164e-05,3.399999999999999702e-04,1.100000000000000039e-04,2.299999999999999799e-04,2.000000000000000164e-05,-3.299999999999999982e-04,2.000000000000000000e+00,1.400000000000000000e+01
2.910600000000000000e+04,1.010000000000000047e-03,4.000000000000000192e-04,4.000000000000000327e-05,-6.700000000000000226e-04,-3.099999999999999999e-04,1.800000000000000113e-04,6.400000000000000524e-04,1.080000000000000014e-03,2.000000000000000000e+00,1.400000000000000000e+01
2.910700000000000000e+04,1.010000000000000047e-03,4.000000000000000192e-04,4.000000000000000327e-05,-6.700000000000000226e-04,-3.099999999999999999e-04,1.800000000000000113e-04,6.400000000000000524e-04,1.080000000000000014e-03,2.000000000000000000e+00,1.400000000000000000e+01
2.910800000000000000e+04,1.010000000000000047e-03,4.000000000000000192e-04,4.000000000000000327e-05,-6.700000000000000226e-04,-3.099999999999999999e-04,1.800000000000000113e-04,6.400000000000000524e-04,1.080000000000000014e-03,2.000000000000000000e+00,1.400000000000000000e+01
2.910900000000000000e+04,1.010000000000000047e-03,4.000000000000000192e-04,4.000000000000000327e-05,-6.700000000000000226e-04,-3.099999999999999999e-04,1.800000000000000113e-04,6.400000000000000524e-04,1.080000000000000014e-03,2.000000000000000000e+00,1.400000000000000000e+01
2.911000000000000000e+04,1.010000000000000047e-03,4.000000000000000192e-04,4.000000000000000327e-05,-6.700000000000000226e-04,-3.099999999999999999e-04,1.800000000000000113e-04,6.400000000000000524e-04,1.080000000000000014e-03,2.000000000000000000e+00,1.400000000000000000e+01
2.911100000000000000e+04,1.010000000000000047e-03,4.000000000000000192e-04,4.000000000000000327e-05,-6.700000000000000226e-04,-3.099999999999999999e-04,1.800000000000000113e-04,6.400000000000000524e-04,1.080000000000000014e-03,2.000000000000000000e+00,1.400000000000000000e+01
2.911200000000000000e+04,1.010000000000000047e-03,4.000000000000000192e-04,4.000000000000000327e-05,-6.700000000000000226e-04,-3.099999999999999999e-04,1.800000000000000113e-04,6.400000000000000524e-04,1.080000000000000014e-03,2.000000000000000000e+00,1.400000000000000000e+01
2.911300000000000000e+04,1.010000000000000047e-03,4.000000000000000192e-04,4.000000000000000327e-05,-6.700000000000000226e-04,-3.099999999999999999e-04,1.800000000000000113e-04,6.400000000000000524e-04,1.080000000000000014e-03,2.000000000000000000e+00,1.400000000000000000e+01
2.911400000000000000e+04,1.010000000000000047e-03,4.000000000000000192e-04,4.000000000000000327e-05,-6.700000000000000226e-04,-3.099999999999999999e-04,1.800000000000000113e-04,6.400000000000000524e-04,1.080000000000000014e-03,2.000000000000000000e+00,1.400000000000000000e+01
2.911500000000000000e+04,1.010000000000000047e-03,4.000000000000000192e-04,4.000000000000000327e-05,-6.700000000000000226e-04,-3.099999999999999999e-04,1.800000000000000113e-04,6.400000000000000524e-04,1.080000000000000014e-03,2.000000000000000000e+00,1.400000000000000000e+01
2.911600000000000000e+04,1.010000000000000047e-03,4.000000000000000192e-04,4.000000000000000327e-05,-6.700000000000000226e-04,-3.099999999999999999e-04,1.800000000000000113e-04,6.400000000000000524e-04,1.080000000000000014e-03,2.000000000000000000e+00,1.400000000000000000e+01
2.911700000000000000e+04,1.010000000000000047e-03,4.000000000000000192e-04,4.000000000000000327e-05,-6.700000000000000226e-04,-3.099999999999999999e-04,1.800000000000000113e-04,6.400000000000000524e-04,1.080000000000000014e-03,2.000000000000000000e+00,1.400000000000000000e+01
2.911800000000000000e+04,1.010000000000000047e-03,4.000000000000000192e-04,4.000000000000000327e-05,-6.700000000000000226e-04,-3.099999999999999999e-04,1.800000000000000113e-04,6.400000000000000524e-04,1.080000000000000014e-03,2.000000000000000000e+00,1.400000000000000000e+01
2.912000000000000000e+04,1.010000000000000047e-03,4.000000000000000192e-04,4.000000000000000327e-05,-6.700000000000000226e-04,-3.099999999999999999e-04,1.800000000000000113e-04,6.400000000000000524e-04,1.080000000000000014e-03,2.000000000000000000e+00,1.400000000000000000e+01
2.912100000000000000e+04,1.010000000000000047e-03,4.000000000000000192e-04,4.000000000000000327e-05,-6.700000000000000226e-04,-3.099999999999999999e-04,1.800000000000000113e-04,6.400000000000000524e-04,1.080000000000000014e-03,2.000000000000000000e+00,1.400000000000000000e+01
2.912200000000000000e+04,1.010000000000000047e-03,4.000000000000000192e-04,4.000000000000000327e-05,-6.700000000000000226e-04,-3.099999999999999999e-04,1.800000000000000113e-04,6.400000000000000524e-04,1.080000000000000014e-03,2.000000000000000000e+00,1.400000000000000000e+01
2.912300000000000000e+04,1.010000000000000047e-03,4.000000000000000192e-04,4.000000000000000327e-05,-6.700000000000000226e-04,-3.099999999999999999e-04,1.800000000000000113e-04,6.400000000000000524e-04,1.080000000000000014e-03,2.000000000000000000e+00,1.400000000000000000e+01
2.912400000000000000e+04,1.010000000000000047e-03,4.000000000000000192e-04,4.000000000000000327e-05,-6.700000000000000226e-04,-3.099999999999999999e-04,1.800000000000000113e-04,6.400000000000000524e-04,1.080000000000000014e-03,2.000000000000000000e+00,1.400000000000000000e+01
2.912500000000000000e+04,1.010000000000000047e-03,4.000000000000000192e-04,4.000000000000000327e-05,-6.700000000000000226e-04,-3.099999999999999999e-04,1.800000000000000113e-04,6.400000000000000524e-04,1.080000000000000014e-03,2.000000000000000000e+00,1.400000000000000000e+01
2.912600000000000000e+04,1.010000000000000047e-03,4.000000000000000192e-04,4.000000000000000327e-05,-6.700000000000000226e-04,-3.099999999999999999e-04,1.800000000000000113e-04,6.400000000000000524e-04,1.080000000000000014e-03,2.000000000000000000e+00,1.400000000000000000e+01
2.912700000000000000e+04,-3.200000000000000262e-04,-1.100000000000000039e-04,4.000000000000000327e-05,1.600000000000000131e-04,0.000000000000000000e+00,-1.800000000000000113e-04,-1.100000000000000039e-04,1.199999999999999895e-04,2.000000000000000000e+00,1.400000000000000000e+01
2.912800000000000000e+04,-2.999999999999999737e-04,1.300000000000000157e-04,3.600000000000000227e-04,1.499999999999999869e-04,4.000000000000000327e-05,6.999999999999999387e-05,1.000000000000000082e-05,-3.799999999999999667e-04,2.000000000000000000e+00,1.400000000000000000e+01
2.912900000000000000e+04,-2.999999999999999737e-04,1.300000000000000157e-04,3.600000000000000227e-04,1.499999999999999869e-04,4.000000000000000327e-05,6.999999999999999387e-05,1.000000000000000082e-05,-3.799999999999999667e-04,2.000000000000000000e+00,1.400000000000000000e+01
2.913000000000000000e+04,-2.999999999999999737e-04,1.300000000000000157e-04,3.600000000000000227e-04,1.499999999999999869e-04,4.000000000000000327e-05,6.999999999999999387e-05,1.000000000000000082e-05,-3.799999999999999667e-04,2.000000000000000000e+00,1.400000000000000000e+01
2.913100000000000000e+04,-2.999999999999999737e-04,1.300000000000000157e-04,3.600000000000000227e-04,1.499999999999999869e-04,4.000000000000000327e-05,6.999999999999999387e-05,1.000000000000000082e-05,-3.799999999999999667e-04,2.000000000000000000e+00,1.400000000000000000e+01
2.913200000000000000e+04,-2.999999999999999737e-04,1.300000000000000157e-04,3.600000000000000227e-04,1.499999999999999869e-04,4.000000000000000327e-05,6.999999999999999387e-05,1.000000000000000082e-05,-3.799999999999999667e-04,2.000000000000000000e+00,1.400000000000000000e+01
2.913300000000000000e+04,-2.999999999999999737e-04,1.300000000000000157e-04,3.600000000000000227e-04,1.499999999999999869e-04,4.000000000000000327e-05,6.999999999999999387e-05,1.000000000000000082e-05,-3.799999999999999667e-04,2.000000000000000000e+00,1.400000000000000000e+01
2.913500000000000000e+04,-2.999999999999999737e-04,1.300000000000000157e-04,3.600000000000000227e-04,1.499999999999999869e-04,4.000000000000000327e-05,6.999999999999999387e-05,1.000000000000000082e-05,-3.799999999999999667e-04,2.000000000000000000e+00,1.400000000000000000e+01
2.913600000000000000e+04,-2.999999999999999737e-04,1.300000000000000157e-04,3.600000000000000227e-04,1.499999999999999869e-04,4.000000000000000327e-05,6.999999999999999387e-05,1.000000000000000082e-05,-3.799999999999999667e-04,2.000000000000000000e+00,1.400000000000000000e+01
2.913800000000000000e+04,-2.999999999999999737e-04,1.300000000000000157e-04,3.600000000000000227e-04,1.499999999999999869e-04,4.000000000000000327e-05,6.999999999999999387e-05,1.000000000000000082e-05,-3.799999999999999667e-04,2.000000000000000000e+00,1.400000000000000000e+01
2.913900000000000000e+04,-2.999999999999999737e-04,1.300000000000000157e-04,3.600000000000000227e-04,1.499999999999999869e-04,4.000000000000000327e-05,6.999999999999999387e-05,1.000000000000000082e-05,-3.799999999999999667e-04,2.000000000000000000e+00,1.400000000000000000e+01
2.914000000000000000e+04,-2.999999999999999737e-04,1.300000000000000157e-04,3.600000000000000227e-04,1.499999999999999869e-04,4.000000000000000327e-05,6.999999999999999387e-05,1.000000000000000082e-05,-3.799999999999999667e-04,2.000000000000000000e+00,1.400000000000000000e+01
2.914100000000000000e+04,-2.999999999999999737e-04,1.300000000000000157e-04,3.600000000000000227e-04,1.499999999999999869e-04,4.000000000000000327e-05,6.999999999999999387e-05,1.000000000000000082e-05,-3.799999999999999667e-04,2.000000000000000000e+00,1.400000000000000000e+01
2.914200000000000000e+04,-2.999999999999999737e-04,1.300000000000000157e-04,3.600000000000000227e-04,1.499999999999999869e-04,4.000000000000000327e-05,6.999999999999999387e-05,1.000000000000000082e-05,-3.799999999999999667e-04,2.000000000000000000e+00,1.400000000000000000e+01
2.914300000000000000e+04,-2.999999999999999737e-04,1.300000000000000157e-04,3.600000000000000227e-04,1.499999999999999869e-04,4.000000000000000327e-05,6.999999999999999387e-05,1.000000000000000082e-05,-3.799999999999999667e-04,2.000000000000000000e+00,1.400000000000000000e+01
2.914400000000000000e+04,-2.999999999999999737e-04,1.300000000000000157e-04,3.600000000000000227e-04,1.499999999999999869e-04,4.000000000000000327e-05,6.999999999999999387e-05,1.000000000000000082e-05,-3.799999999999999667e-04,2.000000000000000000e+00,1.400000000000000000e+01
2.914500000000000000e+04,-2.999999999999999737e-04,1.300000000000000157e-04,3.600000000000000227e-04,1.499999999999999869e-04,4.000000000000000327e-05,6.999999999999999387e-05,1.000000000000000082e-05,-3.799999999999999667e-04,2.000000000000000000e+00,1.400000000000000000e+01
2.914600000000000000e+04,-2.999999999999999737e-04,1.300000000000000157e-04,3.600000000000000227e-04,1.499999999999999869e-04,4.000000000000000327e-05,6.999999999999999387e-05,1.000000000000000082e-05,-3.799999999999999667e-04,2.000000000000000000e+00,1.400000000000000000e+01
2.914700000000000000e+04,-2.999999999999999737e-04,1.300000000000000157e-04,3.600000000000000227e-04,1.499999999999999869e-04,4.000000000000000327e-05,6.999999999999999387e-05,1.000000000000000082e-05,-3.799999999999999667e-04,2.000000000000000000e+00,1.400000000000000000e+01
2.914800000000000000e+04,-2.999999999999999737e-04,1.300000000000000157e-04,3.600000000000000227e-04,1.499999999999999869e-04,4.000000000000000327e-05,6.999999999999999387e-05,1.000000000000000082e-05,-3.799999999999999667e-04,2.000000000000000000e+00,1.400000000000000000e+01
2.914900000000000000e+04,-2.999999999999999737e-04,1.300000000000000157e-04,3.600000000000000227e-04,1.499999999999999869e-04,4.000000000000000327e-05,6.999999999999999387e-05,1.000000000000000082e-05,-3.799999999999999667e-04,2.000000000000000000e+00,1.400000000000000000e+01
2.915000000000000000e+04,-2.999999999999999737e-04,1.300000000000000157e-04,3.600000000000000227e-04,1.499999999999999869e-04,4.000000000000000327e-05,6.999999999999999387e-05,1.000000000000000082e-05,-3.799999999999999667e-04,2.000000000000000000e+00,1.400000000000000000e+01
2.915100000000000000e+04,-1.899999999999999834e-04,-8.000000000000000654e-05,-8.000000000000000654e-05,-4.899999999999999842e-04,1.899999999999999834e-04,-6.999999999999999387e-05,1.800000000000000113e-04,5.299999999999999807e-04,2.000000000000000000e+00,1.400000000000000000e+01
2.915200000000000000e+04,-2.000000000000000164e-05,2.000000000000000164e-05,-1.000000000000000048e-04,5.000000000000000240e-05,2.000000000000000096e-04,1.199999999999999895e-04,1.300000000000000157e-04,0.000000000000000000e+00,2.000000000000000000e+00,1.400000000000000000e+01
2.915300000000000000e+04,-2.000000000000000164e-05,2.000000000000000164e-05,-1.000000000000000048e-04,5.000000000000000240e-05,2.000000000000000096e-04,1.199999999999999895e-04,1.300000000000000157e-04,0.000000000000000000e+00,2.000000000000000000e+00,1.400000000000000000e+01
2.915400000000000000e+04,-2.000000000000000164e-05,2.000000000000000164e-05,-1.000000000000000048e-04,5.000000000000000240e-05,2.000000000000000096e-04,1.199999999999999895e-04,1.300000000000000157e-04,0.000000000000000000e+00,2.000000000000000000e+00,1.400000000000000000e+01
2.915500000000000000e+04,-2.000000000000000164e-05,2.000000000000000164e-05,-1.000000000000000048e-04,5.000000000000000240e-05,2.000000000000000096e-04,1.199999999999999895e-04,1.300000000000000157e-04,0.000000000000000000e+00,2.000000000000000000e+00,1.400000000000000000e+01
2.915600000000000000e+04,-2.000000000000000164e-05,2.000000000000000164e-05,-1.000000000000000048e-04,5.000000000000000240e-05,2.000000000000000096e-04,1.199999999999999895e-04,1.300000000000000157e-04,0.000000000000000000e+00,2.000000000000000000e+00,1.400000000000000000e+01
2.915700000000000000e+04,-2.000000000000000164e-05,2.000000000000000164e-05,-1.000000000000000048e-04,5.000000000000000240e-05,2.000000000000000096e-04,1.199999999999999895e-04,1.300000000000000157e-04,0.000000000000000000e+00,2.000000000000000000e+00,1.400000000000000000e+01
2.915800000000000000e+04,-2.000000000000000164e-05,2.000000000000000164e-05,-1.000000000000000048e-04,5.000000000000000240e-05,2.000000000000000096e-04,1.199999999999999895e-04,1.300000000000000157e-04,0.000000000000000000e+00,2.000000000000000000e+00,1.400000000000000000e+01
2.915900000000000000e+04,-2.000000000000000164e-05,2.000000000000000164e-05,-1.000000000000000048e-04,5.000000000000000240e-05,2.000000000000000096e-04,1.199999999999999895e-04,1.300000000000000157e-04,0.000000000000000000e+00,2.000000000000000000e+00,1.400000000000000000e+01
2.916000000000000000e+04,-2.000000000000000164e-05,2.000000000000000164e-05,-1.000000000000000048e-04,5.000000000000000240e-05,2.000000000000000096e-04,1.199999999999999895e-04,1.300000000000000157e-04,0.000000000000000000e+00,2.000000000000000000e+00,1.400000000000000000e+01
2.916100000000000000e+04,-2.000000000000000164e-05,2.000000000000000164e-05,-1.000000000000000048e-04,5.000000000000000240e-05,2.000000000000000096e-04,1.199999999999999895e-04,1.300000000000000157e-04,0.000000000000000000e+00,2.000000000000000000e+00,1.400000000000000000e+01
2.916200000000000000e+04,-2.000000000000000164e-05,2.000000000000000164e-05,-1.000000000000000048e-04,5.000000000000000240e-05,2.000000000000000096e-04,1.199999999999999895e-04,1.300000000000000157e-04,0.000000000000000000e+00,2.000000000000000000e+00,1.400000000000000000e+01
2.916300000000000000e+04,-2.000000000000000164e-05,2.000000000000000164e-05,-1.000000000000000048e-04,5.000000000000000240e-05,2.000000000000000096e-04,1.199999999999999895e-04,1.300000000000000157e-04,0.000000000000000000e+00,2.000000000000000000e+00,1.400000000000000000e+01
2.916400000000000000e+04,-2.000000000000000164e-05,2.000000000000000164e-05,-1.000000000000000048e-04,5.000000000000000240e-05,2.000000000000000096e-04,1.199999999999999895e-04,1.300000000000000157e-04,0.000000000000000000e+00,2.000000000000000000e+00,1.400000000000000000e+01
2.916500000000000000e+04,-2.000000000000000164e-05,2.000000000000000164e-05,-1.000000000000000048e-04,5.000000000000000240e-05,2.000000000000000096e-04,1.199999999999999895e-04,1.300000000000000157e-04,0.000000000000000000e+00,2.000000000000000000e+00,1.400000000000000000e+01
2.916600000000000000e+04,-4.799999999999999580e-04,-1.499999999999999869e-04,0.000000000000000000e+00,5.999999999999999474e-05,-1.399999999999999877e-04,-5.500000000000000331e-04,-1.600000000000000131e-04,-1.100000000000000039e-04,2.000000000000000000e+00,1.400000000000000000e+01
2.916700000000000000e+04,2.100000000000000087e-04,-5.999999999999999474e-05,-8.000000000000000654e-05,-2.299999999999999799e-04,-2.200000000000000078e-04,-1.499999999999999869e-04,-3.099999999999999999e-04,-3.200000000000000262e-04,2.000000000000000000e+00,1.400000000000000000e+01
2.916800000000000000e+04,2.100000000000000087e-04,-5.999999999999999474e-05,-8.000000000000000654e-05,-2.299999999999999799e-04,-2.200000000000000078e-04,-1.499999999999999869e-04,-3.099999999999999999e-04,-3.200000000000000262e-04,2.000000000000000000e+00,1.400000000000000000e+01
2.916900000000000000e+04,2.100000000000000087e-04,-5.999999999999999474e-05,-8.000000000000000654e-05,-2.299999999999999799e-04,-2.200000000000000078e-04,-1.499999999999999869e-04,-3.099999999999999999e-04,-3.200000000000000262e-04,2.000000000000000000e+00,1.400000000000000000e+01
2.917000000000000000e+04,2.100000000000000087e-04,-5.999999999999999474e-05,-8.000000000000000654e-05,-2.299999999999999799e-04,-2.200000000000000078e-04,-1.499999999999999869e-04,-3.099999999999999999e-04,-3.200000000000000262e-04,2.000000000000000000e+00,1.400000000000000000e+01
2.917100000000000000e+04,2.100000000000000087e-04,-5.999999999999999474e-05,-8.000000000000000654e-05,-2.299999999999999799e-04,-2.200000000000000078e-04,-1.499999999999999869e-04,-3.099999999999999999e-04,-3.200000000000000262e-04,2.000000000000000000e+00,1.400000000000000000e+01
2.917200000000000000e+04,2.100000000000000087e-04,-5.999999999999999474e-05,-8.000000000000000654e-05,-2.299999999999999799e-04,-2.200000000000000078e-04,-1.499999999999999869e-04,-3.099999999999999999e-04,-3.200000000000000262e-04,2.000000000000000000e+00,1.400000000000000000e+01
2.917300000000000000e+04,2.100000000000000087e-04,-5.999999999999999474e-05,-8.000000000000000654e-05,-2.299999999999999799e-04,-2.200000000000000078e-04,-1.499999999999999869e-04,-3.099999999999999999e-04,-3.200000000000000262e-04,2.000000000000000000e+00,1.400000000000000000e+01
2.917400000000000000e+04,2.100000000000000087e-04,-5.999999999999999474e-05,-8.000000000000000654e-05,-2.299999999999999799e-04,-2.200000000000000078e-04,-1.499999999999999869e-04,-3.099999999999999999e-04,-3.200000000000000262e-04,2.000000000000000000e+00,1.400000000000000000e+01
2.917500000000000000e+04,2.100000000000000087e-04,-5.999999999999999474e-05,-8.000000000000000654e-05,-2.299999999999999799e-04,-2.200000000000000078e-04,-1.499999999999999869e-04,-3.099999999999999999e-04,-3.200000000000000262e-04,2.000000000000000000e+00,1.400000000000000000e+01
2.917600000000000000e+04,2.100000000000000087e-04,-5.999999999999999474e-05,-8.000000000000000654e-05,-2.299999999999999799e-04,-2.200000000000000078e-04,-1.499999999999999869e-04,-3.099999999999999999e-04,-3.200000000000000262e-04,2.000000000000000000e+00,1.400000000000000000e+01
2.917700000000000000e+04,2.100000000000000087e-04,-5.999999999999999474e-05,-8.000000000000000654e-05,-2.299999999999999799e-04,-2.200000000000000078e-04,-1.499999999999999869e-04,-3.099999999999999999e-04,-3.200000000000000262e-04,2.000000000000000000e+00,1.400000000000000000e+01
2.917800000000000000e+04,2.100000000000000087e-04,-5.999999999999999474e-05,-8.000000000000000654e-05,-2.299999999999999799e-04,-2.200000000000000078e-04,-1.499999999999999869e-04,-3.099999999999999999e-04,-3.200000000000000262e-04,2.000000000000000000e+00,1.400000000000000000e+01
2.917900000000000000e+04,2.100000000000000087e-04,-5.999999999999999474e-05,-8.000000000000000654e-05,-2.299999999999999799e-04,-2.200000000000000078e-04,-1.499999999999999869e-04,-3.099999999999999999e-04,-3.200000000000000262e-04,2.000000000000000000e+00,1.400000000000000000e+01
2.918000000000000000e+04,2.100000000000000087e-04,-5.999999999999999474e-05,-8.000000000000000654e-05,-2.299999999999999799e-04,-2.200000000000000078e-04,-1.499999999999999869e-04,-3.099999999999999999e-04,-3.200000000000000262e-04,2.000000000000000000e+00,1.400000000000000000e+01
2.918100000000000000e+04,2.100000000000000087e-04,-5.999999999999999474e-05,-8.000000000000000654e-05,-2.299999999999999799e-04,-2.200000000000000078e-04,-1.499999999999999869e-04,-3.099999999999999999e-04,-3.200000000000000262e-04,2.000000000000000000e+00,1.400000000000000000e+01
2.918200000000000000e+04,2.100000000000000087e-04,-5.999999999999999474e-05,-8.000000000000000654e-05,-2.299999999999999799e-04,-2.200000000000000078e-04,-1.499999999999999869e-04,-3.099999999999999999e-04,-3.200000000000000262e-04,2.000000000000000000e+00,1.400000000000000000e+01
2.918300000000000000e+04,2.100000000000000087e-04,-5.999999999999999474e-05,-8.000000000000000654e-05,-2.299999999999999799e-04,-2.200000000000000078e-04,-1.499999999999999869e-04,-3.099999999999999999e-04,-3.200000000000000262e-04,2.000000000000000000e+00,1.400000000000000000e+01
2.918400000000000000e+04,2.100000000000000087e-04,-5.999999999999999474e-05,-8.000000000000000654e-05,-2.299999999999999799e-04,-2.200000000000000078e-04,-1.499999999999999869e-04,-3.099999999999999999e-04,-3.200000000000000262e-04,2.000000000000000000e+00,1.400000000000000000e+01
2.918500000000000000e+04,2.100000000000000087e-04,-5.999999999999999474e-05,-8.000000000000000654e-05,-2.299999999999999799e-04,-2.200000000000000078e-04,-1.499999999999999869e-04,-3.099999999999999999e-04,-3.200000000000000262e-04,2.000000000000000000e+00,1.400000000000000000e+01
2.918600000000000000e+04,2.100000000000000087e-04,-5.999999999999999474e-05,-8.000000000000000654e-05,-2.299999999999999799e-04,-2.200000000000000078e-04,-1.499999999999999869e-04,-3.099999999999999999e-04,-3.200000000000000262e-04,2.000000000000000000e+00,1.400000000000000000e+01
2.918900000000000000e+04,4.700000000000000401e-04,1.399999999999999877e-04,1.000000000000000082e-05,-1.800000000000000113e-04,-1.000000000000000048e-04,3.200000000000000262e-04,2.999999999999999737e-04,6.300000000000000261e-04,2.000000000000000000e+00,1.400000000000000000e+01
2.919000000000000000e+04,4.700000000000000401e-04,1.399999999999999877e-04,1.000000000000000082e-05,-1.800000000000000113e-04,-1.000000000000000048e-04,3.200000000000000262e-04,2.999999999999999737e-04,6.300000000000000261e-04,2.000000000000000000e+00,1.400000000000000000e+01
2.919100000000000000e+04,4.700000000000000401e-04,1.399999999999999877e-04,1.000000000000000082e-05,-1.800000000000000113e-04,-1.000000000000000048e-04,3.200000000000000262e-04,2.999999999999999737e-04,6.300000000000000261e-04,2.000000000000000000e+00,1.400000000000000000e+01
2.919200000000000000e+04,4.700000000000000401e-04,1.399999999999999877e-04,1.000000000000000082e-05,-1.800000000000000113e-04,-1.000000000000000048e-04,3.200000000000000262e-04,2.999999999999999737e-04,6.300000000000000261e-04,2.000000000000000000e+00,1.400000000000000000e+01
2.919300000000000000e+04,4.700000000000000401e-04,1.399999999999999877e-04,1.000000000000000082e-05,-1.800000000000000113e-04,-1.000000000000000048e-04,3.200000000000000262e-04,2.999999999999999737e-04,6.300000000000000261e-04,2.000000000000000000e+00,1.400000000000000000e+01
2.919400000000000000e+04,4.700000000000000401e-04,1.399999999999999877e-04,1.000000000000000082e-05,-1.800000000000000113e-04,-1.000000000000000048e-04,3.200000000000000262e-04,2.999999999999999737e-04,6.300000000000000261e-04,2.000000000000000000e+00,1.400000000000000000e+01
2.919600000000000000e+04,4.700000000000000401e-04,1.399999999999999877e-04,1.000000000000000082e-05,-1.800000000000000113e-04,-1.000000000000000048e-04,3.200000000000000262e-04,2.999999999999999737e-04,6.300000000000000261e-04,2.000000000000000000e+00,1.400000000000000000e+01
2.919700000000000000e+04,4.700000000000000401e-04,1.399999999999999877e-04,1.000000000000000082e-05,-1.800000000000000113e-04,-1.000000000000000048e-04,3.200000000000000262e-04,2.999999999999999737e-04,6.300000000000000261e-04,2.000000000000000000e+00,1.400000000000000000e+01
2.919800000000000000e+04,4.700000000000000401e-04,1.399999999999999877e-04,1.000000000000000082e-05,-1.800000000000000113e-04,-1.000000000000000048e-04,3.200000000000000262e-04,2.999999999999999737e-04,6.300000000000000261e-04,2.000000000000000000e+00,1.400000000000000000e+01
2.919900000000000000e+04,4.700000000000000401e-04,1.399999999999999877e-04,1.000000000000000082e-05,-1.800000000000000113e-04,-1.000000000000000048e-04,3.200000000000000262e-04,2.999999999999999737e-04,6.300000000000000261e-04,2.000000000000000000e+00,1.400000000000000000e+01
2.920000000000000000e+04,4.700000000000000401e-04,1.399999999999999877e-04,1.000000000000000082e-05,-1.800000000000000113e-04,-1.000000000000000048e-04,3.200000000000000262e-04,2.999999999999999737e-04,6.300000000000000261e-04,2.000000000000000000e+00,1.400000000000000000e+01
2.920100000000000000e+04,4.700000000000000401e-04,1.399999999999999877e-04,1.000000000000000082e-05,-1.800000000000000113e-04,-1.000000000000000048e-04,3.200000000000000262e-04,2.999999999999999737e-04,6.300000000000000261e-04,2.000000000000000000e+00,1.400000000000000000e+01
2.920200000000000000e+04,4.700000000000000401e-04,1.399999999999999877e-04,1.000000000000000082e-05,-1.800000000000000113e-04,-1.000000000000000048e-04,3.200000000000000262e-04,2.999999999999999737e-04,6.300000000000000261e-04,2.000000000000000000e+00,1.400000000000000000e+01
2.920300000000000000e+04,4.700000000000000401e-04,1.399999999999999877e-04,1.000000000000000082e-05,-1.800000000000000113e-04,-1.000000000000000048e-04,3.200000000000000262e-04,2.999999999999999737e-04,6.300000000000000261e-04,2.000000000000000000e+00,1.400000000000000000e+01
2.920400000000000000e+04,4.700000000000000401e-04,1.399999999999999877e-04,1.000000000000000082e-05,-1.800000000000000113e-04,-1.000000000000000048e-04,3.200000000000000262e-04,2.999999999999999737e-04,6.300000000000000261e-04,2.000000000000000000e+00,1.400000000000000000e+01
2.920500000000000000e+04,4.700000000000000401e-04,1.399999999999999877e-04,1.000000000000000082e-05,-1.800000000000000113e-04,-1.000000000000000048e-04,3.200000000000000262e-04,2.999999999999999737e-04,6.300000000000000261e-04,2.000000000000000000e+00,1.400000000000000000e+01
2.920600000000000000e+04,4.700000000000000401e-04,1.399999999999999877e-04,1.000000000000000082e-05,-1.800000000000000113e-04,-1.000000000000000048e-04,3.200000000000000262e-04,2.999999999999999737e-04,6.300000000000000261e-04,2.000000000000000000e+00,1.400000000000000000e+01
2.920700000000000000e+04,4.700000000000000401e-04,1.399999999999999877e-04,1.000000000000000082e-05,-1.800000000000000113e-04,-1.000000000000000048e-04,3.200000000000000262e-04,2.999999999999999737e-04,6.300000000000000261e-04,2.000000000000000000e+00,1.400000000000000000e+01
2.920800000000000000e+04,4.700000000000000401e-04,1.399999999999999877e-04,1.000000000000000082e-05,-1.800000000000000113e-04,-1.000000000000000048e-04,3.200000000000000262e-04,2.999999999999999737e-04,6.300000000000000261e-04,2.000000000000000000e+00,1.400000000000000000e+01
2.920900000000000000e+04,4.700000000000000401e-04,1.399999999999999877e-04,1.000000000000000082e-05,-1.800000000000000113e-04,-1.000000000000000048e-04,3.200000000000000262e-04,2.999999999999999737e-04,6.300000000000000261e-04,2.000000000000000000e+00,1.400000000000000000e+01
2.921000000000000000e+04,1.000000000000000082e-05,2.999999999999999737e-05,2.999999999999999737e-05,3.899999999999999929e-04,4.200000000000000174e-04,7.200000000000000453e-04,-1.199999999999999895e-04,-5.999999999999999474e-04,2.000000000000000000e+00,1.400000000000000000e+01
2.921100000000000000e+04,-1.399999999999999877e-04,1.000000000000000082e-05,-2.299999999999999799e-04,1.600000000000000131e-04,2.999999999999999737e-05,-7.599999999999999334e-04,-5.200000000000000629e-04,-5.099999999999999282e-04,2.000000000000000000e+00,1.400000000000000000e+01
2.921200000000000000e+04,-1.399999999999999877e-04,1.000000000000000082e-05,-2.299999999999999799e-04,1.600000000000000131e-04,2.999999999999999737e-05,-7.599999999999999334e-04,-5.200000000000000629e-04,-5.099999999999999282e-04,2.000000000000000000e+00,1.400000000000000000e+01
2.921300000000000000e+04,-1.399999999999999877e-04,1.000000000000000082e-05,-2.299999999999999799e-04,1.600000000000000131e-04,2.999999999999999737e-05,-7.599999999999999334e-04,-5.200000000000000629e-04,-5.099999999999999282e-04,2.000000000000000000e+00,1.400000000000000000e+01
2.921400000000000000e+04,-1.399999999999999877e-04,1.000000000000000082e-05,-2.299999999999999799e-04,1.600000000000000131e-04,2.999999999999999737e-05,-7.599999999999999334e-04,-5.200000000000000629e-04,-5.099999999999999282e-04,2.000000000000000000e+00,1.400000000000000000e+01
2.921500000000000000e+04,-1.399999999999999877e-04,1.000000000000000082e-05,-2.299999999999999799e-04,1.600000000000000131e-04,2.999999999999999737e-05,-7.599999999999999334e-04,-5.200000000000000629e-04,-5.099999999999999282e-04,2.000000000000000000e+00,1.400000000000000000e+01
2.921600000000000000e+04,-1.399999999999999877e-04,1.000000000000000082e-05,-2.299999999999999799e-04,1.600000000000000131e-04,2.999999999999999737e-05,-7.599999999999999334e-04,-5.200000000000000629e-04,-5.099999999999999282e-04,2.000000000000000000e+00,1.400000000000000000e+01
2.921700000000000000e+04,-1.399999999999999877e-04,1.000000000000000082e-05,-2.299999999999999799e-04,1.600000000000000131e-04,2.999999999999999737e-05,-7.599999999999999334e-04,-5.200000000000000629e-04,-5.099999999999999282e-04,2.000000000000000000e+00,1.400000000000000000e+01
2.921800000000000000e+04,-1.399999999999999877e-04,1.000000000000000082e-05,-2.299999999999999799e-04,1.600000000000000131e-04,2.999999999999999737e-05,-7.599999999999999334e-04,-5.200000000000000629e-04,-5.099999999999999282e-04,2.000000000000000000e+00,1.400000000000000000e+01
2.921900000000000000e+04,-1.399999999999999877e-04,1.000000000000000082e-05,-2.299999999999999799e-04,1.600000000000000131e-04,2.999999999999999737e-05,-7.599999999999999334e-04,-5.200000000000000629e-04,-5.099999999999999282e-04,2.000000000000000000e+00,1.400000000000000000e+01
2.922000000000000000e+04,-1.399999999999999877e-04,1.000000000000000082e-05,-2.299999999999999799e-04,1.600000000000000131e-04,2.999999999999999737e-05,-7.599999999999999334e-04,-5.200000000000000629e-04,-5.099999999999999282e-04,2.000000000000000000e+00,1.400000000000000000e+01
2.922100000000000000e+04,-1.399999999999999877e-04,1.000000000000000082e-05,-2.299999999999999799e-04,1.600000000000000131e-04,2.999999999999999737e-05,-7.599999999999999334e-04,-5.200000000000000629e-04,-5.099999999999999282e-04,2.000000000000000000e+00,1.400000000000000000e+01
2.922200000000000000e+04,-1.399999999999999877e-04,1.000000000000000082e-05,-2.299999999999999799e-04,1.600000000000000131e-04,2.999999999999999737e-05,-7.599999999999999334e-04,-5.200000000000000629e-04,-5.099999999999999282e-04,2.000000000000000000e+00,1.400000000000000000e+01
2.922300000000000000e+04,-1.399999999999999877e-04,1.000000000000000082e-05,-2.299999999999999799e-04,1.600000000000000131e-04,2.999999999999999737e-05,-7.599999999999999334e-04,-5.200000000000000629e-04,-5.099999999999999282e-04,2.000000000000000000e+00,1.400000000000000000e+01
2.922400000000000000e+04,-1.399999999999999877e-04,1.000000000000000082e-05,-2.299999999999999799e-04,1.600000000000000131e-04,2.999999999999999737e-05,-7.599999999999999334e-04,-5.200000000000000629e-04,-5.099999999999999282e-04,2.000000000000000000e+00,1.400000000000000000e+01
2.922500000000000000e+04,-2.999999999999999737e-04,-1.300000000000000157e-04,6.999999999999999387e-05,-2.000000000000000164e-05,-2.299999999999999799e-04,-4.200000000000000174e-04,2.999999999999999737e-05,-2.799999999999999755e-04,2.000000000000000000e+00,1.400000000000000000e+01
2.922600000000000000e+04,-1.199999999999999895e-04,-9.000000000000000567e-05,6.999999999999999387e-05,7.900000000000000121e-04,3.099999999999999999e-04,-5.000000000000000240e-05,-5.999999999999999474e-05,5.699999999999999772e-04,2.000000000000000000e+00,1.400000000000000000e+01
2.922700000000000000e+04,-1.199999999999999895e-04,-9.000000000000000567e-05,6.999999999999999387e-05,7.900000000000000121e-04,3.099999999999999999e-04,-5.000000000000000240e-05,-5.999999999999999474e-05,5.699999999999999772e-04,2.000000000000000000e+00,1.400000000000000000e+01
2.922800000000000000e+04,-1.199999999999999895e-04,-9.000000000000000567e-05,6.999999999999999387e-05,7.900000000000000121e-04,3.099999999999999999e-04,-5.000000000000000240e-05,-5.999999999999999474e-05,5.699999999999999772e-04,2.000000000000000000e+00,1.400000000000000000e+01
2.922900000000000000e+04,-1.199999999999999895e-04,-9.000000000000000567e-05,6.999999999999999387e-05,7.900000000000000121e-04,3.099999999999999999e-04,-5.000000000000000240e-05,-5.999999999999999474e-05,5.699999999999999772e-04,2.000000000000000000e+00,1.400000000000000000e+01
2.923000000000000000e+04,-1.199999999999999895e-04,-9.000000000000000567e-05,6.999999999999999387e-05,7.900000000000000121e-04,3.099999999999999999e-04,-5.000000000000000240e-05,-5.999999999999999474e-05,5.699999999999999772e-04,2.000000000000000000e+00,1.400000000000000000e+01
2.923100000000000000e+04,-1.199999999999999895e-04,-9.000000000000000567e-05,6.999999999999999387e-05,7.900000000000000121e-04,3.099999999999999999e-04,-5.000000000000000240e-05,-5.999999999999999474e-05,5.699999999999999772e-04,2.000000000000000000e+00,1.400000000000000000e+01
2.923200000000000000e+04,-1.199999999999999895e-04,-9.000000000000000567e-05,6.999999999999999387e-05,7.900000000000000121e-04,3.099999999999999999e-04,-5.000000000000000240e-05,-5.999999999999999474e-05,5.699999999999999772e-04,2.000000000000000000e+00,1.400000000000000000e+01
2.923300000000000000e+04,-1.199999999999999895e-04,-9.000000000000000567e-05,6.999999999999999387e-05,7.900000000000000121e-04,3.099999999999999999e-04,-5.000000000000000240e-05,-5.999999999999999474e-05,5.699999999999999772e-04,2.000000000000000000e+00,1.400000000000000000e+01
2.923400000000000000e+04,-1.199999999999999895e-04,-9.000000000000000567e-05,6.999999999999999387e-05,7.900000000000000121e-04,3.099999999999999999e-04,-5.000000000000000240e-05,-5.999999999999999474e-05,5.699999999999999772e-04,2.000000000000000000e+00,1.400000000000000000e+01
2.923500000000000000e+04,-1.199999999999999895e-04,-9.000000000000000567e-05,6.999999999999999387e-05,7.900000000000000121e-04,3.099999999999999999e-04,-5.000000000000000240e-05,-5.999999999999999474e-05,5.699999999999999772e-04,2.000000000000000000e+00,1.400000000000000000e+01
2.923600000000000000e+04,-1.199999999999999895e-04,-9.000000000000000567e-05,6.999999999999999387e-05,7.900000000000000121e-04,3.099999999999999999e-04,-5.000000000000000240e-05,-5.999999999999999474e-05,5.699999999999999772e-04,2.000000000000000000e+00,1.400000000000000000e+01
2.923800000000000000e+04,-1.199999999999999895e-04,-9.000000000000000567e-05,6.999999999999999387e-05,7.900000000000000121e-04,3.099999999999999999e-04,-5.000000000000000240e-05,-5.999999999999999474e-05,5.699999999999999772e-04,2.000000000000000000e+00,1.400000000000000000e+01
2.923900000000000000e+04,-1.199999999999999895e-04,-9.000000000000000567e-05,6.999999999999999387e-05,7.900000000000000121e-04,3.099999999999999999e-04,-5.000000000000000240e-05,-5.999999999999999474e-05,5.699999999999999772e-04,2.000000000000000000e+00,1.400000000000000000e+01
2.924000000000000000e+04,-1.199999999999999895e-04,-9.000000000000000567e-05,6.999999999999999387e-05,7.900000000000000121e-04,3.099999999999999999e-04,-5.000000000000000240e-05,-5.999999999999999474e-05,5.699999999999999772e-04,2.000000000000000000e+00,1.400000000000000000e+01
2.924100000000000000e+04,-1.199999999999999895e-04,-9.000000000000000567e-05,6.999999999999999387e-05,7.900000000000000121e-04,3.099999999999999999e-04,-5.000000000000000240e-05,-5.999999999999999474e-05,5.699999999999999772e-04,2.000000000000000000e+00,1.400000000000000000e+01
2.924200000000000000e+04,-1.199999999999999895e-04,-9.000000000000000567e-05,6.999999999999999387e-05,7.900000000000000121e-04,3.099999999999999999e-04,-5.000000000000000240e-05,-5.999999999999999474e-05,5.699999999999999772e-04,2.000000000000000000e+00,1.400000000000000000e+01
2.924300000000000000e+04,-1.199999999999999895e-04,-9.000000000000000567e-05,6.999999999999999387e-05,7.900000000000000121e-04,3.099999999999999999e-04,-5.000000000000000240e-05,-5.999999999999999474e-05,5.699999999999999772e-04,2.000000000000000000e+00,1.400000000000000000e+01
2.924400000000000000e+04,-1.199999999999999895e-04,-9.000000000000000567e-05,6.999999999999999387e-05,7.900000000000000121e-04,3.099999999999999999e-04,-5.000000000000000240e-05,-5.999999999999999474e-05,5.699999999999999772e-04,2.000000000000000000e+00,1.400000000000000000e+01
2.924500000000000000e+04,-1.199999999999999895e-04,-9.000000000000000567e-05,6.999999999999999387e-05,7.900000000000000121e-04,3.099999999999999999e-04,-5.000000000000000240e-05,-5.999999999999999474e-05,5.699999999999999772e-04,2.000000000000000000e+00,1.400000000000000000e+01
2.924600000000000000e+04,-1.199999999999999895e-04,-9.000000000000000567e-05,6.999999999999999387e-05,7.900000000000000121e-04,3.099999999999999999e-04,-5.000000000000000240e-05,-5.999999999999999474e-05,5.699999999999999772e-04,2.000000000000000000e+00,1.400000000000000000e+01
2.924700000000000000e+04,-1.199999999999999895e-04,-9.000000000000000567e-05,6.999999999999999387e-05,7.900000000000000121e-04,3.099999999999999999e-04,-5.000000000000000240e-05,-5.999999999999999474e-05,5.699999999999999772e-04,2.000000000000000000e+00,1.400000000000000000e+01
2.924800000000000000e+04,-1.199999999999999895e-04,-9.000000000000000567e-05,6.999999999999999387e-05,7.900000000000000121e-04,3.099999999999999999e-04,-5.000000000000000240e-05,-5.999999999999999474e-05,5.699999999999999772e-04,2.000000000000000000e+00,1.400000000000000000e+01
2.924900000000000000e+04,-1.199999999999999895e-04,-9.000000000000000567e-05,6.999999999999999387e-05,7.900000000000000121e-04,3.099999999999999999e-04,-5.000000000000000240e-05,-5.999999999999999474e-05,5.699999999999999772e-04,2.000000000000000000e+00,1.400000000000000000e+01
2.925000000000000000e+04,-1.199999999999999895e-04,-9.000000000000000567e-05,6.999999999999999387e-05,7.900000000000000121e-04,3.099999999999999999e-04,-5.000000000000000240e-05,-5.999999999999999474e-05,5.699999999999999772e-04,2.000000000000000000e+00,1.400000000000000000e+01
2.925100000000000000e+04,-1.199999999999999895e-04,-9.000000000000000567e-05,6.999999999999999387e-05,7.900000000000000121e-04,3.099999999999999999e-04,-5.000000000000000240e-05,-5.999999999999999474e-05,5.699999999999999772e-04,2.000000000000000000e+00,1.400000000000000000e+01
2.925200000000000000e+04,-1.199999999999999895e-04,-9.000000000000000567e-05,6.999999999999999387e-05,7.900000000000000121e-04,3.099999999999999999e-04,-5.000000000000000240e-05,-5.999999999999999474e-05,5.699999999999999772e-04,2.000000000000000000e+00,1.400000000000000000e+01
2.925300000000000000e+04,-1.199999999999999895e-04,-9.000000000000000567e-05,6.999999999999999387e-05,7.900000000000000121e-04,3.099999999999999999e-04,-5.000000000000000240e-05,-5.999999999999999474e-05,5.699999999999999772e-04,2.000000000000000000e+00,1.400000000000000000e+01
2.925400000000000000e+04,-1.199999999999999895e-04,-9.000000000000000567e-05,6.999999999999999387e-05,7.900000000000000121e-04,3.099999999999999999e-04,-5.000000000000000240e-05,-5.999999999999999474e-05,5.699999999999999772e-04,2.000000000000000000e+00,1.400000000000000000e+01
2.925500000000000000e+04,-3.299999999999999982e-04,1.000000000000000082e-05,-5.999999999999999474e-05,8.000000000000000654e-05,2.999999999999999737e-05,-1.600000000000000131e-04,-1.199999999999999895e-04,-4.400000000000000157e-04,2.000000000000000000e+00,1.400000000000000000e+01
2.925600000000000000e+04,-6.999999999999999929e-04,-2.799999999999999755e-04,-2.900000000000000017e-04,-4.000000000000000192e-04,-4.499999999999999877e-04,-4.000000000000000327e-05,8.000000000000000654e-05,-8.400000000000000348e-04,2.000000000000000000e+00,1.400000000000000000e+01
2.925700000000000000e+04,-6.999999999999999929e-04,-2.799999999999999755e-04,-2.900000000000000017e-04,-4.000000000000000192e-04,-4.499999999999999877e-04,-4.000000000000000327e-05,8.000000000000000654e-05,-8.400000000000000348e-04,2.000000000000000000e+00,1.400000000000000000e+01
2.925800000000000000e+04,-6.999999999999999929e-04,-2.799999999999999755e-04,-2.900000000000000017e-04,-4.000000000000000192e-04,-4.499999999999999877e-04,-4.000000000000000327e-05,8.000000000000000654e-05,-8.400000000000000348e-04,2.000000000000000000e+00,1.400000000000000000e+01
2.925900000000000000e+04,-6.999999999999999929e-04,-2.799999999999999755e-04,-2.900000000000000017e-04,-4.000000000000000192e-04,-4.499999999999999877e-04,-4.000000000000000327e-05,8.000000000000000654e-05,-8.400000000000000348e-04,2.000000000000000000e+00,1.400000000000000000e+01
2.926000000000000000e+04,-6.999999999999999929e-04,-2.799999999999999755e-04,-2.900000000000000017e-04,-4.000000000000000192e-04,-4.499999999999999877e-04,-4.000000000000000327e-05,8.000000000000000654e-05,-8.400000000000000348e-04,2.000000000000000000e+00,1.400000000000000000e+01
2.926100000000000000e+04,-6.999999999999999929e-04,-2.799999999999999755e-04,-2.900000000000000017e-04,-4.000000000000000192e-04,-4.499999999999999877e-04,-4.000000000000000327e-05,8.000000000000000654e-05,-8.400000000000000348e-04,2.000000000000000000e+00,1.400000000000000000e+01
2.926200000000000000e+04,-6.999999999999999929e-04,-2.799999999999999755e-04,-2.900000000000000017e-04,-4.000000000000000192e-04,-4.499999999999999877e-04,-4.000000000000000327e-05,8.000000000000000654e-05,-8.400000000000000348e-04,2.000000000000000000e+00,1.400000000000000000e+01
2.926300000000000000e+04,-6.999999999999999929e-04,-2.799999999999999755e-04,-2.900000000000000017e-04,-4.000000000000000192e-04,-4.499999999999999877e-04,-4.000000000000000327e-05,8.000000000000000654e-05,-8.400000000000000348e-04,2.000000000000000000e+00,1.400000000000000000e+01
2.926400000000000000e+04,-6.999999999999999929e-04,-2.799999999999999755e-04,-2.900000000000000017e-04,-4.000000000000000192e-04,-4.499999999999999877e-04,-4.000000000000000327e-05,8.000000000000000654e-05,-8.400000000000000348e-04,2.000000000000000000e+00,1.400000000000000000e+01
2.926500000000000000e+04,-6.999999999999999929e-04,-2.799999999999999755e-04,-2.900000000000000017e-04,-4.000000000000000192e-04,-4.499999999999999877e-04,-4.000000000000000327e-05,8.000000000000000654e-05,-8.400000000000000348e-04,2.000000000000000000e+00,1.400000000000000000e+01
2.926600000000000000e+04,-6.999999999999999929e-04,-2.799999999999999755e-04,-2.900000000000000017e-04,-4.000000000000000192e-04,-4.499999999999999877e-04,-4.000000000000000327e-05,8.000000000000000654e-05,-8.400000000000000348e-04,2.000000000000000000e+00,1.400000000000000000e+01
2.926700000000000000e+04,-6.999999999999999929e-04,-2.799999999999999755e-04,-2.900000000000000017e-04,-4.000000000000000192e-04,-4.499999999999999877e-04,-4.000000000000000327e-05,8.000000000000000654e-05,-8.400000000000000348e-04,2.000000000000000000e+00,1.400000000000000000e+01
2.926800000000000000e+04,-6.999999999999999929e-04,-2.799999999999999755e-04,-2.900000000000000017e-04,-4.000000000000000192e-04,-4.499999999999999877e-04,-4.000000000000000327e-05,8.000000000000000654e-05,-8.400000000000000348e-04,2.000000000000000000e+00,1.400000000000000000e+01
2.926900000000000000e+04,3.699999999999999947e-04,1.199999999999999895e-04,8.000000000000000654e-05,4.499999999999999877e-04,9.000000000000000567e-05,-5.000000000000000240e-05,-1.000000000000000048e-04,9.000000000000000567e-05,2.000000000000000000e+00,1.400000000000000000e+01
2.927000000000000000e+04,-9.000000000000000567e-05,-5.000000000000000240e-05,-4.000000000000000327e-05,-2.399999999999999790e-04,9.000000000000000567e-05,6.999999999999999387e-05,-1.699999999999999851e-04,2.299999999999999799e-04,2.000000000000000000e+00,1.400000000000000000e+01
2.927100000000000000e+04,-9.000000000000000567e-05,-5.000000000000000240e-05,-4.000000000000000327e-05,-2.399999999999999790e-04,9.000000000000000567e-05,6.999999999999999387e-05,-1.699999999999999851e-04,2.299999999999999799e-04,2.000000000000000000e+00,1.400000000000000000e+01
2.927200000000000000e+04,-9.000000000000000567e-05,-5.000000000000000240e-05,-4.000000000000000327e-05,-2.399999999999999790e-04,9.000000000000000567e-05,6.999999999999999387e-05,-1.699999999999999851e-04,2.299999999999999799e-04,2.000000000000000000e+00,1.400000000000000000e+01
2.927300000000000000e+04,-9.000000000000000567e-05,-5.000000000000000240e-05,-4.000000000000000327e-05,-2.399999999999999790e-04,9.000000000000000567e-05,6.999999999999999387e-05,-1.699999999999999851e-04,2.299999999999999799e-04,2.000000000000000000e+00,1.400000000000000000e+01
2.927400000000000000e+04,-9.000000000000000567e-05,-5.000000000000000240e-05,-4.000000000000000327e-05,-2.399999999999999790e-04,9.000000000000000567e-05,6.999999999999999387e-05,-1.699999999999999851e-04,2.299999999999999799e-04,2.000000000000000000e+00,1.400000000000000000e+01
2.927500000000000000e+04,-9.000000000000000567e-05,-5.000000000000000240e-05,-4.000000000000000327e-05,-2.399999999999999790e-04,9.000000000000000567e-05,6.999999999999999387e-05,-1.699999999999999851e-04,2.299999999999999799e-04,2.000000000000000000e+00,1.400000000000000000e+01
2.927600000000000000e+04,-9.000000000000000567e-05,-5.000000000000000240e-05,-4.000000000000000327e-05,-2.399999999999999790e-04,9.000000000000000567e-05,6.999999999999999387e-05,-1.699999999999999851e-04,2.299999999999999799e-04,2.000000000000000000e+00,1.400000000000000000e+01
2.927700000000000000e+04,1.499999999999999869e-04,-2.999999999999999737e-05,-5.000000000000000240e-05,-1.800000000000000113e-04,4.000000000000000327e-05,-1.000000000000000048e-04,2.399999999999999790e-04,2.299999999999999799e-04,2.000000000000000000e+00,1.400000000000000000e+01
2.927800000000000000e+04,1.499999999999999869e-04,-2.999999999999999737e-05,-5.000000000000000240e-05,-1.800000000000000113e-04,4.000000000000000327e-05,-1.000000000000000048e-04,2.399999999999999790e-04,2.299999999999999799e-04,2.000000000000000000e+00,1.400000000000000000e+01
2.927900000000000000e+04,1.499999999999999869e-04,-2.999999999999999737e-05,-5.000000000000000240e-05,-1.800000000000000113e-04,4.000000000000000327e-05,-1.000000000000000048e-04,2.399999999999999790e-04,2.299999999999999799e-04,2.000000000000000000e+00,1.400000000000000000e+01
2.928000000000000000e+04,1.499999999999999869e-04,-2.999999999999999737e-05,-5.000000000000000240e-05,-1.800000000000000113e-04,4.000000000000000327e-05,-1.000000000000000048e-04,2.399999999999999790e-04,2.299999999999999799e-04,2.000000000000000000e+00,1.400000000000000000e+01
2.928100000000000000e+04,1.499999999999999869e-04,-2.999999999999999737e-05,-5.000000000000000240e-05,-1.800000000000000113e-04,4.000000000000000327e-05,-1.000000000000000048e-04,2.399999999999999790e-04,2.299999999999999799e-04,2.000000000000000000e+00,1.400000000000000000e+01
2.928200000000000000e+04,1.499999999999999869e-04,-2.999999999999999737e-05,-5.000000000000000240e-05,-1.800000000000000113e-04,4.000000000000000327e-05,-1.000000000000000048e-04,2.399999999999999790e-04,2.299999999999999799e-04,2.000000000000000000e+00,1.400000000000000000e+01
2.928300000000000000e+04,1.499999999999999869e-04,-2.999999999999999737e-05,-5.000000000000000240e-05,-1.800000000000000113e-04,4.000000000000000327e-05,-1.000000000000000048e-04,2.399999999999999790e-04,2.299999999999999799e-04,2.000000000000000000e+00,1.400000000000000000e+01
2.928400000000000000e+04,1.499999999999999869e-04,-2.999999999999999737e-05,-5.000000000000000240e-05,-1.800000000000000113e-04,4.000000000000000327e-05,-1.000000000000000048e-04,2.399999999999999790e-04,2.299999999999999799e-04,2.000000000000000000e+00,1.400000000000000000e+01
2.928500000000000000e+04,4.899999999999999842e-04,2.799999999999999755e-04,1.499999999999999869e-04,6.999999999999999387e-05,5.999999999999999474e-05,3.200000000000000262e-04,4.599999999999999597e-04,4.200000000000000174e-04,2.000000000000000000e+00,1.400000000000000000e+01
2.928600000000000000e+04,4.799999999999999580e-04,1.600000000000000131e-04,9.000000000000000567e-05,2.100000000000000087e-04,4.799999999999999580e-04,-3.899999999999999929e-04,-2.100000000000000087e-04,4.099999999999999912e-04,2.000000000000000000e+00,1.400000000000000000e+01
2.928800000000000000e+04,4.799999999999999580e-04,1.600000000000000131e-04,9.000000000000000567e-05,2.100000000000000087e-04,4.799999999999999580e-04,-3.899999999999999929e-04,-2.100000000000000087e-04,4.099999999999999912e-04,2.000000000000000000e+00,1.400000000000000000e+01
2.928900000000000000e+04,4.799999999999999580e-04,1.600000000000000131e-04,9.000000000000000567e-05,2.100000000000000087e-04,4.799999999999999580e-04,-3.899999999999999929e-04,-2.100000000000000087e-04,4.099999999999999912e-04,2.000000000000000000e+00,1.400000000000000000e+01
2.929000000000000000e+04,4.799999999999999580e-04,1.600000000000000131e-04,9.000000000000000567e-05,2.100000000000000087e-04,4.799999999999999580e-04,-3.899999999999999929e-04,-2.100000000000000087e-04,4.099999999999999912e-04,2.000000000000000000e+00,1.400000000000000000e+01
2.929100000000000000e+04,4.799999999999999580e-04,1.600000000000000131e-04,9.000000000000000567e-05,2.100000000000000087e-04,4.799999999999999580e-04,-3.899999999999999929e-04,-2.100000000000000087e-04,4.099999999999999912e-04,2.000000000000000000e+00,1.400000000000000000e+01
2.929200000000000000e+04,4.799999999999999580e-04,1.600000000000000131e-04,9.000000000000000567e-05,2.100000000000000087e-04,4.799999999999999580e-04,-3.899999999999999929e-04,-2.100000000000000087e-04,4.099999999999999912e-04,2.000000000000000000e+00,1.400000000000000000e+01
2.929300000000000000e+04,4.799999999999999580e-04,1.600000000000000131e-04,9.000000000000000567e-05,2.100000000000000087e-04,4.799999999999999580e-04,-3.899999999999999929e-04,-2.100000000000000087e-04,4.099999999999999912e-04,2.000000000000000000e+00,1.400000000000000000e+01
2.929400000000000000e+04,4.799999999999999580e-04,1.600000000000000131e-04,9.000000000000000567e-05,2.100000000000000087e-04,4.799999999999999580e-04,-3.899999999999999929e-04,-2.100000000000000087e-04,4.099999999999999912e-04,2.000000000000000000e+00,1.400000000000000000e+01
2.929500000000000000e+04,4.799999999999999580e-04,1.600000000000000131e-04,9.000000000000000567e-05,2.100000000000000087e-04,4.799999999999999580e-04,-3.899999999999999929e-04,-2.100000000000000087e-04,4.099999999999999912e-04,2.000000000000000000e+00,1.400000000000000000e+01
2.929600000000000000e+04,4.799999999999999580e-04,1.600000000000000131e-04,9.000000000000000567e-05,2.100000000000000087e-04,4.799999999999999580e-04,-3.899999999999999929e-04,-2.100000000000000087e-04,4.099999999999999912e-04,2.000000000000000000e+00,1.400000000000000000e+01
2.929700000000000000e+04,4.799999999999999580e-04,1.600000000000000131e-04,9.000000000000000567e-05,2.100000000000000087e-04,4.799999999999999580e-04,-3.899999999999999929e-04,-2.100000000000000087e-04,4.099999999999999912e-04,2.000000000000000000e+00,1.400000000000000000e+01
2.929800000000000000e+04,4.799999999999999580e-04,1.600000000000000131e-04,9.000000000000000567e-05,2.100000000000000087e-04,4.799999999999999580e-04,-3.899999999999999929e-04,-2.100000000000000087e-04,4.099999999999999912e-04,2.000000000000000000e+00,1.400000000000000000e+01
2.929900000000000000e+04,4.799999999999999580e-04,1.600000000000000131e-04,9.000000000000000567e-05,2.100000000000000087e-04,4.799999999999999580e-04,-3.899999999999999929e-04,-2.100000000000000087e-04,4.099999999999999912e-04,2.000000000000000000e+00,1.400000000000000000e+01
2.930000000000000000e+04,4.799999999999999580e-04,1.600000000000000131e-04,9.000000000000000567e-05,2.100000000000000087e-04,4.799999999999999580e-04,-3.899999999999999929e-04,-2.100000000000000087e-04,4.099999999999999912e-04,2.000000000000000000e+00,1.400000000000000000e+01
2.930100000000000000e+04,4.799999999999999580e-04,1.600000000000000131e-04,9.000000000000000567e-05,2.100000000000000087e-04,4.799999999999999580e-04,-3.899999999999999929e-04,-2.100000000000000087e-04,4.099999999999999912e-04,2.000000000000000000e+00,1.400000000000000000e+01
2.930200000000000000e+04,4.799999999999999580e-04,1.600000000000000131e-04,9.000000000000000567e-05,2.100000000000000087e-04,4.799999999999999580e-04,-3.899999999999999929e-04,-2.100000000000000087e-04,4.099999999999999912e-04,2.000000000000000000e+00,1.400000000000000000e+01
2.930300000000000000e+04,4.799999999999999580e-04,1.600000000000000131e-04,9.000000000000000567e-05,2.100000000000000087e-04,4.799999999999999580e-04,-3.899999999999999929e-04,-2.100000000000000087e-04,4.099999999999999912e-04,2.000000000000000000e+00,1.400000000000000000e+01
2.930400000000000000e+04,4.799999999999999580e-04,1.600000000000000131e-04,9.000000000000000567e-05,2.100000000000000087e-04,4.799999999999999580e-04,-3.899999999999999929e-04,-2.100000000000000087e-04,4.099999999999999912e-04,2.000000000000000000e+00,1.400000000000000000e+01
2.930500000000000000e+04,4.799999999999999580e-04,1.600000000000000131e-04,9.000000000000000567e-05,2.100000000000000087e-04,4.799999999999999580e-04,-3.899999999999999929e-04,-2.100000000000000087e-04,4.099999999999999912e-04,2.000000000000000000e+00,1.400000000000000000e+01
2.930600000000000000e+04,4.799999999999999580e-04,1.600000000000000131e-04,9.000000000000000567e-05,2.100000000000000087e-04,4.799999999999999580e-04,-3.899999999999999929e-04,-2.100000000000000087e-04,4.099999999999999912e-04,2.000000000000000000e+00,1.400000000000000000e+01
2.930700000000000000e+04,2.100000000000000087e-04,-5.000000000000000240e-05,1.000000000000000082e-05,-4.099999999999999912e-04,-4.200000000000000174e-04,-1.199999999999999895e-04,-3.399999999999999702e-04,-4.000000000000000327e-05,2.000000000000000000e+00,1.400000000000000000e+01
2.930800000000000000e+04,1.800000000000000113e-04,-8.000000000000000654e-05,-3.399999999999999702e-04,-2.799999999999999755e-04,0.000000000000000000e+00,5.000000000000000240e-05,-3.200000000000000262e-04,9.000000000000000567e-05,2.000000000000000000e+00,1.400000000000000000e+01
2.930900000000000000e+04,1.800000000000000113e-04,-8.000000000000000654e-05,-3.399999999999999702e-04,-2.799999999999999755e-04,0.000000000000000000e+00,5.000000000000000240e-05,-3.200000000000000262e-04,9.000000000000000567e-05,2.000000000000000000e+00,1.400000000000000000e+01
2.931000000000000000e+04,1.800000000000000113e-04,-8.000000000000000654e-05,-3.399999999999999702e-04,-2.799999999999999755e-04,0.000000000000000000e+00,5.000000000000000240e-05,-3.200000000000000262e-04,9.000000000000000567e-05,2.000000000000000000e+00,1.400000000000000000e+01
2.931100000000000000e+04,1.800000000000000113e-04,-8.000000000000000654e-05,-3.399999999999999702e-04,-2.799999999999999755e-04,0.000000000000000000e+00,5.000000000000000240e-05,-3.200000000000000262e-04,9.000000000000000567e-05,2.000000000000000000e+00,1.400000000000000000e+01
2.931200000000000000e+04,1.800000000000000113e-04,-8.000000000000000654e-05,-3.399999999999999702e-04,-2.799999999999999755e-04,0.000000000000000000e+00,5.000000000000000240e-05,-3.200000000000000262e-04,9.000000000000000567e-05,2.000000000000000000e+00,1.400000000000000000e+01
2.931300000000000000e+04,1.800000000000000113e-04,-8.000000000000000654e-05,-3.399999999999999702e-04,-2.799999999999999755e-04,0.000000000000000000e+00,5.000000000000000240e-05,-3.200000000000000262e-04,9.000000000000000567e-05,2.000000000000000000e+00,1.400000000000000000e+01
2.931400000000000000e+04,1.800000000000000113e-04,-8.000000000000000654e-05,-3.399999999999999702e-04,-2.799999999999999755e-04,0.000000000000000000e+00,5.000000000000000240e-05,-3.200000000000000262e-04,9.000000000000000567e-05,2.000000000000000000e+00,1.400000000000000000e+01
2.931500000000000000e+04,1.800000000000000113e-04,-8.000000000000000654e-05,-3.399999999999999702e-04,-2.799999999999999755e-04,0.000000000000000000e+00,5.000000000000000240e-05,-3.200000000000000262e-04,9.000000000000000567e-05,2.000000000000000000e+00,1.400000000000000000e+01
2.931600000000000000e+04,1.800000000000000113e-04,-8.000000000000000654e-05,-3.399999999999999702e-04,-2.799999999999999755e-04,0.000000000000000000e+00,5.000000000000000240e-05,-3.200000000000000262e-04,9.000000000000000567e-05,2.000000000000000000e+00,1.400000000000000000e+01
