4.687400000000000000e+04,-9.000000000000000567e-05,-2.000000000000000164e-05,-2.999999999999999737e-05,-3.499999999999999964e-04,-5.200000000000000629e-04,-5.000000000000000240e-05,-2.000000000000000164e-05,4.000000000000000327e-05,4.000000000000000000e+00,1.900000000000000000e+01
4.687500000000000000e+04,-9.000000000000000567e-05,-2.000000000000000164e-05,-2.999999999999999737e-05,-3.499999999999999964e-04,-5.200000000000000629e-04,-5.000000000000000240e-05,-2.000000000000000164e-05,4.000000000000000327e-05,4.000000000000000000e+00,1.900000000000000000e+01
4.687600000000000000e+04,-9.000000000000000567e-05,-2.000000000000000164e-05,-2.999999999999999737e-05,-3.499999999999999964e-04,-5.200000000000000629e-04,-5.000000000000000240e-05,-2.000000000000000164e-05,4.000000000000000327e-05,4.000000000000000000e+00,1.900000000000000000e+01
4.687700000000000000e+04,-9.000000000000000567e-05,-2.000000000000000164e-05,-2.999999999999999737e-05,-3.499999999999999964e-04,-5.200000000000000629e-04,-5.000000000000000240e-05,-2.000000000000000164e-05,4.000000000000000327e-05,4.000000000000000000e+00,1.900000000000000000e+01
4.687800000000000000e+04,-9.000000000000000567e-05,-2.000000000000000164e-05,-2.999999999999999737e-05,-3.499999999999999964e-04,-5.200000000000000629e-04,-5.000000000000000240e-05,-2.000000000000000164e-05,4.000000000000000327e-05,4.000000000000000000e+00,1.900000000000000000e+01
4.687900000000000000e+04,-9.000000000000000567e-05,-2.000000000000000164e-05,-2.999999999999999737e-05,-3.499999999999999964e-04,-5.200000000000000629e-04,-5.000000000000000240e-05,-2.000000000000000164e-05,4.000000000000000327e-05,4.000000000000000000e+00,1.900000000000000000e+01
4.688000000000000000e+04,-9.000000000000000567e-05,-2.000000000000000164e-05,-2.999999999999999737e-05,-3.499999999999999964e-04,-5.200000000000000629e-04,-5.000000000000000240e-05,-2.000000000000000164e-05,4.000000000000000327e-05,4.000000000000000000e+00,1.900000000000000000e+01
4.688100000000000000e+04,-9.000000000000000567e-05,-2.000000000000000164e-05,-2.999999999999999737e-05,-3.499999999999999964e-04,-5.200000000000000629e-04,-5.000000000000000240e-05,-2.000000000000000164e-05,4.000000000000000327e-05,4.000000000000000000e+00,1.900000000000000000e+01
4.688200000000000000e+04,-9.000000000000000567e-05,-2.000000000000000164e-05,-2.999999999999999737e-05,-3.499999999999999964e-04,-5.200000000000000629e-04,-5.000000000000000240e-05,-2.000000000000000164e-05,4.000000000000000327e-05,4.000000000000000000e+00,1.900000000000000000e+01
4.688300000000000000e+04,-9.000000000000000567e-05,-2.000000000000000164e-05,-2.999999999999999737e-05,-3.499999999999999964e-04,-5.200000000000000629e-04,-5.000000000000000240e-05,-2.000000000000000164e-05,4.000000000000000327e-05,4.000000000000000000e+00,1.900000000000000000e+01
4.688400000000000000e+04,-9.000000000000000567e-05,-2.000000000000000164e-05,-2.999999999999999737e-05,-3.499999999999999964e-04,-5.200000000000000629e-04,-5.000000000000000240e-05,-2.000000000000000164e-05,4.000000000000000327e-05,4.000000000000000000e+00,1.900000000000000000e+01
4.688500000000000000e+04,-9.000000000000000567e-05,-2.000000000000000164e-05,-2.999999999999999737e-05,-3.499999999999999964e-04,-5.200000000000000629e-04,-5.000000000000000240e-05,-2.000000000000000164e-05,4.000000000000000327e-05,4.000000000000000000e+00,1.900000000000000000e+01
4.688600000000000000e+04,-9.000000000000000567e-05,-2.000000000000000164e-05,-2.999999999999999737e-05,-3.499999999999999964e-04,-5.200000000000000629e-04,-5.000000000000000240e-05,-2.000000000000000164e-05,4.000000000000000327e-05,4.000000000000000000e+00,1.900000000000000000e+01
4.688700000000000000e+04,-9.000000000000000567e-05,-2.000000000000000164e-05,-2.999999999999999737e-05,-3.499999999999999964e-04,-5.200000000000000629e-04,-5.000000000000000240e-05,-2.000000000000000164e-05,4.000000000000000327e-05,4.000000000000000000e+00,1.900000000000000000e+01
4.688800000000000000e+04,-9.000000000000000567e-05,-2.000000000000000164e-05,-2.999999999999999737e-05,-3.499999999999999964e-04,-5.200000000000000629e-04,-5.000000000000000240e-05,-2.000000000000000164e-05,4.000000000000000327e-05,4.000000000000000000e+00,1.900000000000000000e+01
4.688900000000000000e+04,-9.000000000000000567e-05,-2.000000000000000164e-05,-2.999999999999999737e-05,-3.499999999999999964e-04,-5.200000000000000629e-04,-5.000000000000000240e-05,-2.000000000000000164e-05,4.000000000000000327e-05,4.000000000000000000e+00,1.900000000000000000e+01
4.689000000000000000e+04,-9.000000000000000567e-05,-2.000000000000000164e-05,-2.999999999999999737e-05,-3.499999999999999964e-04,-5.200000000000000629e-04,-5.000000000000000240e-05,-2.000000000000000164e-05,4.000000000000000327e-05,4.000000000000000000e+00,1.900000000000000000e+01
4.689100000000000000e+04,2.999999999999999737e-05,6.999999999999999387e-05,1.499999999999999869e-04,-6.999999999999999387e-05,7.900000000000000121e-04,-2.000000000000000096e-04,9.000000000000000567e-05,6.999999999999999387e-05,4.000000000000000000e+00,1.900000000000000000e+01
4.689200000000000000e+04,0.000000000000000000e+00,4.000000000000000327e-05,1.000000000000000048e-04,5.900000000000000296e-04,-2.799999999999999755e-04,-5.999999999999999474e-05,-1.000000000000000082e-05,-2.000000000000000164e-05,4.000000000000000000e+00,1.900000000000000000e+01
4.689300000000000000e+04,0.000000000000000000e+00,4.000000000000000327e-05,1.000000000000000048e-04,5.900000000000000296e-04,-2.799999999999999755e-04,-5.999999999999999474e-05,-1.000000000000000082e-05,-2.000000000000000164e-05,4.000000000000000000e+00,1.900000000000000000e+01
4.689400000000000000e+04,0.000000000000000000e+00,4.000000000000000327e-05,1.000000000000000048e-04,5.900000000000000296e-04,-2.799999999999999755e-04,-5.999999999999999474e-05,-1.000000000000000082e-05,-2.000000000000000164e-05,4.000000000000000000e+00,1.900000000000000000e+01
4.689500000000000000e+04,0.000000000000000000e+00,4.000000000000000327e-05,1.000000000000000048e-04,5.900000000000000296e-04,-2.799999999999999755e-04,-5.999999999999999474e-05,-1.000000000000000082e-05,-2.000000000000000164e-05,4.000000000000000000e+00,1.900000000000000000e+01
4.689600000000000000e+04,0.000000000000000000e+00,4.000000000000000327e-05,1.000000000000000048e-04,5.900000000000000296e-04,-2.799999999999999755e-04,-5.999999999999999474e-05,-1.000000000000000082e-05,-2.000000000000000164e-05,4.000000000000000000e+00,1.900000000000000000e+01
4.689700000000000000e+04,0.000000000000000000e+00,4.000000000000000327e-05,1.000000000000000048e-04,5.900000000000000296e-04,-2.799999999999999755e-04,-5.999999999999999474e-05,-1.000000000000000082e-05,-2.000000000000000164e-05,4.000000000000000000e+00,1.900000000000000000e+01
4.689900000000000000e+04,0.000000000000000000e+00,4.000000000000000327e-05,1.000000000000000048e-04,5.900000000000000296e-04,-2.799999999999999755e-04,-5.999999999999999474e-05,-1.000000000000000082e-05,-2.000000000000000164e-05,4.000000000000000000e+00,1.900000000000000000e+01
4.690000000000000000e+04,0.000000000000000000e+00,4.000000000000000327e-05,1.000000000000000048e-04,5.900000000000000296e-04,-2.799999999999999755e-04,-5.999999999999999474e-05,-1.000000000000000082e-05,-2.000000000000000164e-05,4.000000000000000000e+00,1.900000000000000000e+01
4.690100000000000000e+04,0.000000000000000000e+00,4.000000000000000327e-05,1.000000000000000048e-04,5.900000000000000296e-04,-2.799999999999999755e-04,-5.999999999999999474e-05,-1.000000000000000082e-05,-2.000000000000000164e-05,4.000000000000000000e+00,1.900000000000000000e+01
4.690200000000000000e+04,0.000000000000000000e+00,4.000000000000000327e-05,1.000000000000000048e-04,5.900000000000000296e-04,-2.799999999999999755e-04,-5.999999999999999474e-05,-1.000000000000000082e-05,-2.000000000000000164e-05,4.000000000000000000e+00,1.900000000000000000e+01
4.690300000000000000e+04,0.000000000000000000e+00,4.000000000000000327e-05,1.000000000000000048e-04,5.900000000000000296e-04,-2.799999999999999755e-04,-5.999999999999999474e-05,-1.000000000000000082e-05,-2.000000000000000164e-05,4.000000000000000000e+00,1.900000000000000000e+01
4.690400000000000000e+04,0.000000000000000000e+00,4.000000000000000327e-05,1.000000000000000048e-04,5.900000000000000296e-04,-2.799999999999999755e-04,-5.999999999999999474e-05,-1.000000000000000082e-05,-2.000000000000000164e-05,4.000000000000000000e+00,1.900000000000000000e+01
4.690500000000000000e+04,0.000000000000000000e+00,4.000000000000000327e-05,1.000000000000000048e-04,5.900000000000000296e-04,-2.799999999999999755e-04,-5.999999999999999474e-05,-1.000000000000000082e-05,-2.000000000000000164e-05,4.000000000000000000e+00,1.900000000000000000e+01
4.690600000000000000e+04,0.000000000000000000e+00,4.000000000000000327e-05,1.000000000000000048e-04,5.900000000000000296e-04,-2.799999999999999755e-04,-5.999999999999999474e-05,-1.000000000000000082e-05,-2.000000000000000164e-05,4.000000000000000000e+00,1.900000000000000000e+01
4.690700000000000000e+04,0.000000000000000000e+00,4.000000000000000327e-05,1.000000000000000048e-04,5.900000000000000296e-04,-2.799999999999999755e-04,-5.999999999999999474e-05,-1.000000000000000082e-05,-2.000000000000000164e-05,4.000000000000000000e+00,1.900000000000000000e+01
4.690900000000000000e+04,0.000000000000000000e+00,4.000000000000000327e-05,1.000000000000000048e-04,5.900000000000000296e-04,-2.799999999999999755e-04,-5.999999999999999474e-05,-1.000000000000000082e-05,-2.000000000000000164e-05,4.000000000000000000e+00,1.900000000000000000e+01
4.691000000000000000e+04,0.000000000000000000e+00,4.000000000000000327e-05,1.000000000000000048e-04,5.900000000000000296e-04,-2.799999999999999755e-04,-5.999999999999999474e-05,-1.000000000000000082e-05,-2.000000000000000164e-05,4.000000000000000000e+00,1.900000000000000000e+01
4.691100000000000000e+04,0.000000000000000000e+00,4.000000000000000327e-05,1.000000000000000048e-04,5.900000000000000296e-04,-2.799999999999999755e-04,-5.999999999999999474e-05,-1.000000000000000082e-05,-2.000000000000000164e-05,4.000000000000000000e+00,1.900000000000000000e+01
4.691200000000000000e+04,0.000000000000000000e+00,4.000000000000000327e-05,1.000000000000000048e-04,5.900000000000000296e-04,-2.799999999999999755e-04,-5.999999999999999474e-05,-1.000000000000000082e-05,-2.000000000000000164e-05,4.000000000000000000e+00,1.900000000000000000e+01
4.691400000000000000e+04,2.999999999999999737e-05,2.999999999999999737e-05,1.600000000000000131e-04,8.000000000000000383e-04,8.199999999999999824e-04,-1.899999999999999834e-04,-2.999999999999999737e-05,-8.000000000000000654e-05,4.000000000000000000e+00,1.900000000000000000e+01
4.691500000000000000e+04,-1.000000000000000048e-04,-1.600000000000000131e-04,-2.100000000000000087e-04,-1.499999999999999869e-04,2.000000000000000096e-04,-1.300000000000000157e-04,-8.000000000000000654e-05,-1.300000000000000157e-04,4.000000000000000000e+00,1.900000000000000000e+01
4.691600000000000000e+04,-1.000000000000000048e-04,-1.600000000000000131e-04,-2.100000000000000087e-04,-1.499999999999999869e-04,2.000000000000000096e-04,-1.300000000000000157e-04,-8.000000000000000654e-05,-1.300000000000000157e-04,4.000000000000000000e+00,1.900000000000000000e+01
4.691700000000000000e+04,-1.000000000000000048e-04,-1.600000000000000131e-04,-2.100000000000000087e-04,-1.499999999999999869e-04,2.000000000000000096e-04,-1.300000000000000157e-04,-8.000000000000000654e-05,-1.300000000000000157e-04,4.000000000000000000e+00,1.900000000000000000e+01
4.691800000000000000e+04,-1.000000000000000048e-04,-1.600000000000000131e-04,-2.100000000000000087e-04,-1.499999999999999869e-04,2.000000000000000096e-04,-1.300000000000000157e-04,-8.000000000000000654e-05,-1.300000000000000157e-04,4.000000000000000000e+00,1.900000000000000000e+01
4.691900000000000000e+04,-1.000000000000000048e-04,-1.600000000000000131e-04,-2.100000000000000087e-04,-1.499999999999999869e-04,2.000000000000000096e-04,-1.300000000000000157e-04,-8.000000000000000654e-05,-1.300000000000000157e-04,4.000000000000000000e+00,1.900000000000000000e+01
4.692000000000000000e+04,-1.000000000000000048e-04,-1.600000000000000131e-04,-2.100000000000000087e-04,-1.499999999999999869e-04,2.000000000000000096e-04,-1.300000000000000157e-04,-8.000000000000000654e-05,-1.300000000000000157e-04,4.000000000000000000e+00,1.900000000000000000e+01
4.692100000000000000e+04,-1.000000000000000048e-04,-1.600000000000000131e-04,-2.100000000000000087e-04,-1.499999999999999869e-04,2.000000000000000096e-04,-1.300000000000000157e-04,-8.000000000000000654e-05,-1.300000000000000157e-04,4.000000000000000000e+00,1.900000000000000000e+01
4.692200000000000000e+04,-1.000000000000000048e-04,-1.600000000000000131e-04,-2.100000000000000087e-04,-1.499999999999999869e-04,2.000000000000000096e-04,-1.300000000000000157e-04,-8.000000000000000654e-05,-1.300000000000000157e-04,4.000000000000000000e+00,1.900000000000000000e+01
4.692300000000000000e+04,-1.000000000000000048e-04,-1.600000000000000131e-04,-2.100000000000000087e-04,-1.499999999999999869e-04,2.000000000000000096e-04,-1.300000000000000157e-04,-8.000000000000000654e-05,-1.300000000000000157e-04,4.000000000000000000e+00,1.900000000000000000e+01
4.692400000000000000e+04,-1.000000000000000048e-04,-1.600000000000000131e-04,-2.100000000000000087e-04,-1.499999999999999869e-04,2.000000000000000096e-04,-1.300000000000000157e-04,-8.000000000000000654e-05,-1.300000000000000157e-04,4.000000000000000000e+00,1.900000000000000000e+01
4.692500000000000000e+04,-1.000000000000000048e-04,-1.600000000000000131e-04,-2.100000000000000087e-04,-1.499999999999999869e-04,2.000000000000000096e-04,-1.300000000000000157e-04,-8.000000000000000654e-05,-1.300000000000000157e-04,4.000000000000000000e+00,1.900000000000000000e+01
4.692600000000000000e+04,-1.000000000000000048e-04,-1.600000000000000131e-04,-2.100000000000000087e-04,-1.499999999999999869e-04,2.000000000000000096e-04,-1.300000000000000157e-04,-8.000000000000000654e-05,-1.300000000000000157e-04,4.000000000000000000e+00,1.900000000000000000e+01
4.692700000000000000e+04,-1.000000000000000048e-04,-1.600000000000000131e-04,-2.100000000000000087e-04,-1.499999999999999869e-04,2.000000000000000096e-04,-1.300000000000000157e-04,-8.000000000000000654e-05,-1.300000000000000157e-04,4.000000000000000000e+00,1.900000000000000000e+01
4.692800000000000000e+04,-2.000000000000000164e-05,-9.000000000000000567e-05,-1.199999999999999895e-04,-5.000000000000000240e-05,-6.499999999999999702e-04,-4.599999999999999597e-04,-1.699999999999999851e-04,-1.300000000000000157e-04,4.000000000000000000e+00,1.900000000000000000e+01
4.692900000000000000e+04,-2.000000000000000164e-05,-9.000000000000000567e-05,-1.199999999999999895e-04,-5.000000000000000240e-05,-6.499999999999999702e-04,-4.599999999999999597e-04,-1.699999999999999851e-04,-1.300000000000000157e-04,4.000000000000000000e+00,1.900000000000000000e+01
4.693000000000000000e+04,-5.000000000000000240e-05,-1.100000000000000039e-04,-1.800000000000000113e-04,-1.600000000000000131e-04,-7.599999999999999334e-04,-1.199999999999999895e-04,-8.000000000000000654e-05,-5.000000000000000240e-05,4.000000000000000000e+00,1.900000000000000000e+01
4.693100000000000000e+04,-5.000000000000000240e-05,-1.100000000000000039e-04,-1.800000000000000113e-04,-1.600000000000000131e-04,-7.599999999999999334e-04,-1.199999999999999895e-04,-8.000000000000000654e-05,-5.000000000000000240e-05,4.000000000000000000e+00,1.900000000000000000e+01
4.693200000000000000e+04,-5.000000000000000240e-05,-1.100000000000000039e-04,-1.800000000000000113e-04,-1.600000000000000131e-04,-7.599999999999999334e-04,-1.199999999999999895e-04,-8.000000000000000654e-05,-5.000000000000000240e-05,4.000000000000000000e+00,1.900000000000000000e+01
4.693300000000000000e+04,-5.000000000000000240e-05,-1.100000000000000039e-04,-1.800000000000000113e-04,-1.600000000000000131e-04,-7.599999999999999334e-04,-1.199999999999999895e-04,-8.000000000000000654e-05,-5.000000000000000240e-05,4.000000000000000000e+00,1.900000000000000000e+01
4.693400000000000000e+04,-5.000000000000000240e-05,-1.100000000000000039e-04,-1.800000000000000113e-04,-1.600000000000000131e-04,-7.599999999999999334e-04,-1.199999999999999895e-04,-8.000000000000000654e-05,-5.000000000000000240e-05,4.000000000000000000e+00,1.900000000000000000e+01
4.693500000000000000e+04,-5.000000000000000240e-05,-1.100000000000000039e-04,-1.800000000000000113e-04,-1.600000000000000131e-04,-7.599999999999999334e-04,-1.199999999999999895e-04,-8.000000000000000654e-05,-5.000000000000000240e-05,4.000000000000000000e+00,1.900000000000000000e+01
4.693600000000000000e+04,-5.000000000000000240e-05,-1.100000000000000039e-04,-1.800000000000000113e-04,-1.600000000000000131e-04,-7.599999999999999334e-04,-1.199999999999999895e-04,-8.000000000000000654e-05,-5.000000000000000240e-05,4.000000000000000000e+00,1.900000000000000000e+01
4.693700000000000000e+04,-5.000000000000000240e-05,-1.100000000000000039e-04,-1.800000000000000113e-04,-1.600000000000000131e-04,-7.599999999999999334e-04,-1.199999999999999895e-04,-8.000000000000000654e-05,-5.000000000000000240e-05,4.000000000000000000e+00,1.900000000000000000e+01
4.693800000000000000e+04,-5.000000000000000240e-05,-1.100000000000000039e-04,-1.800000000000000113e-04,-1.600000000000000131e-04,-7.599999999999999334e-04,-1.199999999999999895e-04,-8.000000000000000654e-05,-5.000000000000000240e-05,4.000000000000000000e+00,1.900000000000000000e+01
4.693900000000000000e+04,-5.000000000000000240e-05,-1.100000000000000039e-04,-1.800000000000000113e-04,-1.600000000000000131e-04,-7.599999999999999334e-04,-1.199999999999999895e-04,-8.000000000000000654e-05,-5.000000000000000240e-05,4.000000000000000000e+00,1.900000000000000000e+01
4.694000000000000000e+04,-5.000000000000000240e-05,-1.100000000000000039e-04,-1.800000000000000113e-04,-1.600000000000000131e-04,-7.599999999999999334e-04,-1.199999999999999895e-04,-8.000000000000000654e-05,-5.000000000000000240e-05,4.000000000000000000e+00,1.900000000000000000e+01
4.694100000000000000e+04,-5.000000000000000240e-05,-1.100000000000000039e-04,-1.800000000000000113e-04,-1.600000000000000131e-04,-7.599999999999999334e-04,-1.199999999999999895e-04,-8.000000000000000654e-05,-5.000000000000000240e-05,4.000000000000000000e+00,1.900000000000000000e+01
4.694200000000000000e+04,-5.000000000000000240e-05,-1.100000000000000039e-04,-1.800000000000000113e-04,-1.600000000000000131e-04,-7.599999999999999334e-04,-1.199999999999999895e-04,-8.000000000000000654e-05,-5.000000000000000240e-05,4.000000000000000000e+00,1.900000000000000000e+01
4.694300000000000000e+04,-5.000000000000000240e-05,-1.100000000000000039e-04,-1.800000000000000113e-04,-1.600000000000000131e-04,-7.599999999999999334e-04,-1.199999999999999895e-04,-8.000000000000000654e-05,-5.000000000000000240e-05,4.000000000000000000e+00,1.900000000000000000e+01
4.694400000000000000e+04,-5.000000000000000240e-05,-1.100000000000000039e-04,-1.800000000000000113e-04,-1.600000000000000131e-04,-7.599999999999999334e-04,-1.199999999999999895e-04,-8.000000000000000654e-05,-5.000000000000000240e-05,4.000000000000000000e+00,1.900000000000000000e+01
4.694500000000000000e+04,-5.000000000000000240e-05,-1.100000000000000039e-04,-1.800000000000000113e-04,-1.600000000000000131e-04,-7.599999999999999334e-04,-1.199999999999999895e-04,-8.000000000000000654e-05,-5.000000000000000240e-05,4.000000000000000000e+00,1.900000000000000000e+01
4.694600000000000000e+04,-5.000000000000000240e-05,-1.100000000000000039e-04,-1.800000000000000113e-04,-1.600000000000000131e-04,-7.599999999999999334e-04,-1.199999999999999895e-04,-8.000000000000000654e-05,-5.000000000000000240e-05,4.000000000000000000e+00,1.900000000000000000e+01
4.694700000000000000e+04,-5.000000000000000240e-05,-1.100000000000000039e-04,-1.800000000000000113e-04,-1.600000000000000131e-04,-7.599999999999999334e-04,-1.199999999999999895e-04,-8.000000000000000654e-05,-5.000000000000000240e-05,4.000000000000000000e+00,1.900000000000000000e+01
4.694800000000000000e+04,-5.000000000000000240e-05,-1.100000000000000039e-04,-1.800000000000000113e-04,-1.600000000000000131e-04,-7.599999999999999334e-04,-1.199999999999999895e-04,-8.000000000000000654e-05,-5.000000000000000240e-05,4.000000000000000000e+00,1.900000000000000000e+01
4.694900000000000000e+04,-5.000000000000000240e-05,-1.100000000000000039e-04,-1.800000000000000113e-04,-1.600000000000000131e-04,-7.599999999999999334e-04,-1.199999999999999895e-04,-8.000000000000000654e-05,-5.000000000000000240e-05,4.000000000000000000e+00,1.900000000000000000e+01
4.695000000000000000e+04,-5.000000000000000240e-05,-1.100000000000000039e-04,-1.800000000000000113e-04,-1.600000000000000131e-04,-7.599999999999999334e-04,-1.199999999999999895e-04,-8.000000000000000654e-05,-5.000000000000000240e-05,4.000000000000000000e+00,1.900000000000000000e+01
4.695100000000000000e+04,9.000000000000000567e-05,1.399999999999999877e-04,1.699999999999999851e-04,2.399999999999999790e-04,-5.000000000000000240e-05,-1.000000000000000048e-04,2.000000000000000164e-05,6.999999999999999387e-05,4.000000000000000000e+00,1.900000000000000000e+01
4.695200000000000000e+04,5.999999999999999474e-05,2.999999999999999737e-05,1.000000000000000082e-05,3.299999999999999982e-04,5.999999999999999474e-05,-2.299999999999999799e-04,-4.000000000000000327e-05,-5.000000000000000240e-05,4.000000000000000000e+00,1.900000000000000000e+01
4.695300000000000000e+04,5.999999999999999474e-05,2.999999999999999737e-05,1.000000000000000082e-05,3.299999999999999982e-04,5.999999999999999474e-05,-2.299999999999999799e-04,-4.000000000000000327e-05,-5.000000000000000240e-05,4.000000000000000000e+00,1.900000000000000000e+01
4.695400000000000000e+04,5.999999999999999474e-05,2.999999999999999737e-05,1.000000000000000082e-05,3.299999999999999982e-04,5.999999999999999474e-05,-2.299999999999999799e-04,-4.000000000000000327e-05,-5.000000000000000240e-05,4.000000000000000000e+00,1.900000000000000000e+01
4.695500000000000000e+04,5.999999999999999474e-05,2.999999999999999737e-05,1.000000000000000082e-05,3.299999999999999982e-04,5.999999999999999474e-05,-2.299999999999999799e-04,-4.000000000000000327e-05,-5.000000000000000240e-05,4.000000000000000000e+00,1.900000000000000000e+01
4.695600000000000000e+04,5.999999999999999474e-05,2.999999999999999737e-05,1.000000000000000082e-05,3.299999999999999982e-04,5.999999999999999474e-05,-2.299999999999999799e-04,-4.000000000000000327e-05,-5.000000000000000240e-05,4.000000000000000000e+00,1.900000000000000000e+01
4.695700000000000000e+04,5.999999999999999474e-05,2.999999999999999737e-05,1.000000000000000082e-05,3.299999999999999982e-04,5.999999999999999474e-05,-2.299999999999999799e-04,-4.000000000000000327e-05,-5.000000000000000240e-05,4.000000000000000000e+00,1.900000000000000000e+01
4.695800000000000000e+04,5.999999999999999474e-05,2.999999999999999737e-05,1.000000000000000082e-05,3.299999999999999982e-04,5.999999999999999474e-05,-2.299999999999999799e-04,-4.000000000000000327e-05,-5.000000000000000240e-05,4.000000000000000000e+00,1.900000000000000000e+01
4.695900000000000000e+04,5.999999999999999474e-05,2.999999999999999737e-05,1.000000000000000082e-05,3.299999999999999982e-04,5.999999999999999474e-05,-2.299999999999999799e-04,-4.000000000000000327e-05,-5.000000000000000240e-05,4.000000000000000000e+00,1.900000000000000000e+01
4.696100000000000000e+04,5.999999999999999474e-05,2.999999999999999737e-05,1.000000000000000082e-05,3.299999999999999982e-04,5.999999999999999474e-05,-2.299999999999999799e-04,-4.000000000000000327e-05,-5.000000000000000240e-05,4.000000000000000000e+00,1.900000000000000000e+01
4.696200000000000000e+04,5.999999999999999474e-05,2.999999999999999737e-05,1.000000000000000082e-05,3.299999999999999982e-04,5.999999999999999474e-05,-2.299999999999999799e-04,-4.000000000000000327e-05,-5.000000000000000240e-05,4.000000000000000000e+00,1.900000000000000000e+01
4.696300000000000000e+04,5.999999999999999474e-05,2.999999999999999737e-05,1.000000000000000082e-05,3.299999999999999982e-04,5.999999999999999474e-05,-2.299999999999999799e-04,-4.000000000000000327e-05,-5.000000000000000240e-05,4.000000000000000000e+00,1.900000000000000000e+01
4.696400000000000000e+04,5.999999999999999474e-05,2.999999999999999737e-05,1.000000000000000082e-05,3.299999999999999982e-04,5.999999999999999474e-05,-2.299999999999999799e-04,-4.000000000000000327e-05,-5.000000000000000240e-05,4.000000000000000000e+00,1.900000000000000000e+01
4.696500000000000000e+04,5.999999999999999474e-05,2.999999999999999737e-05,1.000000000000000082e-05,3.299999999999999982e-04,5.999999999999999474e-05,-2.299999999999999799e-04,-4.000000000000000327e-05,-5.000000000000000240e-05,4.000000000000000000e+00,1.900000000000000000e+01
4.696600000000000000e+04,5.999999999999999474e-05,2.999999999999999737e-05,1.000000000000000082e-05,3.299999999999999982e-04,5.999999999999999474e-05,-2.299999999999999799e-04,-4.000000000000000327e-05,-5.000000000000000240e-05,4.000000000000000000e+00,1.900000000000000000e+01
4.696700000000000000e+04,5.999999999999999474e-05,2.999999999999999737e-05,1.000000000000000082e-05,3.299999999999999982e-04,5.999999999999999474e-05,-2.299999999999999799e-04,-4.000000000000000327e-05,-5.000000000000000240e-05,4.000000000000000000e+00,1.900000000000000000e+01
4.696800000000000000e+04,5.999999999999999474e-05,2.999999999999999737e-05,1.000000000000000082e-05,3.299999999999999982e-04,5.999999999999999474e-05,-2.299999999999999799e-04,-4.000000000000000327e-05,-5.000000000000000240e-05,4.000000000000000000e+00,1.900000000000000000e+01
4.696900000000000000e+04,5.999999999999999474e-05,2.999999999999999737e-05,1.000000000000000082e-05,3.299999999999999982e-04,5.999999999999999474e-05,-2.299999999999999799e-04,-4.000000000000000327e-05,-5.000000000000000240e-05,4.000000000000000000e+00,1.900000000000000000e+01
4.697000000000000000e+04,5.999999999999999474e-05,2.999999999999999737e-05,1.000000000000000082e-05,3.299999999999999982e-04,5.999999999999999474e-05,-2.299999999999999799e-04,-4.000000000000000327e-05,-5.000000000000000240e-05,4.000000000000000000e+00,1.900000000000000000e+01
4.697100000000000000e+04,5.999999999999999474e-05,2.999999999999999737e-05,1.000000000000000082e-05,3.299999999999999982e-04,5.999999999999999474e-05,-2.299999999999999799e-04,-4.000000000000000327e-05,-5.000000000000000240e-05,4.000000000000000000e+00,1.900000000000000000e+01
4.697200000000000000e+04,5.999999999999999474e-05,2.999999999999999737e-05,1.000000000000000082e-05,3.299999999999999982e-04,5.999999999999999474e-05,-2.299999999999999799e-04,-4.000000000000000327e-05,-5.000000000000000240e-05,4.000000000000000000e+00,1.900000000000000000e+01
4.697300000000000000e+04,9.000000000000000567e-05,9.000000000000000567e-05,1.699999999999999851e-04,8.599999999999999789e-04,8.800000000000000313e-04,3.699999999999999947e-04,1.100000000000000039e-04,2.999999999999999737e-05,4.000000000000000000e+00,1.900000000000000000e+01
4.697400000000000000e+04,9.000000000000000567e-05,9.000000000000000567e-05,1.699999999999999851e-04,8.599999999999999789e-04,8.800000000000000313e-04,3.699999999999999947e-04,1.100000000000000039e-04,2.999999999999999737e-05,4.000000000000000000e+00,1.900000000000000000e+01
4.697500000000000000e+04,-1.000000000000000082e-05,4.000000000000000327e-05,2.999999999999999737e-05,-5.000000000000000240e-05,6.300000000000000261e-04,1.499999999999999869e-04,2.999999999999999737e-05,-1.000000000000000082e-05,4.000000000000000000e+00,1.900000000000000000e+01
4.697600000000000000e+04,-1.000000000000000082e-05,4.000000000000000327e-05,2.999999999999999737e-05,-5.000000000000000240e-05,6.300000000000000261e-04,1.499999999999999869e-04,2.999999999999999737e-05,-1.000000000000000082e-05,4.000000000000000000e+00,1.900000000000000000e+01
4.697700000000000000e+04,-1.000000000000000082e-05,4.000000000000000327e-05,2.999999999999999737e-05,-5.000000000000000240e-05,6.300000000000000261e-04,1.499999999999999869e-04,2.999999999999999737e-05,-1.000000000000000082e-05,4.000000000000000000e+00,1.900000000000000000e+01
4.697800000000000000e+04,-1.000000000000000082e-05,4.000000000000000327e-05,2.999999999999999737e-05,-5.000000000000000240e-05,6.300000000000000261e-04,1.499999999999999869e-04,2.999999999999999737e-05,-1.000000000000000082e-05,4.000000000000000000e+00,1.900000000000000000e+01
4.697900000000000000e+04,-1.000000000000000082e-05,4.000000000000000327e-05,2.999999999999999737e-05,-5.000000000000000240e-05,6.300000000000000261e-04,1.499999999999999869e-04,2.999999999999999737e-05,-1.000000000000000082e-05,4.000000000000000000e+00,1.900000000000000000e+01
4.698000000000000000e+04,-1.000000000000000082e-05,4.000000000000000327e-05,2.999999999999999737e-05,-5.000000000000000240e-05,6.300000000000000261e-04,1.499999999999999869e-04,2.999999999999999737e-05,-1.000000000000000082e-05,4.000000000000000000e+00,1.900000000000000000e+01
4.698100000000000000e+04,-1.000000000000000082e-05,4.000000000000000327e-05,2.999999999999999737e-05,-5.000000000000000240e-05,6.300000000000000261e-04,1.499999999999999869e-04,2.999999999999999737e-05,-1.000000000000000082e-05,4.000000000000000000e+00,1.900000000000000000e+01
4.698200000000000000e+04,-1.000000000000000082e-05,4.000000000000000327e-05,2.999999999999999737e-05,-5.000000000000000240e-05,6.300000000000000261e-04,1.499999999999999869e-04,2.999999999999999737e-05,-1.000000000000000082e-05,4.000000000000000000e+00,1.900000000000000000e+01
4.698300000000000000e+04,-1.000000000000000082e-05,4.000000000000000327e-05,2.999999999999999737e-05,-5.000000000000000240e-05,6.300000000000000261e-04,1.499999999999999869e-04,2.999999999999999737e-05,-1.000000000000000082e-05,4.000000000000000000e+00,1.900000000000000000e+01
4.698400000000000000e+04,-1.000000000000000082e-05,4.000000000000000327e-05,2.999999999999999737e-05,-5.000000000000000240e-05,6.300000000000000261e-04,1.499999999999999869e-04,2.999999999999999737e-05,-1.000000000000000082e-05,4.000000000000000000e+00,1.900000000000000000e+01
4.698500000000000000e+04,-1.000000000000000082e-05,4.000000000000000327e-05,2.999999999999999737e-05,-5.000000000000000240e-05,6.300000000000000261e-04,1.499999999999999869e-04,2.999999999999999737e-05,-1.000000000000000082e-05,4.000000000000000000e+00,1.900000000000000000e+01
4.698600000000000000e+04,-1.000000000000000082e-05,4.000000000000000327e-05,2.999999999999999737e-05,-5.000000000000000240e-05,6.300000000000000261e-04,1.499999999999999869e-04,2.999999999999999737e-05,-1.000000000000000082e-05,4.000000000000000000e+00,1.900000000000000000e+01
4.698700000000000000e+04,-1.000000000000000082e-05,4.000000000000000327e-05,2.999999999999999737e-05,-5.000000000000000240e-05,6.300000000000000261e-04,1.499999999999999869e-04,2.999999999999999737e-05,-1.000000000000000082e-05,4.000000000000000000e+00,1.900000000000000000e+01
4.698800000000000000e+04,-5.000000000000000240e-05,-1.899999999999999834e-04,-1.899999999999999834e-04,-3.099999999999999999e-04,-5.500000000000000331e-04,-1.100000000000000039e-04,-5.999999999999999474e-05,0.000000000000000000e+00,4.000000000000000000e+00,1.900000000000000000e+01
4.698900000000000000e+04,-5.000000000000000240e-05,-1.899999999999999834e-04,-1.899999999999999834e-04,-3.099999999999999999e-04,-5.500000000000000331e-04,-1.100000000000000039e-04,-5.999999999999999474e-05,0.000000000000000000e+00,4.000000000000000000e+00,1.900000000000000000e+01
4.699000000000000000e+04,4.000000000000000327e-05,1.499999999999999869e-04,1.600000000000000131e-04,2.399999999999999790e-04,5.299999999999999807e-04,1.000000000000000082e-05,1.000000000000000082e-05,-2.999999999999999737e-05,4.000000000000000000e+00,1.900000000000000000e+01
4.699100000000000000e+04,4.000000000000000327e-05,1.499999999999999869e-04,1.600000000000000131e-04,2.399999999999999790e-04,5.299999999999999807e-04,1.000000000000000082e-05,1.000000000000000082e-05,-2.999999999999999737e-05,4.000000000000000000e+00,1.900000000000000000e+01
4.699200000000000000e+04,4.000000000000000327e-05,1.499999999999999869e-04,1.600000000000000131e-04,2.399999999999999790e-04,5.299999999999999807e-04,1.000000000000000082e-05,1.000000000000000082e-05,-2.999999999999999737e-05,4.000000000000000000e+00,1.900000000000000000e+01
4.699300000000000000e+04,4.000000000000000327e-05,1.499999999999999869e-04,1.600000000000000131e-04,2.399999999999999790e-04,5.299999999999999807e-04,1.000000000000000082e-05,1.000000000000000082e-05,-2.999999999999999737e-05,4.000000000000000000e+00,1.900000000000000000e+01
4.699400000000000000e+04,4.000000000000000327e-05,1.499999999999999869e-04,1.600000000000000131e-04,2.399999999999999790e-04,5.299999999999999807e-04,1.000000000000000082e-05,1.000000000000000082e-05,-2.999999999999999737e-05,4.000000000000000000e+00,1.900000000000000000e+01
4.699500000000000000e+04,4.000000000000000327e-05,1.499999999999999869e-04,1.600000000000000131e-04,2.399999999999999790e-04,5.299999999999999807e-04,1.000000000000000082e-05,1.000000000000000082e-05,-2.999999999999999737e-05,4.000000000000000000e+00,1.900000000000000000e+01
4.699600000000000000e+04,4.000000000000000327e-05,1.499999999999999869e-04,1.600000000000000131e-04,2.399999999999999790e-04,5.299999999999999807e-04,1.000000000000000082e-05,1.000000000000000082e-05,-2.999999999999999737e-05,4.000000000000000000e+00,1.900000000000000000e+01
4.699700000000000000e+04,4.000000000000000327e-05,1.499999999999999869e-04,1.600000000000000131e-04,2.399999999999999790e-04,5.299999999999999807e-04,1.000000000000000082e-05,1.000000000000000082e-05,-2.999999999999999737e-05,4.000000000000000000e+00,1.900000000000000000e+01
4.699800000000000000e+04,4.000000000000000327e-05,1.499999999999999869e-04,1.600000000000000131e-04,2.399999999999999790e-04,5.299999999999999807e-04,1.000000000000000082e-05,1.000000000000000082e-05,-2.999999999999999737e-05,4.000000000000000000e+00,1.900000000000000000e+01
4.699900000000000000e+04,4.000000000000000327e-05,1.499999999999999869e-04,1.600000000000000131e-04,2.399999999999999790e-04,5.299999999999999807e-04,1.000000000000000082e-05,1.000000000000000082e-05,-2.999999999999999737e-05,4.000000000000000000e+00,1.900000000000000000e+01
4.700000000000000000e+04,4.000000000000000327e-05,1.499999999999999869e-04,1.600000000000000131e-04,2.399999999999999790e-04,5.299999999999999807e-04,1.000000000000000082e-05,1.000000000000000082e-05,-2.999999999999999737e-05,4.000000000000000000e+00,1.900000000000000000e+01
4.700100000000000000e+04,4.000000000000000327e-05,1.499999999999999869e-04,1.600000000000000131e-04,2.399999999999999790e-04,5.299999999999999807e-04,1.000000000000000082e-05,1.000000000000000082e-05,-2.999999999999999737e-05,4.000000000000000000e+00,1.900000000000000000e+01
4.700200000000000000e+04,4.000000000000000327e-05,1.499999999999999869e-04,1.600000000000000131e-04,2.399999999999999790e-04,5.299999999999999807e-04,1.000000000000000082e-05,1.000000000000000082e-05,-2.999999999999999737e-05,4.000000000000000000e+00,1.900000000000000000e+01
4.700300000000000000e+04,4.000000000000000327e-05,1.499999999999999869e-04,1.600000000000000131e-04,2.399999999999999790e-04,5.299999999999999807e-04,1.000000000000000082e-05,1.000000000000000082e-05,-2.999999999999999737e-05,4.000000000000000000e+00,1.900000000000000000e+01
4.700400000000000000e+04,4.000000000000000327e-05,1.499999999999999869e-04,1.600000000000000131e-04,2.399999999999999790e-04,5.299999999999999807e-04,1.000000000000000082e-05,1.000000000000000082e-05,-2.999999999999999737e-05,4.000000000000000000e+00,1.900000000000000000e+01
4.700500000000000000e+04,4.000000000000000327e-05,1.499999999999999869e-04,1.600000000000000131e-04,2.399999999999999790e-04,5.299999999999999807e-04,1.000000000000000082e-05,1.000000000000000082e-05,-2.999999999999999737e-05,4.000000000000000000e+00,1.900000000000000000e+01
4.700600000000000000e+04,4.000000000000000327e-05,1.499999999999999869e-04,1.600000000000000131e-04,2.399999999999999790e-04,5.299999999999999807e-04,1.000000000000000082e-05,1.000000000000000082e-05,-2.999999999999999737e-05,4.000000000000000000e+00,1.900000000000000000e+01
4.700700000000000000e+04,4.000000000000000327e-05,1.499999999999999869e-04,1.600000000000000131e-04,2.399999999999999790e-04,5.299999999999999807e-04,1.000000000000000082e-05,1.000000000000000082e-05,-2.999999999999999737e-05,4.000000000000000000e+00,1.900000000000000000e+01
4.700900000000000000e+04,4.000000000000000327e-05,1.499999999999999869e-04,1.600000000000000131e-04,2.399999999999999790e-04,5.299999999999999807e-04,1.000000000000000082e-05,1.000000000000000082e-05,-2.999999999999999737e-05,4.000000000000000000e+00,1.900000000000000000e+01
4.701000000000000000e+04,4.000000000000000327e-05,1.499999999999999869e-04,1.600000000000000131e-04,2.399999999999999790e-04,5.299999999999999807e-04,1.000000000000000082e-05,1.000000000000000082e-05,-2.999999999999999737e-05,4.000000000000000000e+00,1.900000000000000000e+01
4.701100000000000000e+04,-5.999999999999999474e-05,-6.999999999999999387e-05,-1.499999999999999869e-04,-5.599999999999999509e-04,-9.899999999999999946e-04,2.000000000000000164e-05,-2.000000000000000164e-05,-9.000000000000000567e-05,4.000000000000000000e+00,1.900000000000000000e+01
4.701200000000000000e+04,-2.000000000000000164e-05,0.000000000000000000e+00,-5.999999999999999474e-05,-7.599999999999999334e-04,-1.090000000000000040e-03,1.699999999999999851e-04,-4.000000000000000327e-05,2.999999999999999737e-05,4.000000000000000000e+00,1.900000000000000000e+01
4.701300000000000000e+04,-2.000000000000000164e-05,0.000000000000000000e+00,-5.999999999999999474e-05,-7.599999999999999334e-04,-1.090000000000000040e-03,1.699999999999999851e-04,-4.000000000000000327e-05,2.999999999999999737e-05,4.000000000000000000e+00,1.900000000000000000e+01
4.701400000000000000e+04,-2.000000000000000164e-05,0.000000000000000000e+00,-5.999999999999999474e-05,-7.599999999999999334e-04,-1.090000000000000040e-03,1.699999999999999851e-04,-4.000000000000000327e-05,2.999999999999999737e-05,4.000000000000000000e+00,1.900000000000000000e+01
4.701500000000000000e+04,-2.000000000000000164e-05,0.000000000000000000e+00,-5.999999999999999474e-05,-7.599999999999999334e-04,-1.090000000000000040e-03,1.699999999999999851e-04,-4.000000000000000327e-05,2.999999999999999737e-05,4.000000000000000000e+00,1.900000000000000000e+01
4.701600000000000000e+04,-2.000000000000000164e-05,0.000000000000000000e+00,-5.999999999999999474e-05,-7.599999999999999334e-04,-1.090000000000000040e-03,1.699999999999999851e-04,-4.000000000000000327e-05,2.999999999999999737e-05,4.000000000000000000e+00,1.900000000000000000e+01
4.701700000000000000e+04,-2.000000000000000164e-05,0.000000000000000000e+00,-5.999999999999999474e-05,-7.599999999999999334e-04,-1.090000000000000040e-03,1.699999999999999851e-04,-4.000000000000000327e-05,2.999999999999999737e-05,4.000000000000000000e+00,1.900000000000000000e+01
4.701800000000000000e+04,-2.000000000000000164e-05,0.000000000000000000e+00,-5.999999999999999474e-05,-7.599999999999999334e-04,-1.090000000000000040e-03,1.699999999999999851e-04,-4.000000000000000327e-05,2.999999999999999737e-05,4.000000000000000000e+00,1.900000000000000000e+01
4.701900000000000000e+04,-2.000000000000000164e-05,0.000000000000000000e+00,-5.999999999999999474e-05,-7.599999999999999334e-04,-1.090000000000000040e-03,1.699999999999999851e-04,-4.000000000000000327e-05,2.999999999999999737e-05,4.000000000000000000e+00,1.900000000000000000e+01
4.702000000000000000e+04,-2.000000000000000164e-05,0.000000000000000000e+00,-5.999999999999999474e-05,-7.599999999999999334e-04,-1.090000000000000040e-03,1.699999999999999851e-04,-4.000000000000000327e-05,2.999999999999999737e-05,4.000000000000000000e+00,1.900000000000000000e+01
4.702100000000000000e+04,-2.000000000000000164e-05,0.000000000000000000e+00,-5.999999999999999474e-05,-7.599999999999999334e-04,-1.090000000000000040e-03,1.699999999999999851e-04,-4.000000000000000327e-05,2.999999999999999737e-05,4.000000000000000000e+00,1.900000000000000000e+01
4.702200000000000000e+04,-2.000000000000000164e-05,0.000000000000000000e+00,-5.999999999999999474e-05,-7.599999999999999334e-04,-1.090000000000000040e-03,1.699999999999999851e-04,-4.000000000000000327e-05,2.999999999999999737e-05,4.000000000000000000e+00,1.900000000000000000e+01
4.702300000000000000e+04,-2.000000000000000164e-05,0.000000000000000000e+00,-5.999999999999999474e-05,-7.599999999999999334e-04,-1.090000000000000040e-03,1.699999999999999851e-04,-4.000000000000000327e-05,2.999999999999999737e-05,4.000000000000000000e+00,1.900000000000000000e+01
4.702400000000000000e+04,-2.000000000000000164e-05,0.000000000000000000e+00,-5.999999999999999474e-05,-7.599999999999999334e-04,-1.090000000000000040e-03,1.699999999999999851e-04,-4.000000000000000327e-05,2.999999999999999737e-05,4.000000000000000000e+00,1.900000000000000000e+01
4.702500000000000000e+04,-2.000000000000000164e-05,0.000000000000000000e+00,-5.999999999999999474e-05,-7.599999999999999334e-04,-1.090000000000000040e-03,1.699999999999999851e-04,-4.000000000000000327e-05,2.999999999999999737e-05,4.000000000000000000e+00,1.900000000000000000e+01
4.702600000000000000e+04,-2.000000000000000164e-05,0.000000000000000000e+00,-5.999999999999999474e-05,-7.599999999999999334e-04,-1.090000000000000040e-03,1.699999999999999851e-04,-4.000000000000000327e-05,2.999999999999999737e-05,4.000000000000000000e+00,1.900000000000000000e+01
4.702700000000000000e+04,-2.000000000000000164e-05,0.000000000000000000e+00,-5.999999999999999474e-05,-7.599999999999999334e-04,-1.090000000000000040e-03,1.699999999999999851e-04,-4.000000000000000327e-05,2.999999999999999737e-05,4.000000000000000000e+00,1.900000000000000000e+01
4.702800000000000000e+04,-2.000000000000000164e-05,0.000000000000000000e+00,-5.999999999999999474e-05,-7.599999999999999334e-04,-1.090000000000000040e-03,1.699999999999999851e-04,-4.000000000000000327e-05,2.999999999999999737e-05,4.000000000000000000e+00,1.900000000000000000e+01
4.702900000000000000e+04,-2.000000000000000164e-05,0.000000000000000000e+00,-5.999999999999999474e-05,-7.599999999999999334e-04,-1.090000000000000040e-03,1.699999999999999851e-04,-4.000000000000000327e-05,2.999999999999999737e-05,4.000000000000000000e+00,1.900000000000000000e+01
4.703000000000000000e+04,-2.000000000000000164e-05,0.000000000000000000e+00,-5.999999999999999474e-05,-7.599999999999999334e-04,-1.090000000000000040e-03,1.699999999999999851e-04,-4.000000000000000327e-05,2.999999999999999737e-05,4.000000000000000000e+00,1.900000000000000000e+01
4.703100000000000000e+04,-2.000000000000000164e-05,0.000000000000000000e+00,-5.999999999999999474e-05,-7.599999999999999334e-04,-1.090000000000000040e-03,1.699999999999999851e-04,-4.000000000000000327e-05,2.999999999999999737e-05,4.000000000000000000e+00,1.900000000000000000e+01
4.703200000000000000e+04,-2.000000000000000164e-05,0.000000000000000000e+00,-5.999999999999999474e-05,-7.599999999999999334e-04,-1.090000000000000040e-03,1.699999999999999851e-04,-4.000000000000000327e-05,2.999999999999999737e-05,4.000000000000000000e+00,1.900000000000000000e+01
4.703300000000000000e+04,4.000000000000000327e-05,1.000000000000000082e-05,-5.000000000000000240e-05,-1.499999999999999869e-04,8.699999999999998967e-04,-5.000000000000000240e-05,9.000000000000000567e-05,9.000000000000000567e-05,4.000000000000000000e+00,1.900000000000000000e+01
4.703400000000000000e+04,4.000000000000000327e-05,1.000000000000000082e-05,-5.000000000000000240e-05,-1.499999999999999869e-04,8.699999999999998967e-04,-5.000000000000000240e-05,9.000000000000000567e-05,9.000000000000000567e-05,4.000000000000000000e+00,1.900000000000000000e+01
4.703500000000000000e+04,2.999999999999999737e-05,-1.000000000000000082e-05,9.000000000000000567e-05,3.799999999999999667e-04,3.299999999999999982e-04,2.399999999999999790e-04,1.199999999999999895e-04,2.999999999999999737e-05,4.000000000000000000e+00,1.900000000000000000e+01
4.703600000000000000e+04,2.999999999999999737e-05,-1.000000000000000082e-05,9.000000000000000567e-05,3.799999999999999667e-04,3.299999999999999982e-04,2.399999999999999790e-04,1.199999999999999895e-04,2.999999999999999737e-05,4.000000000000000000e+00,1.900000000000000000e+01
4.703700000000000000e+04,2.999999999999999737e-05,-1.000000000000000082e-05,9.000000000000000567e-05,3.799999999999999667e-04,3.299999999999999982e-04,2.399999999999999790e-04,1.199999999999999895e-04,2.999999999999999737e-05,4.000000000000000000e+00,1.900000000000000000e+01
4.703800000000000000e+04,2.999999999999999737e-05,-1.000000000000000082e-05,9.000000000000000567e-05,3.799999999999999667e-04,3.299999999999999982e-04,2.399999999999999790e-04,1.199999999999999895e-04,2.999999999999999737e-05,4.000000000000000000e+00,1.900000000000000000e+01
4.703900000000000000e+04,2.999999999999999737e-05,-1.000000000000000082e-05,9.000000000000000567e-05,3.799999999999999667e-04,3.299999999999999982e-04,2.399999999999999790e-04,1.199999999999999895e-04,2.999999999999999737e-05,4.000000000000000000e+00,1.900000000000000000e+01
4.704000000000000000e+04,2.999999999999999737e-05,-1.000000000000000082e-05,9.000000000000000567e-05,3.799999999999999667e-04,3.299999999999999982e-04,2.399999999999999790e-04,1.199999999999999895e-04,2.999999999999999737e-05,4.000000000000000000e+00,1.900000000000000000e+01
4.704100000000000000e+04,2.999999999999999737e-05,-1.000000000000000082e-05,9.000000000000000567e-05,3.799999999999999667e-04,3.299999999999999982e-04,2.399999999999999790e-04,1.199999999999999895e-04,2.999999999999999737e-05,4.000000000000000000e+00,1.900000000000000000e+01
4.704200000000000000e+04,2.999999999999999737e-05,-1.000000000000000082e-05,9.000000000000000567e-05,3.799999999999999667e-04,3.299999999999999982e-04,2.399999999999999790e-04,1.199999999999999895e-04,2.999999999999999737e-05,4.000000000000000000e+00,1.900000000000000000e+01
4.704300000000000000e+04,2.999999999999999737e-05,-1.000000000000000082e-05,9.000000000000000567e-05,3.799999999999999667e-04,3.299999999999999982e-04,2.399999999999999790e-04,1.199999999999999895e-04,2.999999999999999737e-05,4.000000000000000000e+00,1.900000000000000000e+01
4.704400000000000000e+04,2.999999999999999737e-05,-1.000000000000000082e-05,9.000000000000000567e-05,3.799999999999999667e-04,3.299999999999999982e-04,2.399999999999999790e-04,1.199999999999999895e-04,2.999999999999999737e-05,4.000000000000000000e+00,1.900000000000000000e+01
4.704500000000000000e+04,2.999999999999999737e-05,-1.000000000000000082e-05,9.000000000000000567e-05,3.799999999999999667e-04,3.299999999999999982e-04,2.399999999999999790e-04,1.199999999999999895e-04,2.999999999999999737e-05,4.000000000000000000e+00,1.900000000000000000e+01
4.704600000000000000e+04,2.999999999999999737e-05,-1.000000000000000082e-05,9.000000000000000567e-05,3.799999999999999667e-04,3.299999999999999982e-04,2.399999999999999790e-04,1.199999999999999895e-04,2.999999999999999737e-05,4.000000000000000000e+00,1.900000000000000000e+01
4.704700000000000000e+04,-9.000000000000000567e-05,-6.999999999999999387e-05,-1.000000000000000048e-04,-2.500000000000000052e-04,-5.400000000000000069e-04,-3.099999999999999999e-04,-1.800000000000000113e-04,-5.999999999999999474e-05,4.000000000000000000e+00,1.900000000000000000e+01
4.704800000000000000e+04,-9.000000000000000567e-05,-6.999999999999999387e-05,-1.000000000000000048e-04,-2.500000000000000052e-04,-5.400000000000000069e-04,-3.099999999999999999e-04,-1.800000000000000113e-04,-5.999999999999999474e-05,4.000000000000000000e+00,1.900000000000000000e+01
4.704900000000000000e+04,-9.000000000000000567e-05,-6.999999999999999387e-05,-1.000000000000000048e-04,-2.500000000000000052e-04,-5.400000000000000069e-04,-3.099999999999999999e-04,-1.800000000000000113e-04,-5.999999999999999474e-05,4.000000000000000000e+00,1.900000000000000000e+01
4.705000000000000000e+04,-9.000000000000000567e-05,-6.999999999999999387e-05,-1.000000000000000048e-04,-2.500000000000000052e-04,-5.400000000000000069e-04,-3.099999999999999999e-04,-1.800000000000000113e-04,-5.999999999999999474e-05,4.000000000000000000e+00,1.900000000000000000e+01
4.705100000000000000e+04,-9.000000000000000567e-05,-6.999999999999999387e-05,-1.000000000000000048e-04,-2.500000000000000052e-04,-5.400000000000000069e-04,-3.099999999999999999e-04,-1.800000000000000113e-04,-5.999999999999999474e-05,4.000000000000000000e+00,1.900000000000000000e+01
4.705200000000000000e+04,-9.000000000000000567e-05,-6.999999999999999387e-05,-1.000000000000000048e-04,-2.500000000000000052e-04,-5.400000000000000069e-04,-3.099999999999999999e-04,-1.800000000000000113e-04,-5.999999999999999474e-05,4.000000000000000000e+00,1.900000000000000000e+01
4.705300000000000000e+04,-9.000000000000000567e-05,-6.999999999999999387e-05,-1.000000000000000048e-04,-2.500000000000000052e-04,-5.400000000000000069e-04,-3.099999999999999999e-04,-1.800000000000000113e-04,-5.999999999999999474e-05,4.000000000000000000e+00,1.900000000000000000e+01
4.705500000000000000e+04,-2.000000000000000164e-05,-2.999999999999999737e-05,5.999999999999999474e-05,2.600000000000000314e-04,-2.100000000000000087e-04,-5.999999999999999474e-05,4.000000000000000327e-05,5.999999999999999474e-05,4.000000000000000000e+00,1.900000000000000000e+01
4.705600000000000000e+04,-2.000000000000000164e-05,-2.999999999999999737e-05,5.999999999999999474e-05,2.600000000000000314e-04,-2.100000000000000087e-04,-5.999999999999999474e-05,4.000000000000000327e-05,5.999999999999999474e-05,4.000000000000000000e+00,1.900000000000000000e+01
4.705700000000000000e+04,-2.000000000000000164e-05,-2.999999999999999737e-05,5.999999999999999474e-05,2.600000000000000314e-04,-2.100000000000000087e-04,-5.999999999999999474e-05,4.000000000000000327e-05,5.999999999999999474e-05,4.000000000000000000e+00,1.900000000000000000e+01
4.705800000000000000e+04,-2.000000000000000164e-05,-2.999999999999999737e-05,5.999999999999999474e-05,2.600000000000000314e-04,-2.100000000000000087e-04,-5.999999999999999474e-05,4.000000000000000327e-05,5.999999999999999474e-05,4.000000000000000000e+00,1.900000000000000000e+01
4.705900000000000000e+04,-2.000000000000000164e-05,-2.999999999999999737e-05,5.999999999999999474e-05,2.600000000000000314e-04,-2.100000000000000087e-04,-5.999999999999999474e-05,4.000000000000000327e-05,5.999999999999999474e-05,4.000000000000000000e+00,1.900000000000000000e+01
4.706000000000000000e+04,-2.000000000000000164e-05,-2.999999999999999737e-05,5.999999999999999474e-05,2.600000000000000314e-04,-2.100000000000000087e-04,-5.999999999999999474e-05,4.000000000000000327e-05,5.999999999999999474e-05,4.000000000000000000e+00,1.900000000000000000e+01
4.706100000000000000e+04,-2.000000000000000164e-05,-2.999999999999999737e-05,5.999999999999999474e-05,2.600000000000000314e-04,-2.100000000000000087e-04,-5.999999999999999474e-05,4.000000000000000327e-05,5.999999999999999474e-05,4.000000000000000000e+00,1.900000000000000000e+01
4.706200000000000000e+04,-2.000000000000000164e-05,-2.999999999999999737e-05,5.999999999999999474e-05,2.600000000000000314e-04,-2.100000000000000087e-04,-5.999999999999999474e-05,4.000000000000000327e-05,5.999999999999999474e-05,4.000000000000000000e+00,1.900000000000000000e+01
4.706300000000000000e+04,-2.000000000000000164e-05,-2.999999999999999737e-05,5.999999999999999474e-05,2.600000000000000314e-04,-2.100000000000000087e-04,-5.999999999999999474e-05,4.000000000000000327e-05,5.999999999999999474e-05,4.000000000000000000e+00,1.900000000000000000e+01
4.706400000000000000e+04,-2.000000000000000164e-05,-2.999999999999999737e-05,5.999999999999999474e-05,2.600000000000000314e-04,-2.100000000000000087e-04,-5.999999999999999474e-05,4.000000000000000327e-05,5.999999999999999474e-05,4.000000000000000000e+00,1.900000000000000000e+01
4.706500000000000000e+04,-2.000000000000000164e-05,-2.999999999999999737e-05,5.999999999999999474e-05,2.600000000000000314e-04,-2.100000000000000087e-04,-5.999999999999999474e-05,4.000000000000000327e-05,5.999999999999999474e-05,4.000000000000000000e+00,1.900000000000000000e+01
4.706600000000000000e+04,-2.000000000000000164e-05,-2.999999999999999737e-05,5.999999999999999474e-05,2.600000000000000314e-04,-2.100000000000000087e-04,-5.999999999999999474e-05,4.000000000000000327e-05,5.999999999999999474e-05,4.000000000000000000e+00,1.900000000000000000e+01
4.706700000000000000e+04,-2.000000000000000164e-05,-2.999999999999999737e-05,5.999999999999999474e-05,2.600000000000000314e-04,-2.100000000000000087e-04,-5.999999999999999474e-05,4.000000000000000327e-05,5.999999999999999474e-05,4.000000000000000000e+00,1.900000000000000000e+01
4.706800000000000000e+04,-2.000000000000000164e-05,-2.999999999999999737e-05,5.999999999999999474e-05,2.600000000000000314e-04,-2.100000000000000087e-04,-5.999999999999999474e-05,4.000000000000000327e-05,5.999999999999999474e-05,4.000000000000000000e+00,1.900000000000000000e+01
4.706900000000000000e+04,-2.000000000000000164e-05,-2.999999999999999737e-05,5.999999999999999474e-05,2.600000000000000314e-04,-2.100000000000000087e-04,-5.999999999999999474e-05,4.000000000000000327e-05,5.999999999999999474e-05,4.000000000000000000e+00,1.900000000000000000e+01
4.707000000000000000e+04,-2.000000000000000164e-05,-2.999999999999999737e-05,5.999999999999999474e-05,2.600000000000000314e-04,-2.100000000000000087e-04,-5.999999999999999474e-05,4.000000000000000327e-05,5.999999999999999474e-05,4.000000000000000000e+00,1.900000000000000000e+01
4.707100000000000000e+04,-4.000000000000000327e-05,-6.999999999999999387e-05,2.999999999999999737e-05,4.200000000000000174e-04,6.999999999999999929e-04,1.899999999999999834e-04,1.000000000000000048e-04,-2.999999999999999737e-05,4.000000000000000000e+00,1.900000000000000000e+01
4.707200000000000000e+04,-6.999999999999999387e-05,-9.000000000000000567e-05,-1.499999999999999869e-04,-4.700000000000000401e-04,-8.499999999999999526e-04,-2.999999999999999737e-05,-1.100000000000000039e-04,-8.000000000000000654e-05,4.000000000000000000e+00,1.900000000000000000e+01
4.707300000000000000e+04,-6.999999999999999387e-05,-9.000000000000000567e-05,-1.499999999999999869e-04,-4.700000000000000401e-04,-8.499999999999999526e-04,-2.999999999999999737e-05,-1.100000000000000039e-04,-8.000000000000000654e-05,4.000000000000000000e+00,1.900000000000000000e+01
4.707400000000000000e+04,-6.999999999999999387e-05,-9.000000000000000567e-05,-1.499999999999999869e-04,-4.700000000000000401e-04,-8.499999999999999526e-04,-2.999999999999999737e-05,-1.100000000000000039e-04,-8.000000000000000654e-05,4.000000000000000000e+00,1.900000000000000000e+01
4.707500000000000000e+04,-6.999999999999999387e-05,-9.000000000000000567e-05,-1.499999999999999869e-04,-4.700000000000000401e-04,-8.499999999999999526e-04,-2.999999999999999737e-05,-1.100000000000000039e-04,-8.000000000000000654e-05,4.000000000000000000e+00,1.900000000000000000e+01
4.707600000000000000e+04,-6.999999999999999387e-05,-9.000000000000000567e-05,-1.499999999999999869e-04,-4.700000000000000401e-04,-8.499999999999999526e-04,-2.999999999999999737e-05,-1.100000000000000039e-04,-8.000000000000000654e-05,4.000000000000000000e+00,1.900000000000000000e+01
4.707700000000000000e+04,-6.999999999999999387e-05,-9.000000000000000567e-05,-1.499999999999999869e-04,-4.700000000000000401e-04,-8.499999999999999526e-04,-2.999999999999999737e-05,-1.100000000000000039e-04,-8.000000000000000654e-05,4.000000000000000000e+00,1.900000000000000000e+01
4.707800000000000000e+04,-6.999999999999999387e-05,-9.000000000000000567e-05,-1.499999999999999869e-04,-4.700000000000000401e-04,-8.499999999999999526e-04,-2.999999999999999737e-05,-1.100000000000000039e-04,-8.000000000000000654e-05,4.000000000000000000e+00,1.900000000000000000e+01
4.707900000000000000e+04,-6.999999999999999387e-05,-9.000000000000000567e-05,-1.499999999999999869e-04,-4.700000000000000401e-04,-8.499999999999999526e-04,-2.999999999999999737e-05,-1.100000000000000039e-04,-8.000000000000000654e-05,4.000000000000000000e+00,1.900000000000000000e+01
4.708000000000000000e+04,-6.999999999999999387e-05,-9.000000000000000567e-05,-1.499999999999999869e-04,-4.700000000000000401e-04,-8.499999999999999526e-04,-2.999999999999999737e-05,-1.100000000000000039e-04,-8.000000000000000654e-05,4.000000000000000000e+00,1.900000000000000000e+01
4.708100000000000000e+04,-6.999999999999999387e-05,-9.000000000000000567e-05,-1.499999999999999869e-04,-4.700000000000000401e-04,-8.499999999999999526e-04,-2.999999999999999737e-05,-1.100000000000000039e-04,-8.000000000000000654e-05,4.000000000000000000e+00,1.900000000000000000e+01
4.708200000000000000e+04,-6.999999999999999387e-05,-9.000000000000000567e-05,-1.499999999999999869e-04,-4.700000000000000401e-04,-8.499999999999999526e-04,-2.999999999999999737e-05,-1.100000000000000039e-04,-8.000000000000000654e-05,4.000000000000000000e+00,1.900000000000000000e+01
4.708300000000000000e+04,-6.999999999999999387e-05,-9.000000000000000567e-05,-1.499999999999999869e-04,-4.700000000000000401e-04,-8.499999999999999526e-04,-2.999999999999999737e-05,-1.100000000000000039e-04,-8.000000000000000654e-05,4.000000000000000000e+00,1.900000000000000000e+01
4.708400000000000000e+04,-6.999999999999999387e-05,-9.000000000000000567e-05,-1.499999999999999869e-04,-4.700000000000000401e-04,-8.499999999999999526e-04,-2.999999999999999737e-05,-1.100000000000000039e-04,-8.000000000000000654e-05,4.000000000000000000e+00,1.900000000000000000e+01
4.708500000000000000e+04,-6.999999999999999387e-05,-9.000000000000000567e-05,-1.499999999999999869e-04,-4.700000000000000401e-04,-8.499999999999999526e-04,-2.999999999999999737e-05,-1.100000000000000039e-04,-8.000000000000000654e-05,4.000000000000000000e+00,1.900000000000000000e+01
4.708600000000000000e+04,-6.999999999999999387e-05,-9.000000000000000567e-05,-1.499999999999999869e-04,-4.700000000000000401e-04,-8.499999999999999526e-04,-2.999999999999999737e-05,-1.100000000000000039e-04,-8.000000000000000654e-05,4.000000000000000000e+00,1.900000000000000000e+01
4.708700000000000000e+04,-6.999999999999999387e-05,-9.000000000000000567e-05,-1.499999999999999869e-04,-4.700000000000000401e-04,-8.499999999999999526e-04,-2.999999999999999737e-05,-1.100000000000000039e-04,-8.000000000000000654e-05,4.000000000000000000e+00,1.900000000000000000e+01
4.708800000000000000e+04,-6.999999999999999387e-05,-9.000000000000000567e-05,-1.499999999999999869e-04,-4.700000000000000401e-04,-8.499999999999999526e-04,-2.999999999999999737e-05,-1.100000000000000039e-04,-8.000000000000000654e-05,4.000000000000000000e+00,1.900000000000000000e+01
4.708900000000000000e+04,-6.999999999999999387e-05,-9.000000000000000567e-05,-1.499999999999999869e-04,-4.700000000000000401e-04,-8.499999999999999526e-04,-2.999999999999999737e-05,-1.100000000000000039e-04,-8.000000000000000654e-05,4.000000000000000000e+00,1.900000000000000000e+01
4.709000000000000000e+04,-6.999999999999999387e-05,-9.000000000000000567e-05,-1.499999999999999869e-04,-4.700000000000000401e-04,-8.499999999999999526e-04,-2.999999999999999737e-05,-1.100000000000000039e-04,-8.000000000000000654e-05,4.000000000000000000e+00,1.900000000000000000e+01
4.709100000000000000e+04,-6.999999999999999387e-05,-9.000000000000000567e-05,-1.499999999999999869e-04,-4.700000000000000401e-04,-8.499999999999999526e-04,-2.999999999999999737e-05,-1.100000000000000039e-04,-8.000000000000000654e-05,4.000000000000000000e+00,1.900000000000000000e+01
4.709200000000000000e+04,-6.999999999999999387e-05,-9.000000000000000567e-05,-1.499999999999999869e-04,-4.700000000000000401e-04,-8.499999999999999526e-04,-2.999999999999999737e-05,-1.100000000000000039e-04,-8.000000000000000654e-05,4.000000000000000000e+00,1.900000000000000000e+01
4.709300000000000000e+04,-6.999999999999999387e-05,-9.000000000000000567e-05,-1.499999999999999869e-04,-4.700000000000000401e-04,-8.499999999999999526e-04,-2.999999999999999737e-05,-1.100000000000000039e-04,-8.000000000000000654e-05,4.000000000000000000e+00,1.900000000000000000e+01
4.709400000000000000e+04,-2.999999999999999737e-05,5.000000000000000240e-05,0.000000000000000000e+00,-1.899999999999999834e-04,-6.099999999999999737e-04,2.000000000000000096e-04,-1.000000000000000082e-05,-2.999999999999999737e-05,4.000000000000000000e+00,1.900000000000000000e+01
4.709500000000000000e+04,1.000000000000000082e-05,-4.000000000000000327e-05,-5.999999999999999474e-05,-3.499999999999999964e-04,5.999999999999999474e-05,0.000000000000000000e+00,5.999999999999999474e-05,1.100000000000000039e-04,4.000000000000000000e+00,1.900000000000000000e+01
4.709600000000000000e+04,1.000000000000000082e-05,-4.000000000000000327e-05,-5.999999999999999474e-05,-3.499999999999999964e-04,5.999999999999999474e-05,0.000000000000000000e+00,5.999999999999999474e-05,1.100000000000000039e-04,4.000000000000000000e+00,1.900000000000000000e+01
4.709700000000000000e+04,1.000000000000000082e-05,-4.000000000000000327e-05,-5.999999999999999474e-05,-3.499999999999999964e-04,5.999999999999999474e-05,0.000000000000000000e+00,5.999999999999999474e-05,1.100000000000000039e-04,4.000000000000000000e+00,1.900000000000000000e+01
4.709800000000000000e+04,1.000000000000000082e-05,-4.000000000000000327e-05,-5.999999999999999474e-05,-3.499999999999999964e-04,5.999999999999999474e-05,0.000000000000000000e+00,5.999999999999999474e-05,1.100000000000000039e-04,4.000000000000000000e+00,1.900000000000000000e+01
4.709900000000000000e+04,1.000000000000000082e-05,-4.000000000000000327e-05,-5.999999999999999474e-05,-3.499999999999999964e-04,5.999999999999999474e-05,0.000000000000000000e+00,5.999999999999999474e-05,1.100000000000000039e-04,4.000000000000000000e+00,1.900000000000000000e+01
4.710000000000000000e+04,1.000000000000000082e-05,-4.000000000000000327e-05,-5.999999999999999474e-05,-3.499999999999999964e-04,5.999999999999999474e-05,0.000000000000000000e+00,5.999999999999999474e-05,1.100000000000000039e-04,4.000000000000000000e+00,1.900000000000000000e+01
4.710100000000000000e+04,1.000000000000000082e-05,-4.000000000000000327e-05,-5.999999999999999474e-05,-3.499999999999999964e-04,5.999999999999999474e-05,0.000000000000000000e+00,5.999999999999999474e-05,1.100000000000000039e-04,4.000000000000000000e+00,1.900000000000000000e+01
4.710300000000000000e+04,1.000000000000000082e-05,-4.000000000000000327e-05,-5.999999999999999474e-05,-3.499999999999999964e-04,5.999999999999999474e-05,0.000000000000000000e+00,5.999999999999999474e-05,1.100000000000000039e-04,4.000000000000000000e+00,1.900000000000000000e+01
4.710400000000000000e+04,1.000000000000000082e-05,-4.000000000000000327e-05,-5.999999999999999474e-05,-3.499999999999999964e-04,5.999999999999999474e-05,0.000000000000000000e+00,5.999999999999999474e-05,1.100000000000000039e-04,4.000000000000000000e+00,1.900000000000000000e+01
4.710500000000000000e+04,1.000000000000000082e-05,-4.000000000000000327e-05,-5.999999999999999474e-05,-3.499999999999999964e-04,5.999999999999999474e-05,0.000000000000000000e+00,5.999999999999999474e-05,1.100000000000000039e-04,4.000000000000000000e+00,1.900000000000000000e+01
4.710600000000000000e+04,1.000000000000000082e-05,-4.000000000000000327e-05,-5.999999999999999474e-05,-3.499999999999999964e-04,5.999999999999999474e-05,0.000000000000000000e+00,5.999999999999999474e-05,1.100000000000000039e-04,4.000000000000000000e+00,1.900000000000000000e+01
4.710700000000000000e+04,1.000000000000000082e-05,0.000000000000000000e+00,5.000000000000000240e-05,2.200000000000000078e-04,-2.600000000000000314e-04,1.199999999999999895e-04,-9.000000000000000567e-05,-9.000000000000000567e-05,4.000000000000000000e+00,1.900000000000000000e+01
4.710800000000000000e+04,1.000000000000000082e-05,0.000000000000000000e+00,5.000000000000000240e-05,2.200000000000000078e-04,-2.600000000000000314e-04,1.199999999999999895e-04,-9.000000000000000567e-05,-9.000000000000000567e-05,4.000000000000000000e+00,1.900000000000000000e+01
4.710900000000000000e+04,1.000000000000000082e-05,0.000000000000000000e+00,5.000000000000000240e-05,2.200000000000000078e-04,-2.600000000000000314e-04,1.199999999999999895e-04,-9.000000000000000567e-05,-9.000000000000000567e-05,4.000000000000000000e+00,1.900000000000000000e+01
4.711000000000000000e+04,1.000000000000000082e-05,0.000000000000000000e+00,5.000000000000000240e-05,2.200000000000000078e-04,-2.600000000000000314e-04,1.199999999999999895e-04,-9.000000000000000567e-05,-9.000000000000000567e-05,4.000000000000000000e+00,1.900000000000000000e+01
4.711100000000000000e+04,1.000000000000000082e-05,0.000000000000000000e+00,5.000000000000000240e-05,2.200000000000000078e-04,-2.600000000000000314e-04,1.199999999999999895e-04,-9.000000000000000567e-05,-9.000000000000000567e-05,4.000000000000000000e+00,1.900000000000000000e+01
4.711200000000000000e+04,1.000000000000000082e-05,0.000000000000000000e+00,5.000000000000000240e-05,2.200000000000000078e-04,-2.600000000000000314e-04,1.199999999999999895e-04,-9.000000000000000567e-05,-9.000000000000000567e-05,4.000000000000000000e+00,1.900000000000000000e+01
4.711300000000000000e+04,1.000000000000000082e-05,0.000000000000000000e+00,5.000000000000000240e-05,2.200000000000000078e-04,-2.600000000000000314e-04,1.199999999999999895e-04,-9.000000000000000567e-05,-9.000000000000000567e-05,4.000000000000000000e+00,1.900000000000000000e+01
4.711400000000000000e+04,-8.000000000000000654e-05,-1.300000000000000157e-04,-1.800000000000000113e-04,-6.400000000000000524e-04,-8.800000000000000313e-04,2.299999999999999799e-04,1.000000000000000082e-05,-2.999999999999999737e-05,4.000000000000000000e+00,1.900000000000000000e+01
4.711500000000000000e+04,-8.000000000000000654e-05,-1.300000000000000157e-04,-1.800000000000000113e-04,-6.400000000000000524e-04,-8.800000000000000313e-04,2.299999999999999799e-04,1.000000000000000082e-05,-2.999999999999999737e-05,4.000000000000000000e+00,1.900000000000000000e+01
4.711600000000000000e+04,-8.000000000000000654e-05,-1.300000000000000157e-04,-1.800000000000000113e-04,-6.400000000000000524e-04,-8.800000000000000313e-04,2.299999999999999799e-04,1.000000000000000082e-05,-2.999999999999999737e-05,4.000000000000000000e+00,1.900000000000000000e+01
4.711700000000000000e+04,-8.000000000000000654e-05,-1.300000000000000157e-04,-1.800000000000000113e-04,-6.400000000000000524e-04,-8.800000000000000313e-04,2.299999999999999799e-04,1.000000000000000082e-05,-2.999999999999999737e-05,4.000000000000000000e+00,1.900000000000000000e+01
4.711800000000000000e+04,-8.000000000000000654e-05,-1.300000000000000157e-04,-1.800000000000000113e-04,-6.400000000000000524e-04,-8.800000000000000313e-04,2.299999999999999799e-04,1.000000000000000082e-05,-2.999999999999999737e-05,4.000000000000000000e+00,1.900000000000000000e+01
4.711900000000000000e+04,-8.000000000000000654e-05,-1.300000000000000157e-04,-1.800000000000000113e-04,-6.400000000000000524e-04,-8.800000000000000313e-04,2.299999999999999799e-04,1.000000000000000082e-05,-2.999999999999999737e-05,4.000000000000000000e+00,1.900000000000000000e+01
4.712000000000000000e+04,-8.000000000000000654e-05,-1.300000000000000157e-04,-1.800000000000000113e-04,-6.400000000000000524e-04,-8.800000000000000313e-04,2.299999999999999799e-04,1.000000000000000082e-05,-2.999999999999999737e-05,4.000000000000000000e+00,1.900000000000000000e+01
4.712100000000000000e+04,-8.000000000000000654e-05,-1.300000000000000157e-04,-1.800000000000000113e-04,-6.400000000000000524e-04,-8.800000000000000313e-04,2.299999999999999799e-04,1.000000000000000082e-05,-2.999999999999999737e-05,4.000000000000000000e+00,1.900000000000000000e+01
4.712200000000000000e+04,-8.000000000000000654e-05,-1.300000000000000157e-04,-1.800000000000000113e-04,-6.400000000000000524e-04,-8.800000000000000313e-04,2.299999999999999799e-04,1.000000000000000082e-05,-2.999999999999999737e-05,4.000000000000000000e+00,1.900000000000000000e+01
4.712300000000000000e+04,-8.000000000000000654e-05,-1.300000000000000157e-04,-1.800000000000000113e-04,-6.400000000000000524e-04,-8.800000000000000313e-04,2.299999999999999799e-04,1.000000000000000082e-05,-2.999999999999999737e-05,4.000000000000000000e+00,1.900000000000000000e+01
4.712400000000000000e+04,-8.000000000000000654e-05,-1.300000000000000157e-04,-1.800000000000000113e-04,-6.400000000000000524e-04,-8.800000000000000313e-04,2.299999999999999799e-04,1.000000000000000082e-05,-2.999999999999999737e-05,4.000000000000000000e+00,1.900000000000000000e+01
4.712500000000000000e+04,-8.000000000000000654e-05,-1.300000000000000157e-04,-1.800000000000000113e-04,-6.400000000000000524e-04,-8.800000000000000313e-04,2.299999999999999799e-04,1.000000000000000082e-05,-2.999999999999999737e-05,4.000000000000000000e+00,1.900000000000000000e+01
4.712600000000000000e+04,-8.000000000000000654e-05,-1.300000000000000157e-04,-1.800000000000000113e-04,-6.400000000000000524e-04,-8.800000000000000313e-04,2.299999999999999799e-04,1.000000000000000082e-05,-2.999999999999999737e-05,4.000000000000000000e+00,1.900000000000000000e+01
4.712700000000000000e+04,-8.000000000000000654e-05,-1.300000000000000157e-04,-1.800000000000000113e-04,-6.400000000000000524e-04,-8.800000000000000313e-04,2.299999999999999799e-04,1.000000000000000082e-05,-2.999999999999999737e-05,4.000000000000000000e+00,1.900000000000000000e+01
4.712800000000000000e+04,-8.000000000000000654e-05,-1.300000000000000157e-04,-1.800000000000000113e-04,-6.400000000000000524e-04,-8.800000000000000313e-04,2.299999999999999799e-04,1.000000000000000082e-05,-2.999999999999999737e-05,4.000000000000000000e+00,1.900000000000000000e+01
4.712900000000000000e+04,-8.000000000000000654e-05,-1.300000000000000157e-04,-1.800000000000000113e-04,-6.400000000000000524e-04,-8.800000000000000313e-04,2.299999999999999799e-04,1.000000000000000082e-05,-2.999999999999999737e-05,4.000000000000000000e+00,1.900000000000000000e+01
4.713000000000000000e+04,1.399999999999999877e-04,-1.000000000000000082e-05,5.999999999999999474e-05,2.700000000000000035e-04,6.400000000000000524e-04,4.299999999999999894e-04,2.399999999999999790e-04,2.000000000000000164e-05,4.000000000000000000e+00,1.900000000000000000e+01
4.713100000000000000e+04,1.399999999999999877e-04,-1.000000000000000082e-05,5.999999999999999474e-05,2.700000000000000035e-04,6.400000000000000524e-04,4.299999999999999894e-04,2.399999999999999790e-04,2.000000000000000164e-05,4.000000000000000000e+00,1.900000000000000000e+01
4.713200000000000000e+04,-1.300000000000000157e-04,-5.999999999999999474e-05,-1.000000000000000048e-04,-2.500000000000000052e-04,-5.699999999999999772e-04,-5.599999999999999509e-04,-1.600000000000000131e-04,-1.000000000000000048e-04,4.000000000000000000e+00,1.900000000000000000e+01
4.713300000000000000e+04,-1.300000000000000157e-04,-5.999999999999999474e-05,-1.000000000000000048e-04,-2.500000000000000052e-04,-5.699999999999999772e-04,-5.599999999999999509e-04,-1.600000000000000131e-04,-1.000000000000000048e-04,4.000000000000000000e+00,1.900000000000000000e+01
4.713400000000000000e+04,-1.300000000000000157e-04,-5.999999999999999474e-05,-1.000000000000000048e-04,-2.500000000000000052e-04,-5.699999999999999772e-04,-5.599999999999999509e-04,-1.600000000000000131e-04,-1.000000000000000048e-04,4.000000000000000000e+00,1.900000000000000000e+01
4.713500000000000000e+04,-1.300000000000000157e-04,-5.999999999999999474e-05,-1.000000000000000048e-04,-2.500000000000000052e-04,-5.699999999999999772e-04,-5.599999999999999509e-04,-1.600000000000000131e-04,-1.000000000000000048e-04,4.000000000000000000e+00,1.900000000000000000e+01
4.713600000000000000e+04,-1.300000000000000157e-04,-5.999999999999999474e-05,-1.000000000000000048e-04,-2.500000000000000052e-04,-5.699999999999999772e-04,-5.599999999999999509e-04,-1.600000000000000131e-04,-1.000000000000000048e-04,4.000000000000000000e+00,1.900000000000000000e+01
4.713700000000000000e+04,-1.300000000000000157e-04,-5.999999999999999474e-05,-1.000000000000000048e-04,-2.500000000000000052e-04,-5.699999999999999772e-04,-5.599999999999999509e-04,-1.600000000000000131e-04,-1.000000000000000048e-04,4.000000000000000000e+00,1.900000000000000000e+01
4.713800000000000000e+04,-1.300000000000000157e-04,-5.999999999999999474e-05,-1.000000000000000048e-04,-2.500000000000000052e-04,-5.699999999999999772e-04,-5.599999999999999509e-04,-1.600000000000000131e-04,-1.000000000000000048e-04,4.000000000000000000e+00,1.900000000000000000e+01
4.713900000000000000e+04,-1.300000000000000157e-04,-5.999999999999999474e-05,-1.000000000000000048e-04,-2.500000000000000052e-04,-5.699999999999999772e-04,-5.599999999999999509e-04,-1.600000000000000131e-04,-1.000000000000000048e-04,4.000000000000000000e+00,1.900000000000000000e+01
4.714000000000000000e+04,-1.300000000000000157e-04,-5.999999999999999474e-05,-1.000000000000000048e-04,-2.500000000000000052e-04,-5.699999999999999772e-04,-5.599999999999999509e-04,-1.600000000000000131e-04,-1.000000000000000048e-04,4.000000000000000000e+00,1.900000000000000000e+01
4.714100000000000000e+04,-1.300000000000000157e-04,-5.999999999999999474e-05,-1.000000000000000048e-04,-2.500000000000000052e-04,-5.699999999999999772e-04,-5.599999999999999509e-04,-1.600000000000000131e-04,-1.000000000000000048e-04,4.000000000000000000e+00,1.900000000000000000e+01
4.714200000000000000e+04,-1.300000000000000157e-04,-5.999999999999999474e-05,-1.000000000000000048e-04,-2.500000000000000052e-04,-5.699999999999999772e-04,-5.599999999999999509e-04,-1.600000000000000131e-04,-1.000000000000000048e-04,4.000000000000000000e+00,1.900000000000000000e+01
4.714300000000000000e+04,-1.300000000000000157e-04,-5.999999999999999474e-05,-1.000000000000000048e-04,-2.500000000000000052e-04,-5.699999999999999772e-04,-5.599999999999999509e-04,-1.600000000000000131e-04,-1.000000000000000048e-04,4.000000000000000000e+00,1.900000000000000000e+01
4.714400000000000000e+04,-1.300000000000000157e-04,-5.999999999999999474e-05,-1.000000000000000048e-04,-2.500000000000000052e-04,-5.699999999999999772e-04,-5.599999999999999509e-04,-1.600000000000000131e-04,-1.000000000000000048e-04,4.000000000000000000e+00,1.900000000000000000e+01
4.714500000000000000e+04,-1.300000000000000157e-04,-5.999999999999999474e-05,-1.000000000000000048e-04,-2.500000000000000052e-04,-5.699999999999999772e-04,-5.599999999999999509e-04,-1.600000000000000131e-04,-1.000000000000000048e-04,4.000000000000000000e+00,1.900000000000000000e+01
4.714600000000000000e+04,-1.300000000000000157e-04,-5.999999999999999474e-05,-1.000000000000000048e-04,-2.500000000000000052e-04,-5.699999999999999772e-04,-5.599999999999999509e-04,-1.600000000000000131e-04,-1.000000000000000048e-04,4.000000000000000000e+00,1.900000000000000000e+01
4.714700000000000000e+04,-1.300000000000000157e-04,-5.999999999999999474e-05,-1.000000000000000048e-04,-2.500000000000000052e-04,-5.699999999999999772e-04,-5.599999999999999509e-04,-1.600000000000000131e-04,-1.000000000000000048e-04,4.000000000000000000e+00,1.900000000000000000e+01
4.714900000000000000e+04,-1.300000000000000157e-04,-5.999999999999999474e-05,-1.000000000000000048e-04,-2.500000000000000052e-04,-5.699999999999999772e-04,-5.599999999999999509e-04,-1.600000000000000131e-04,-1.000000000000000048e-04,4.000000000000000000e+00,1.900000000000000000e+01
4.715000000000000000e+04,-1.300000000000000157e-04,-5.999999999999999474e-05,-1.000000000000000048e-04,-2.500000000000000052e-04,-5.699999999999999772e-04,-5.599999999999999509e-04,-1.600000000000000131e-04,-1.000000000000000048e-04,4.000000000000000000e+00,1.900000000000000000e+01
4.715100000000000000e+04,-1.300000000000000157e-04,-5.999999999999999474e-05,-1.000000000000000048e-04,-2.500000000000000052e-04,-5.699999999999999772e-04,-5.599999999999999509e-04,-1.600000000000000131e-04,-1.000000000000000048e-04,4.000000000000000000e+00,1.900000000000000000e+01
4.715200000000000000e+04,-1.300000000000000157e-04,-5.999999999999999474e-05,-1.000000000000000048e-04,-2.500000000000000052e-04,-5.699999999999999772e-04,-5.599999999999999509e-04,-1.600000000000000131e-04,-1.000000000000000048e-04,4.000000000000000000e+00,1.900000000000000000e+01
4.715300000000000000e+04,-1.300000000000000157e-04,-1.600000000000000131e-04,-2.399999999999999790e-04,-6.300000000000000261e-04,-1.019999999999999856e-03,-1.499999999999999869e-04,-5.999999999999999474e-05,-8.000000000000000654e-05,4.000000000000000000e+00,1.900000000000000000e+01
4.715400000000000000e+04,-1.300000000000000157e-04,-1.600000000000000131e-04,-2.399999999999999790e-04,-6.300000000000000261e-04,-1.019999999999999856e-03,-1.499999999999999869e-04,-5.999999999999999474e-05,-8.000000000000000654e-05,4.000000000000000000e+00,1.900000000000000000e+01
4.715500000000000000e+04,8.000000000000000654e-05,9.000000000000000567e-05,1.499999999999999869e-04,1.100000000000000039e-04,5.099999999999999282e-04,3.299999999999999982e-04,9.000000000000000567e-05,9.000000000000000567e-05,4.000000000000000000e+00,1.900000000000000000e+01
4.715600000000000000e+04,8.000000000000000654e-05,9.000000000000000567e-05,1.499999999999999869e-04,1.100000000000000039e-04,5.099999999999999282e-04,3.299999999999999982e-04,9.000000000000000567e-05,9.000000000000000567e-05,4.000000000000000000e+00,1.900000000000000000e+01
4.715700000000000000e+04,8.000000000000000654e-05,9.000000000000000567e-05,1.499999999999999869e-04,1.100000000000000039e-04,5.099999999999999282e-04,3.299999999999999982e-04,9.000000000000000567e-05,9.000000000000000567e-05,4.000000000000000000e+00,1.900000000000000000e+01
4.715800000000000000e+04,8.000000000000000654e-05,9.000000000000000567e-05,1.499999999999999869e-04,1.100000000000000039e-04,5.099999999999999282e-04,3.299999999999999982e-04,9.000000000000000567e-05,9.000000000000000567e-05,4.000000000000000000e+00,1.900000000000000000e+01
4.715900000000000000e+04,8.000000000000000654e-05,9.000000000000000567e-05,1.499999999999999869e-04,1.100000000000000039e-04,5.099999999999999282e-04,3.299999999999999982e-04,9.000000000000000567e-05,9.000000000000000567e-05,4.000000000000000000e+00,1.900000000000000000e+01
4.716000000000000000e+04,8.000000000000000654e-05,9.000000000000000567e-05,1.499999999999999869e-04,1.100000000000000039e-04,5.099999999999999282e-04,3.299999999999999982e-04,9.000000000000000567e-05,9.000000000000000567e-05,4.000000000000000000e+00,1.900000000000000000e+01
4.716100000000000000e+04,8.000000000000000654e-05,9.000000000000000567e-05,1.499999999999999869e-04,1.100000000000000039e-04,5.099999999999999282e-04,3.299999999999999982e-04,9.000000000000000567e-05,9.000000000000000567e-05,4.000000000000000000e+00,1.900000000000000000e+01
4.716200000000000000e+04,8.000000000000000654e-05,9.000000000000000567e-05,1.499999999999999869e-04,1.100000000000000039e-04,5.099999999999999282e-04,3.299999999999999982e-04,9.000000000000000567e-05,9.000000000000000567e-05,4.000000000000000000e+00,1.900000000000000000e+01
4.716300000000000000e+04,8.000000000000000654e-05,9.000000000000000567e-05,1.499999999999999869e-04,1.100000000000000039e-04,5.099999999999999282e-04,3.299999999999999982e-04,9.000000000000000567e-05,9.000000000000000567e-05,4.000000000000000000e+00,1.900000000000000000e+01
4.716400000000000000e+04,8.000000000000000654e-05,9.000000000000000567e-05,1.499999999999999869e-04,1.100000000000000039e-04,5.099999999999999282e-04,3.299999999999999982e-04,9.000000000000000567e-05,9.000000000000000567e-05,4.000000000000000000e+00,1.900000000000000000e+01
4.716500000000000000e+04,8.000000000000000654e-05,9.000000000000000567e-05,1.499999999999999869e-04,1.100000000000000039e-04,5.099999999999999282e-04,3.299999999999999982e-04,9.000000000000000567e-05,9.000000000000000567e-05,4.000000000000000000e+00,1.900000000000000000e+01
4.716600000000000000e+04,8.000000000000000654e-05,9.000000000000000567e-05,1.499999999999999869e-04,1.100000000000000039e-04,5.099999999999999282e-04,3.299999999999999982e-04,9.000000000000000567e-05,9.000000000000000567e-05,4.000000000000000000e+00,1.900000000000000000e+01
4.716700000000000000e+04,1.699999999999999851e-04,1.399999999999999877e-04,2.799999999999999755e-04,4.499999999999999877e-04,2.999999999999999737e-05,3.699999999999999947e-04,6.999999999999999387e-05,1.100000000000000039e-04,4.000000000000000000e+00,1.900000000000000000e+01
4.716800000000000000e+04,1.699999999999999851e-04,1.399999999999999877e-04,2.799999999999999755e-04,4.499999999999999877e-04,2.999999999999999737e-05,3.699999999999999947e-04,6.999999999999999387e-05,1.100000000000000039e-04,4.000000000000000000e+00,1.900000000000000000e+01
4.716900000000000000e+04,1.699999999999999851e-04,1.399999999999999877e-04,2.799999999999999755e-04,4.499999999999999877e-04,2.999999999999999737e-05,3.699999999999999947e-04,6.999999999999999387e-05,1.100000000000000039e-04,4.000000000000000000e+00,1.900000000000000000e+01
4.717000000000000000e+04,1.699999999999999851e-04,1.399999999999999877e-04,2.799999999999999755e-04,4.499999999999999877e-04,2.999999999999999737e-05,3.699999999999999947e-04,6.999999999999999387e-05,1.100000000000000039e-04,4.000000000000000000e+00,1.900000000000000000e+01
4.717100000000000000e+04,1.699999999999999851e-04,1.399999999999999877e-04,2.799999999999999755e-04,4.499999999999999877e-04,2.999999999999999737e-05,3.699999999999999947e-04,6.999999999999999387e-05,1.100000000000000039e-04,4.000000000000000000e+00,1.900000000000000000e+01
4.717200000000000000e+04,1.699999999999999851e-04,1.399999999999999877e-04,2.799999999999999755e-04,4.499999999999999877e-04,2.999999999999999737e-05,3.699999999999999947e-04,6.999999999999999387e-05,1.100000000000000039e-04,4.000000000000000000e+00,1.900000000000000000e+01
4.717300000000000000e+04,1.699999999999999851e-04,1.399999999999999877e-04,2.799999999999999755e-04,4.499999999999999877e-04,2.999999999999999737e-05,3.699999999999999947e-04,6.999999999999999387e-05,1.100000000000000039e-04,4.000000000000000000e+00,1.900000000000000000e+01
4.717400000000000000e+04,-1.399999999999999877e-04,-1.699999999999999851e-04,-1.499999999999999869e-04,-1.899999999999999834e-04,-7.500000000000000156e-04,-6.900000000000000751e-04,-2.399999999999999790e-04,-1.800000000000000113e-04,4.000000000000000000e+00,1.900000000000000000e+01
4.717500000000000000e+04,-1.399999999999999877e-04,-1.699999999999999851e-04,-1.499999999999999869e-04,-1.899999999999999834e-04,-7.500000000000000156e-04,-6.900000000000000751e-04,-2.399999999999999790e-04,-1.800000000000000113e-04,4.000000000000000000e+00,1.900000000000000000e+01
4.717600000000000000e+04,-1.399999999999999877e-04,-1.699999999999999851e-04,-1.499999999999999869e-04,-1.899999999999999834e-04,-7.500000000000000156e-04,-6.900000000000000751e-04,-2.399999999999999790e-04,-1.800000000000000113e-04,4.000000000000000000e+00,1.900000000000000000e+01
4.717700000000000000e+04,-1.399999999999999877e-04,-1.699999999999999851e-04,-1.499999999999999869e-04,-1.899999999999999834e-04,-7.500000000000000156e-04,-6.900000000000000751e-04,-2.399999999999999790e-04,-1.800000000000000113e-04,4.000000000000000000e+00,1.900000000000000000e+01
4.717800000000000000e+04,-1.399999999999999877e-04,-1.699999999999999851e-04,-1.499999999999999869e-04,-1.899999999999999834e-04,-7.500000000000000156e-04,-6.900000000000000751e-04,-2.399999999999999790e-04,-1.800000000000000113e-04,4.000000000000000000e+00,1.900000000000000000e+01
4.717900000000000000e+04,-1.399999999999999877e-04,-1.699999999999999851e-04,-1.499999999999999869e-04,-1.899999999999999834e-04,-7.500000000000000156e-04,-6.900000000000000751e-04,-2.399999999999999790e-04,-1.800000000000000113e-04,4.000000000000000000e+00,1.900000000000000000e+01
4.718000000000000000e+04,-1.399999999999999877e-04,-1.699999999999999851e-04,-1.499999999999999869e-04,-1.899999999999999834e-04,-7.500000000000000156e-04,-6.900000000000000751e-04,-2.399999999999999790e-04,-1.800000000000000113e-04,4.000000000000000000e+00,1.900000000000000000e+01
4.718100000000000000e+04,-1.399999999999999877e-04,-1.699999999999999851e-04,-1.499999999999999869e-04,-1.899999999999999834e-04,-7.500000000000000156e-04,-6.900000000000000751e-04,-2.399999999999999790e-04,-1.800000000000000113e-04,4.000000000000000000e+00,1.900000000000000000e+01
4.718200000000000000e+04,-1.399999999999999877e-04,-1.699999999999999851e-04,-1.499999999999999869e-04,-1.899999999999999834e-04,-7.500000000000000156e-04,-6.900000000000000751e-04,-2.399999999999999790e-04,-1.800000000000000113e-04,4.000000000000000000e+00,1.900000000000000000e+01
4.718300000000000000e+04,-1.399999999999999877e-04,-1.699999999999999851e-04,-1.499999999999999869e-04,-1.899999999999999834e-04,-7.500000000000000156e-04,-6.900000000000000751e-04,-2.399999999999999790e-04,-1.800000000000000113e-04,4.000000000000000000e+00,1.900000000000000000e+01
4.718400000000000000e+04,-1.399999999999999877e-04,-1.699999999999999851e-04,-1.499999999999999869e-04,-1.899999999999999834e-04,-7.500000000000000156e-04,-6.900000000000000751e-04,-2.399999999999999790e-04,-1.800000000000000113e-04,4.000000000000000000e+00,1.900000000000000000e+01
4.718500000000000000e+04,-1.399999999999999877e-04,-1.699999999999999851e-04,-1.499999999999999869e-04,-1.899999999999999834e-04,-7.500000000000000156e-04,-6.900000000000000751e-04,-2.399999999999999790e-04,-1.800000000000000113e-04,4.000000000000000000e+00,1.900000000000000000e+01
4.718600000000000000e+04,-1.399999999999999877e-04,-1.699999999999999851e-04,-1.499999999999999869e-04,-1.899999999999999834e-04,-7.500000000000000156e-04,-6.900000000000000751e-04,-2.399999999999999790e-04,-1.800000000000000113e-04,4.000000000000000000e+00,1.900000000000000000e+01
4.718700000000000000e+04,-1.399999999999999877e-04,-1.699999999999999851e-04,-1.499999999999999869e-04,-1.899999999999999834e-04,-7.500000000000000156e-04,-6.900000000000000751e-04,-2.399999999999999790e-04,-1.800000000000000113e-04,4.000000000000000000e+00,1.900000000000000000e+01
4.718800000000000000e+04,-1.399999999999999877e-04,-1.699999999999999851e-04,-1.499999999999999869e-04,-1.899999999999999834e-04,-7.500000000000000156e-04,-6.900000000000000751e-04,-2.399999999999999790e-04,-1.800000000000000113e-04,4.000000000000000000e+00,1.900000000000000000e+01
4.718900000000000000e+04,-1.399999999999999877e-04,-1.699999999999999851e-04,-1.499999999999999869e-04,-1.899999999999999834e-04,-7.500000000000000156e-04,-6.900000000000000751e-04,-2.399999999999999790e-04,-1.800000000000000113e-04,4.000000000000000000e+00,1.900000000000000000e+01
4.719000000000000000e+04,-1.399999999999999877e-04,-1.699999999999999851e-04,-1.499999999999999869e-04,-1.899999999999999834e-04,-7.500000000000000156e-04,-6.900000000000000751e-04,-2.399999999999999790e-04,-1.800000000000000113e-04,4.000000000000000000e+00,1.900000000000000000e+01
4.719100000000000000e+04,-1.000000000000000048e-04,1.000000000000000082e-05,-1.199999999999999895e-04,-4.099999999999999912e-04,-4.700000000000000401e-04,-9.000000000000000567e-05,0.000000000000000000e+00,-1.100000000000000039e-04,4.000000000000000000e+00,1.900000000000000000e+01
4.719200000000000000e+04,2.000000000000000164e-05,5.999999999999999474e-05,4.000000000000000327e-05,-2.999999999999999737e-05,1.499999999999999869e-04,1.600000000000000131e-04,-1.000000000000000048e-04,-8.000000000000000654e-05,4.000000000000000000e+00,1.900000000000000000e+01
4.719300000000000000e+04,2.000000000000000164e-05,5.999999999999999474e-05,4.000000000000000327e-05,-2.999999999999999737e-05,1.499999999999999869e-04,1.600000000000000131e-04,-1.000000000000000048e-04,-8.000000000000000654e-05,4.000000000000000000e+00,1.900000000000000000e+01
4.719400000000000000e+04,2.000000000000000164e-05,5.999999999999999474e-05,4.000000000000000327e-05,-2.999999999999999737e-05,1.499999999999999869e-04,1.600000000000000131e-04,-1.000000000000000048e-04,-8.000000000000000654e-05,4.000000000000000000e+00,1.900000000000000000e+01
4.719600000000000000e+04,2.000000000000000164e-05,5.999999999999999474e-05,4.000000000000000327e-05,-2.999999999999999737e-05,1.499999999999999869e-04,1.600000000000000131e-04,-1.000000000000000048e-04,-8.000000000000000654e-05,4.000000000000000000e+00,1.900000000000000000e+01
4.719700000000000000e+04,2.000000000000000164e-05,5.999999999999999474e-05,4.000000000000000327e-05,-2.999999999999999737e-05,1.499999999999999869e-04,1.600000000000000131e-04,-1.000000000000000048e-04,-8.000000000000000654e-05,4.000000000000000000e+00,1.900000000000000000e+01
4.719800000000000000e+04,2.000000000000000164e-05,5.999999999999999474e-05,4.000000000000000327e-05,-2.999999999999999737e-05,1.499999999999999869e-04,1.600000000000000131e-04,-1.000000000000000048e-04,-8.000000000000000654e-05,4.000000000000000000e+00,1.900000000000000000e+01
4.719900000000000000e+04,2.000000000000000164e-05,5.999999999999999474e-05,4.000000000000000327e-05,-2.999999999999999737e-05,1.499999999999999869e-04,1.600000000000000131e-04,-1.000000000000000048e-04,-8.000000000000000654e-05,4.000000000000000000e+00,1.900000000000000000e+01
4.720000000000000000e+04,2.000000000000000164e-05,5.999999999999999474e-05,4.000000000000000327e-05,-2.999999999999999737e-05,1.499999999999999869e-04,1.600000000000000131e-04,-1.000000000000000048e-04,-8.000000000000000654e-05,4.000000000000000000e+00,1.900000000000000000e+01
4.720100000000000000e+04,2.000000000000000164e-05,5.999999999999999474e-05,4.000000000000000327e-05,-2.999999999999999737e-05,1.499999999999999869e-04,1.600000000000000131e-04,-1.000000000000000048e-04,-8.000000000000000654e-05,4.000000000000000000e+00,1.900000000000000000e+01
4.720200000000000000e+04,2.000000000000000164e-05,5.999999999999999474e-05,4.000000000000000327e-05,-2.999999999999999737e-05,1.499999999999999869e-04,1.600000000000000131e-04,-1.000000000000000048e-04,-8.000000000000000654e-05,4.000000000000000000e+00,1.900000000000000000e+01
4.720300000000000000e+04,2.000000000000000164e-05,5.999999999999999474e-05,4.000000000000000327e-05,-2.999999999999999737e-05,1.499999999999999869e-04,1.600000000000000131e-04,-1.000000000000000048e-04,-8.000000000000000654e-05,4.000000000000000000e+00,1.900000000000000000e+01
4.720400000000000000e+04,2.000000000000000164e-05,5.999999999999999474e-05,4.000000000000000327e-05,-2.999999999999999737e-05,1.499999999999999869e-04,1.600000000000000131e-04,-1.000000000000000048e-04,-8.000000000000000654e-05,4.000000000000000000e+00,1.900000000000000000e+01
4.720500000000000000e+04,2.000000000000000164e-05,5.999999999999999474e-05,4.000000000000000327e-05,-2.999999999999999737e-05,1.499999999999999869e-04,1.600000000000000131e-04,-1.000000000000000048e-04,-8.000000000000000654e-05,4.000000000000000000e+00,1.900000000000000000e+01
4.720600000000000000e+04,2.000000000000000164e-05,5.999999999999999474e-05,4.000000000000000327e-05,-2.999999999999999737e-05,1.499999999999999869e-04,1.600000000000000131e-04,-1.000000000000000048e-04,-8.000000000000000654e-05,4.000000000000000000e+00,1.900000000000000000e+01
4.720700000000000000e+04,2.000000000000000164e-05,5.999999999999999474e-05,4.000000000000000327e-05,-2.999999999999999737e-05,1.499999999999999869e-04,1.600000000000000131e-04,-1.000000000000000048e-04,-8.000000000000000654e-05,4.000000000000000000e+00,1.900000000000000000e+01
4.720800000000000000e+04,2.000000000000000164e-05,5.999999999999999474e-05,4.000000000000000327e-05,-2.999999999999999737e-05,1.499999999999999869e-04,1.600000000000000131e-04,-1.000000000000000048e-04,-8.000000000000000654e-05,4.000000000000000000e+00,1.900000000000000000e+01
4.720900000000000000e+04,2.000000000000000164e-05,5.999999999999999474e-05,4.000000000000000327e-05,-2.999999999999999737e-05,1.499999999999999869e-04,1.600000000000000131e-04,-1.000000000000000048e-04,-8.000000000000000654e-05,4.000000000000000000e+00,1.900000000000000000e+01
4.721000000000000000e+04,2.000000000000000164e-05,5.999999999999999474e-05,4.000000000000000327e-05,-2.999999999999999737e-05,1.499999999999999869e-04,1.600000000000000131e-04,-1.000000000000000048e-04,-8.000000000000000654e-05,4.000000000000000000e+00,1.900000000000000000e+01
4.721100000000000000e+04,2.000000000000000164e-05,5.999999999999999474e-05,4.000000000000000327e-05,-2.999999999999999737e-05,1.499999999999999869e-04,1.600000000000000131e-04,-1.000000000000000048e-04,-8.000000000000000654e-05,4.000000000000000000e+00,1.900000000000000000e+01
4.721200000000000000e+04,2.000000000000000164e-05,5.999999999999999474e-05,4.000000000000000327e-05,-2.999999999999999737e-05,1.499999999999999869e-04,1.600000000000000131e-04,-1.000000000000000048e-04,-8.000000000000000654e-05,4.000000000000000000e+00,1.900000000000000000e+01
4.721300000000000000e+04,-1.399999999999999877e-04,-9.000000000000000567e-05,-1.899999999999999834e-04,-5.500000000000000331e-04,-5.299999999999999807e-04,-4.200000000000000174e-04,-1.800000000000000113e-04,-2.999999999999999737e-05,4.000000000000000000e+00,1.900000000000000000e+01
4.721400000000000000e+04,-1.399999999999999877e-04,-9.000000000000000567e-05,-1.899999999999999834e-04,-5.500000000000000331e-04,-5.299999999999999807e-04,-4.200000000000000174e-04,-1.800000000000000113e-04,-2.999999999999999737e-05,4.000000000000000000e+00,1.900000000000000000e+01
4.721500000000000000e+04,-6.999999999999999387e-05,-8.000000000000000654e-05,-1.000000000000000082e-05,9.000000000000000567e-05,2.900000000000000017e-04,-3.499999999999999964e-04,-5.000000000000000240e-05,-2.999999999999999737e-05,4.000000000000000000e+00,1.900000000000000000e+01
4.721600000000000000e+04,-6.999999999999999387e-05,-8.000000000000000654e-05,-1.000000000000000082e-05,9.000000000000000567e-05,2.900000000000000017e-04,-3.499999999999999964e-04,-5.000000000000000240e-05,-2.999999999999999737e-05,4.000000000000000000e+00,1.900000000000000000e+01
4.721700000000000000e+04,-6.999999999999999387e-05,-8.000000000000000654e-05,-1.000000000000000082e-05,9.000000000000000567e-05,2.900000000000000017e-04,-3.499999999999999964e-04,-5.000000000000000240e-05,-2.999999999999999737e-05,4.000000000000000000e+00,1.900000000000000000e+01
4.721800000000000000e+04,-6.999999999999999387e-05,-8.000000000000000654e-05,-1.000000000000000082e-05,9.000000000000000567e-05,2.900000000000000017e-04,-3.499999999999999964e-04,-5.000000000000000240e-05,-2.999999999999999737e-05,4.000000000000000000e+00,1.900000000000000000e+01
4.721900000000000000e+04,-6.999999999999999387e-05,-8.000000000000000654e-05,-1.000000000000000082e-05,9.000000000000000567e-05,2.900000000000000017e-04,-3.499999999999999964e-04,-5.000000000000000240e-05,-2.999999999999999737e-05,4.000000000000000000e+00,1.900000000000000000e+01
4.722000000000000000e+04,-6.999999999999999387e-05,-8.000000000000000654e-05,-1.000000000000000082e-05,9.000000000000000567e-05,2.900000000000000017e-04,-3.499999999999999964e-04,-5.000000000000000240e-05,-2.999999999999999737e-05,4.000000000000000000e+00,1.900000000000000000e+01
4.722100000000000000e+04,-6.999999999999999387e-05,-8.000000000000000654e-05,-1.000000000000000082e-05,9.000000000000000567e-05,2.900000000000000017e-04,-3.499999999999999964e-04,-5.000000000000000240e-05,-2.999999999999999737e-05,4.000000000000000000e+00,1.900000000000000000e+01
4.722200000000000000e+04,-6.999999999999999387e-05,-8.000000000000000654e-05,-1.000000000000000082e-05,9.000000000000000567e-05,2.900000000000000017e-04,-3.499999999999999964e-04,-5.000000000000000240e-05,-2.999999999999999737e-05,4.000000000000000000e+00,1.900000000000000000e+01
4.722300000000000000e+04,-6.999999999999999387e-05,-8.000000000000000654e-05,-1.000000000000000082e-05,9.000000000000000567e-05,2.900000000000000017e-04,-3.499999999999999964e-04,-5.000000000000000240e-05,-2.999999999999999737e-05,4.000000000000000000e+00,1.900000000000000000e+01
4.722400000000000000e+04,-6.999999999999999387e-05,-8.000000000000000654e-05,-1.000000000000000082e-05,9.000000000000000567e-05,2.900000000000000017e-04,-3.499999999999999964e-04,-5.000000000000000240e-05,-2.999999999999999737e-05,4.000000000000000000e+00,1.900000000000000000e+01
4.722500000000000000e+04,-6.999999999999999387e-05,-8.000000000000000654e-05,-1.000000000000000082e-05,9.000000000000000567e-05,2.900000000000000017e-04,-3.499999999999999964e-04,-5.000000000000000240e-05,-2.999999999999999737e-05,4.000000000000000000e+00,1.900000000000000000e+01
4.722600000000000000e+04,-6.999999999999999387e-05,-8.000000000000000654e-05,-1.000000000000000082e-05,9.000000000000000567e-05,2.900000000000000017e-04,-3.499999999999999964e-04,-5.000000000000000240e-05,-2.999999999999999737e-05,4.000000000000000000e+00,1.900000000000000000e+01
4.722700000000000000e+04,6.999999999999999387e-05,5.000000000000000240e-05,5.000000000000000240e-05,-1.399999999999999877e-04,5.599999999999999509e-04,-3.200000000000000262e-04,2.999999999999999737e-05,3.600000000000000227e-04,4.000000000000000000e+00,1.900000000000000000e+01
4.722800000000000000e+04,6.999999999999999387e-05,5.000000000000000240e-05,5.000000000000000240e-05,-1.399999999999999877e-04,5.599999999999999509e-04,-3.200000000000000262e-04,2.999999999999999737e-05,3.600000000000000227e-04,4.000000000000000000e+00,1.900000000000000000e+01
4.722900000000000000e+04,6.999999999999999387e-05,5.000000000000000240e-05,5.000000000000000240e-05,-1.399999999999999877e-04,5.599999999999999509e-04,-3.200000000000000262e-04,2.999999999999999737e-05,3.600000000000000227e-04,4.000000000000000000e+00,1.900000000000000000e+01
4.723000000000000000e+04,6.999999999999999387e-05,5.000000000000000240e-05,5.000000000000000240e-05,-1.399999999999999877e-04,5.599999999999999509e-04,-3.200000000000000262e-04,2.999999999999999737e-05,3.600000000000000227e-04,4.000000000000000000e+00,1.900000000000000000e+01
4.723100000000000000e+04,6.999999999999999387e-05,5.000000000000000240e-05,5.000000000000000240e-05,-1.399999999999999877e-04,5.599999999999999509e-04,-3.200000000000000262e-04,2.999999999999999737e-05,3.600000000000000227e-04,4.000000000000000000e+00,1.900000000000000000e+01
4.723200000000000000e+04,6.999999999999999387e-05,5.000000000000000240e-05,5.000000000000000240e-05,-1.399999999999999877e-04,5.599999999999999509e-04,-3.200000000000000262e-04,2.999999999999999737e-05,3.600000000000000227e-04,4.000000000000000000e+00,1.900000000000000000e+01
4.723300000000000000e+04,6.999999999999999387e-05,5.000000000000000240e-05,5.000000000000000240e-05,-1.399999999999999877e-04,5.599999999999999509e-04,-3.200000000000000262e-04,2.999999999999999737e-05,3.600000000000000227e-04,4.000000000000000000e+00,1.900000000000000000e+01
4.723400000000000000e+04,-1.000000000000000082e-05,-2.999999999999999737e-05,-4.000000000000000327e-05,-5.000000000000000240e-05,-2.100000000000000087e-04,2.999999999999999737e-05,1.499999999999999869e-04,8.000000000000000654e-05,4.000000000000000000e+00,1.900000000000000000e+01
4.723500000000000000e+04,-1.000000000000000082e-05,-2.999999999999999737e-05,-4.000000000000000327e-05,-5.000000000000000240e-05,-2.100000000000000087e-04,2.999999999999999737e-05,1.499999999999999869e-04,8.000000000000000654e-05,4.000000000000000000e+00,1.900000000000000000e+01
4.723600000000000000e+04,-1.000000000000000082e-05,-2.999999999999999737e-05,-4.000000000000000327e-05,-5.000000000000000240e-05,-2.100000000000000087e-04,2.999999999999999737e-05,1.499999999999999869e-04,8.000000000000000654e-05,4.000000000000000000e+00,1.900000000000000000e+01
4.723700000000000000e+04,-1.000000000000000082e-05,-2.999999999999999737e-05,-4.000000000000000327e-05,-5.000000000000000240e-05,-2.100000000000000087e-04,2.999999999999999737e-05,1.499999999999999869e-04,8.000000000000000654e-05,4.000000000000000000e+00,1.900000000000000000e+01
4.723800000000000000e+04,-1.000000000000000082e-05,-2.999999999999999737e-05,-4.000000000000000327e-05,-5.000000000000000240e-05,-2.100000000000000087e-04,2.999999999999999737e-05,1.499999999999999869e-04,8.000000000000000654e-05,4.000000000000000000e+00,1.900000000000000000e+01
4.723900000000000000e+04,-1.000000000000000082e-05,-2.999999999999999737e-05,-4.000000000000000327e-05,-5.000000000000000240e-05,-2.100000000000000087e-04,2.999999999999999737e-05,1.499999999999999869e-04,8.000000000000000654e-05,4.000000000000000000e+00,1.900000000000000000e+01
4.724000000000000000e+04,-1.000000000000000082e-05,-2.999999999999999737e-05,-4.000000000000000327e-05,-5.000000000000000240e-05,-2.100000000000000087e-04,2.999999999999999737e-05,1.499999999999999869e-04,8.000000000000000654e-05,4.000000000000000000e+00,1.900000000000000000e+01
4.724100000000000000e+04,-1.000000000000000082e-05,-2.999999999999999737e-05,-4.000000000000000327e-05,-5.000000000000000240e-05,-2.100000000000000087e-04,2.999999999999999737e-05,1.499999999999999869e-04,8.000000000000000654e-05,4.000000000000000000e+00,1.900000000000000000e+01
4.724300000000000000e+04,-1.000000000000000082e-05,-2.999999999999999737e-05,-4.000000000000000327e-05,-5.000000000000000240e-05,-2.100000000000000087e-04,2.999999999999999737e-05,1.499999999999999869e-04,8.000000000000000654e-05,4.000000000000000000e+00,1.900000000000000000e+01
4.724400000000000000e+04,-1.000000000000000082e-05,-2.999999999999999737e-05,-4.000000000000000327e-05,-5.000000000000000240e-05,-2.100000000000000087e-04,2.999999999999999737e-05,1.499999999999999869e-04,8.000000000000000654e-05,4.000000000000000000e+00,1.900000000000000000e+01
4.724500000000000000e+04,-1.000000000000000082e-05,-2.999999999999999737e-05,-4.000000000000000327e-05,-5.000000000000000240e-05,-2.100000000000000087e-04,2.999999999999999737e-05,1.499999999999999869e-04,8.000000000000000654e-05,4.000000000000000000e+00,1.900000000000000000e+01
4.724600000000000000e+04,-1.000000000000000082e-05,-2.999999999999999737e-05,-4.000000000000000327e-05,-5.000000000000000240e-05,-2.100000000000000087e-04,2.999999999999999737e-05,1.499999999999999869e-04,8.000000000000000654e-05,4.000000000000000000e+00,1.900000000000000000e+01
4.724700000000000000e+04,-1.000000000000000082e-05,-2.999999999999999737e-05,-4.000000000000000327e-05,-5.000000000000000240e-05,-2.100000000000000087e-04,2.999999999999999737e-05,1.499999999999999869e-04,8.000000000000000654e-05,4.000000000000000000e+00,1.900000000000000000e+01
4.724800000000000000e+04,-1.000000000000000082e-05,-2.999999999999999737e-05,-4.000000000000000327e-05,-5.000000000000000240e-05,-2.100000000000000087e-04,2.999999999999999737e-05,1.499999999999999869e-04,8.000000000000000654e-05,4.000000000000000000e+00,1.900000000000000000e+01
4.724900000000000000e+04,-1.000000000000000082e-05,-2.999999999999999737e-05,-4.000000000000000327e-05,-5.000000000000000240e-05,-2.100000000000000087e-04,2.999999999999999737e-05,1.499999999999999869e-04,8.000000000000000654e-05,4.000000000000000000e+00,1.900000000000000000e+01
4.725000000000000000e+04,-1.000000000000000082e-05,-2.999999999999999737e-05,-4.000000000000000327e-05,-5.000000000000000240e-05,-2.100000000000000087e-04,2.999999999999999737e-05,1.499999999999999869e-04,8.000000000000000654e-05,4.000000000000000000e+00,1.900000000000000000e+01
4.725100000000000000e+04,-1.000000000000000048e-04,-1.000000000000000048e-04,-6.999999999999999387e-05,-4.099999999999999912e-04,-7.200000000000000453e-04,-2.100000000000000087e-04,-5.999999999999999474e-05,4.000000000000000327e-05,4.000000000000000000e+00,1.900000000000000000e+01
4.725200000000000000e+04,4.000000000000000327e-05,-4.000000000000000327e-05,-8.000000000000000654e-05,-1.800000000000000113e-04,-1.000000000000000082e-05,-2.000000000000000164e-05,-5.000000000000000240e-05,-1.300000000000000157e-04,4.000000000000000000e+00,1.900000000000000000e+01
4.725300000000000000e+04,4.000000000000000327e-05,-4.000000000000000327e-05,-8.000000000000000654e-05,-1.800000000000000113e-04,-1.000000000000000082e-05,-2.000000000000000164e-05,-5.000000000000000240e-05,-1.300000000000000157e-04,4.000000000000000000e+00,1.900000000000000000e+01
4.725400000000000000e+04,4.000000000000000327e-05,-4.000000000000000327e-05,-8.000000000000000654e-05,-1.800000000000000113e-04,-1.000000000000000082e-05,-2.000000000000000164e-05,-5.000000000000000240e-05,-1.300000000000000157e-04,4.000000000000000000e+00,1.900000000000000000e+01
4.725500000000000000e+04,4.000000000000000327e-05,-4.000000000000000327e-05,-8.000000000000000654e-05,-1.800000000000000113e-04,-1.000000000000000082e-05,-2.000000000000000164e-05,-5.000000000000000240e-05,-1.300000000000000157e-04,4.000000000000000000e+00,1.900000000000000000e+01
4.725600000000000000e+04,4.000000000000000327e-05,-4.000000000000000327e-05,-8.000000000000000654e-05,-1.800000000000000113e-04,-1.000000000000000082e-05,-2.000000000000000164e-05,-5.000000000000000240e-05,-1.300000000000000157e-04,4.000000000000000000e+00,1.900000000000000000e+01
4.725700000000000000e+04,4.000000000000000327e-05,-4.000000000000000327e-05,-8.000000000000000654e-05,-1.800000000000000113e-04,-1.000000000000000082e-05,-2.000000000000000164e-05,-5.000000000000000240e-05,-1.300000000000000157e-04,4.000000000000000000e+00,1.900000000000000000e+01
4.725800000000000000e+04,4.000000000000000327e-05,-4.000000000000000327e-05,-8.000000000000000654e-05,-1.800000000000000113e-04,-1.000000000000000082e-05,-2.000000000000000164e-05,-5.000000000000000240e-05,-1.300000000000000157e-04,4.000000000000000000e+00,1.900000000000000000e+01
4.725900000000000000e+04,4.000000000000000327e-05,-4.000000000000000327e-05,-8.000000000000000654e-05,-1.800000000000000113e-04,-1.000000000000000082e-05,-2.000000000000000164e-05,-5.000000000000000240e-05,-1.300000000000000157e-04,4.000000000000000000e+00,1.900000000000000000e+01
4.726000000000000000e+04,4.000000000000000327e-05,-4.000000000000000327e-05,-8.000000000000000654e-05,-1.800000000000000113e-04,-1.000000000000000082e-05,-2.000000000000000164e-05,-5.000000000000000240e-05,-1.300000000000000157e-04,4.000000000000000000e+00,1.900000000000000000e+01
4.726100000000000000e+04,4.000000000000000327e-05,-4.000000000000000327e-05,-8.000000000000000654e-05,-1.800000000000000113e-04,-1.000000000000000082e-05,-2.000000000000000164e-05,-5.000000000000000240e-05,-1.300000000000000157e-04,4.000000000000000000e+00,1.900000000000000000e+01
4.726200000000000000e+04,4.000000000000000327e-05,-4.000000000000000327e-05,-8.000000000000000654e-05,-1.800000000000000113e-04,-1.000000000000000082e-05,-2.000000000000000164e-05,-5.000000000000000240e-05,-1.300000000000000157e-04,4.000000000000000000e+00,1.900000000000000000e+01
4.726300000000000000e+04,4.000000000000000327e-05,-4.000000000000000327e-05,-8.000000000000000654e-05,-1.800000000000000113e-04,-1.000000000000000082e-05,-2.000000000000000164e-05,-5.000000000000000240e-05,-1.300000000000000157e-04,4.000000000000000000e+00,1.900000000000000000e+01
4.726400000000000000e+04,4.000000000000000327e-05,-4.000000000000000327e-05,-8.000000000000000654e-05,-1.800000000000000113e-04,-1.000000000000000082e-05,-2.000000000000000164e-05,-5.000000000000000240e-05,-1.300000000000000157e-04,4.000000000000000000e+00,1.900000000000000000e+01
4.726500000000000000e+04,4.000000000000000327e-05,-4.000000000000000327e-05,-8.000000000000000654e-05,-1.800000000000000113e-04,-1.000000000000000082e-05,-2.000000000000000164e-05,-5.000000000000000240e-05,-1.300000000000000157e-04,4.000000000000000000e+00,1.900000000000000000e+01
4.726600000000000000e+04,4.000000000000000327e-05,-4.000000000000000327e-05,-8.000000000000000654e-05,-1.800000000000000113e-04,-1.000000000000000082e-05,-2.000000000000000164e-05,-5.000000000000000240e-05,-1.300000000000000157e-04,4.000000000000000000e+00,1.900000000000000000e+01
4.726700000000000000e+04,4.000000000000000327e-05,-4.000000000000000327e-05,-8.000000000000000654e-05,-1.800000000000000113e-04,-1.000000000000000082e-05,-2.000000000000000164e-05,-5.000000000000000240e-05,-1.300000000000000157e-04,4.000000000000000000e+00,1.900000000000000000e+01
4.726800000000000000e+04,4.000000000000000327e-05,-4.000000000000000327e-05,-8.000000000000000654e-05,-1.800000000000000113e-04,-1.000000000000000082e-05,-2.000000000000000164e-05,-5.000000000000000240e-05,-1.300000000000000157e-04,4.000000000000000000e+00,1.900000000000000000e+01
4.726900000000000000e+04,4.000000000000000327e-05,-4.000000000000000327e-05,-8.000000000000000654e-05,-1.800000000000000113e-04,-1.000000000000000082e-05,-2.000000000000000164e-05,-5.000000000000000240e-05,-1.300000000000000157e-04,4.000000000000000000e+00,1.900000000000000000e+01
4.727000000000000000e+04,4.000000000000000327e-05,-4.000000000000000327e-05,-8.000000000000000654e-05,-1.800000000000000113e-04,-1.000000000000000082e-05,-2.000000000000000164e-05,-5.000000000000000240e-05,-1.300000000000000157e-04,4.000000000000000000e+00,1.900000000000000000e+01
4.727100000000000000e+04,4.000000000000000327e-05,-4.000000000000000327e-05,-8.000000000000000654e-05,-1.800000000000000113e-04,-1.000000000000000082e-05,-2.000000000000000164e-05,-5.000000000000000240e-05,-1.300000000000000157e-04,4.000000000000000000e+00,1.900000000000000000e+01
4.727200000000000000e+04,4.000000000000000327e-05,-4.000000000000000327e-05,-8.000000000000000654e-05,-1.800000000000000113e-04,-1.000000000000000082e-05,-2.000000000000000164e-05,-5.000000000000000240e-05,-1.300000000000000157e-04,4.000000000000000000e+00,1.900000000000000000e+01
4.727300000000000000e+04,1.000000000000000082e-05,-8.000000000000000654e-05,-1.000000000000000048e-04,1.199999999999999895e-04,1.600000000000000131e-04,5.999999999999999474e-05,-6.999999999999999387e-05,-8.000000000000000654e-05,4.000000000000000000e+00,1.900000000000000000e+01
4.727400000000000000e+04,1.000000000000000082e-05,-8.000000000000000654e-05,-1.000000000000000048e-04,1.199999999999999895e-04,1.600000000000000131e-04,5.999999999999999474e-05,-6.999999999999999387e-05,-8.000000000000000654e-05,4.000000000000000000e+00,1.900000000000000000e+01
4.727500000000000000e+04,1.199999999999999895e-04,1.899999999999999834e-04,2.900000000000000017e-04,2.200000000000000078e-04,-2.399999999999999790e-04,-1.399999999999999877e-04,-1.000000000000000082e-05,6.999999999999999387e-05,4.000000000000000000e+00,1.900000000000000000e+01
4.727600000000000000e+04,1.199999999999999895e-04,1.899999999999999834e-04,2.900000000000000017e-04,2.200000000000000078e-04,-2.399999999999999790e-04,-1.399999999999999877e-04,-1.000000000000000082e-05,6.999999999999999387e-05,4.000000000000000000e+00,1.900000000000000000e+01
4.727700000000000000e+04,1.199999999999999895e-04,1.899999999999999834e-04,2.900000000000000017e-04,2.200000000000000078e-04,-2.399999999999999790e-04,-1.399999999999999877e-04,-1.000000000000000082e-05,6.999999999999999387e-05,4.000000000000000000e+00,1.900000000000000000e+01
4.727800000000000000e+04,1.199999999999999895e-04,1.899999999999999834e-04,2.900000000000000017e-04,2.200000000000000078e-04,-2.399999999999999790e-04,-1.399999999999999877e-04,-1.000000000000000082e-05,6.999999999999999387e-05,4.000000000000000000e+00,1.900000000000000000e+01
4.727900000000000000e+04,1.199999999999999895e-04,1.899999999999999834e-04,2.900000000000000017e-04,2.200000000000000078e-04,-2.399999999999999790e-04,-1.399999999999999877e-04,-1.000000000000000082e-05,6.999999999999999387e-05,4.000000000000000000e+00,1.900000000000000000e+01
4.728000000000000000e+04,1.199999999999999895e-04,1.899999999999999834e-04,2.900000000000000017e-04,2.200000000000000078e-04,-2.399999999999999790e-04,-1.399999999999999877e-04,-1.000000000000000082e-05,6.999999999999999387e-05,4.000000000000000000e+00,1.900000000000000000e+01
4.728100000000000000e+04,1.199999999999999895e-04,1.899999999999999834e-04,2.900000000000000017e-04,2.200000000000000078e-04,-2.399999999999999790e-04,-1.399999999999999877e-04,-1.000000000000000082e-05,6.999999999999999387e-05,4.000000000000000000e+00,1.900000000000000000e+01
4.728200000000000000e+04,1.199999999999999895e-04,1.899999999999999834e-04,2.900000000000000017e-04,2.200000000000000078e-04,-2.399999999999999790e-04,-1.399999999999999877e-04,-1.000000000000000082e-05,6.999999999999999387e-05,4.000000000000000000e+00,1.900000000000000000e+01
4.728300000000000000e+04,1.199999999999999895e-04,1.899999999999999834e-04,2.900000000000000017e-04,2.200000000000000078e-04,-2.399999999999999790e-04,-1.399999999999999877e-04,-1.000000000000000082e-05,6.999999999999999387e-05,4.000000000000000000e+00,1.900000000000000000e+01
4.728400000000000000e+04,1.199999999999999895e-04,1.899999999999999834e-04,2.900000000000000017e-04,2.200000000000000078e-04,-2.399999999999999790e-04,-1.399999999999999877e-04,-1.000000000000000082e-05,6.999999999999999387e-05,4.000000000000000000e+00,1.900000000000000000e+01
4.728500000000000000e+04,1.199999999999999895e-04,1.899999999999999834e-04,2.900000000000000017e-04,2.200000000000000078e-04,-2.399999999999999790e-04,-1.399999999999999877e-04,-1.000000000000000082e-05,6.999999999999999387e-05,4.000000000000000000e+00,1.900000000000000000e+01
4.728600000000000000e+04,1.199999999999999895e-04,1.899999999999999834e-04,2.900000000000000017e-04,2.200000000000000078e-04,-2.399999999999999790e-04,-1.399999999999999877e-04,-1.000000000000000082e-05,6.999999999999999387e-05,4.000000000000000000e+00,1.900000000000000000e+01
4.728700000000000000e+04,1.199999999999999895e-04,1.899999999999999834e-04,2.900000000000000017e-04,2.200000000000000078e-04,-2.399999999999999790e-04,-1.399999999999999877e-04,-1.000000000000000082e-05,6.999999999999999387e-05,4.000000000000000000e+00,1.900000000000000000e+01
4.728900000000000000e+04,1.199999999999999895e-04,1.899999999999999834e-04,2.900000000000000017e-04,2.200000000000000078e-04,-2.399999999999999790e-04,-1.399999999999999877e-04,-1.000000000000000082e-05,6.999999999999999387e-05,4.000000000000000000e+00,1.900000000000000000e+01
4.729000000000000000e+04,-5.999999999999999474e-05,1.000000000000000082e-05,-1.000000000000000082e-05,-5.999999999999999474e-05,-2.200000000000000078e-04,2.600000000000000314e-04,-5.999999999999999474e-05,-1.100000000000000039e-04,4.000000000000000000e+00,1.900000000000000000e+01
4.729100000000000000e+04,-5.999999999999999474e-05,1.000000000000000082e-05,-1.000000000000000082e-05,-5.999999999999999474e-05,-2.200000000000000078e-04,2.600000000000000314e-04,-5.999999999999999474e-05,-1.100000000000000039e-04,4.000000000000000000e+00,1.900000000000000000e+01
4.729200000000000000e+04,-5.999999999999999474e-05,1.000000000000000082e-05,-1.000000000000000082e-05,-5.999999999999999474e-05,-2.200000000000000078e-04,2.600000000000000314e-04,-5.999999999999999474e-05,-1.100000000000000039e-04,4.000000000000000000e+00,1.900000000000000000e+01
4.729300000000000000e+04,-5.999999999999999474e-05,1.000000000000000082e-05,-1.000000000000000082e-05,-5.999999999999999474e-05,-2.200000000000000078e-04,2.600000000000000314e-04,-5.999999999999999474e-05,-1.100000000000000039e-04,4.000000000000000000e+00,1.900000000000000000e+01
4.729400000000000000e+04,-5.000000000000000240e-05,-8.000000000000000654e-05,-9.000000000000000567e-05,4.599999999999999597e-04,3.200000000000000262e-04,2.200000000000000078e-04,-1.000000000000000082e-05,-5.999999999999999474e-05,4.000000000000000000e+00,1.900000000000000000e+01
4.729500000000000000e+04,-5.000000000000000240e-05,-8.000000000000000654e-05,-9.000000000000000567e-05,4.599999999999999597e-04,3.200000000000000262e-04,2.200000000000000078e-04,-1.000000000000000082e-05,-5.999999999999999474e-05,4.000000000000000000e+00,1.900000000000000000e+01
4.729600000000000000e+04,-5.000000000000000240e-05,-8.000000000000000654e-05,-9.000000000000000567e-05,4.599999999999999597e-04,3.200000000000000262e-04,2.200000000000000078e-04,-1.000000000000000082e-05,-5.999999999999999474e-05,4.000000000000000000e+00,1.900000000000000000e+01
4.729700000000000000e+04,-5.000000000000000240e-05,-8.000000000000000654e-05,-9.000000000000000567e-05,4.599999999999999597e-04,3.200000000000000262e-04,2.200000000000000078e-04,-1.000000000000000082e-05,-5.999999999999999474e-05,4.000000000000000000e+00,1.900000000000000000e+01
4.729800000000000000e+04,-5.000000000000000240e-05,-8.000000000000000654e-05,-9.000000000000000567e-05,4.599999999999999597e-04,3.200000000000000262e-04,2.200000000000000078e-04,-1.000000000000000082e-05,-5.999999999999999474e-05,4.000000000000000000e+00,1.900000000000000000e+01
4.729900000000000000e+04,-5.000000000000000240e-05,-8.000000000000000654e-05,-9.000000000000000567e-05,4.599999999999999597e-04,3.200000000000000262e-04,2.200000000000000078e-04,-1.000000000000000082e-05,-5.999999999999999474e-05,4.000000000000000000e+00,1.900000000000000000e+01
4.730000000000000000e+04,-5.000000000000000240e-05,-8.000000000000000654e-05,-9.000000000000000567e-05,4.599999999999999597e-04,3.200000000000000262e-04,2.200000000000000078e-04,-1.000000000000000082e-05,-5.999999999999999474e-05,4.000000000000000000e+00,1.900000000000000000e+01
4.730100000000000000e+04,-5.000000000000000240e-05,-8.000000000000000654e-05,-9.000000000000000567e-05,4.599999999999999597e-04,3.200000000000000262e-04,2.200000000000000078e-04,-1.000000000000000082e-05,-5.999999999999999474e-05,4.000000000000000000e+00,1.900000000000000000e+01
4.730200000000000000e+04,-5.000000000000000240e-05,-8.000000000000000654e-05,-9.000000000000000567e-05,4.599999999999999597e-04,3.200000000000000262e-04,2.200000000000000078e-04,-1.000000000000000082e-05,-5.999999999999999474e-05,4.000000000000000000e+00,1.900000000000000000e+01
4.730300000000000000e+04,-5.000000000000000240e-05,-8.000000000000000654e-05,-9.000000000000000567e-05,4.599999999999999597e-04,3.200000000000000262e-04,2.200000000000000078e-04,-1.000000000000000082e-05,-5.999999999999999474e-05,4.000000000000000000e+00,1.900000000000000000e+01
4.730400000000000000e+04,-5.000000000000000240e-05,-8.000000000000000654e-05,-9.000000000000000567e-05,4.599999999999999597e-04,3.200000000000000262e-04,2.200000000000000078e-04,-1.000000000000000082e-05,-5.999999999999999474e-05,4.000000000000000000e+00,1.900000000000000000e+01
4.730500000000000000e+04,-5.000000000000000240e-05,-8.000000000000000654e-05,-9.000000000000000567e-05,4.599999999999999597e-04,3.200000000000000262e-04,2.200000000000000078e-04,-1.000000000000000082e-05,-5.999999999999999474e-05,4.000000000000000000e+00,1.900000000000000000e+01
4.730600000000000000e+04,-5.000000000000000240e-05,-8.000000000000000654e-05,-9.000000000000000567e-05,4.599999999999999597e-04,3.200000000000000262e-04,2.200000000000000078e-04,-1.000000000000000082e-05,-5.999999999999999474e-05,4.000000000000000000e+00,1.900000000000000000e+01
4.730700000000000000e+04,-5.000000000000000240e-05,-8.000000000000000654e-05,-9.000000000000000567e-05,4.599999999999999597e-04,3.200000000000000262e-04,2.200000000000000078e-04,-1.000000000000000082e-05,-5.999999999999999474e-05,4.000000000000000000e+00,1.900000000000000000e+01
4.730800000000000000e+04,-5.000000000000000240e-05,-8.000000000000000654e-05,-9.000000000000000567e-05,4.599999999999999597e-04,3.200000000000000262e-04,2.200000000000000078e-04,-1.000000000000000082e-05,-5.999999999999999474e-05,4.000000000000000000e+00,1.900000000000000000e+01
4.730900000000000000e+04,-5.000000000000000240e-05,-8.000000000000000654e-05,-9.000000000000000567e-05,4.599999999999999597e-04,3.200000000000000262e-04,2.200000000000000078e-04,-1.000000000000000082e-05,-5.999999999999999474e-05,4.000000000000000000e+00,1.900000000000000000e+01
4.731000000000000000e+04,-2.999999999999999737e-05,-5.000000000000000240e-05,-6.999999999999999387e-05,-4.000000000000000192e-04,-6.700000000000000226e-04,-3.799999999999999667e-04,-2.999999999999999737e-05,-5.000000000000000240e-05,4.000000000000000000e+00,1.900000000000000000e+01
4.731100000000000000e+04,-2.999999999999999737e-05,-5.000000000000000240e-05,-6.999999999999999387e-05,-4.000000000000000192e-04,-6.700000000000000226e-04,-3.799999999999999667e-04,-2.999999999999999737e-05,-5.000000000000000240e-05,4.000000000000000000e+00,1.900000000000000000e+01
4.731200000000000000e+04,-5.999999999999999474e-05,-1.000000000000000082e-05,-8.000000000000000654e-05,-3.099999999999999999e-04,-2.999999999999999737e-05,1.600000000000000131e-04,0.000000000000000000e+00,0.000000000000000000e+00,4.000000000000000000e+00,1.900000000000000000e+01
