7.412600000000000000e+04,2.399999999999999790e-04,1.000000000000000082e-05,2.000000000000000164e-05,1.199999999999999895e-04,3.799999999999999667e-04,4.000000000000000327e-05,-1.899999999999999834e-04,3.699999999999999947e-04,6.000000000000000000e+00,2.200000000000000000e+01
7.412700000000000000e+04,2.399999999999999790e-04,1.000000000000000082e-05,2.000000000000000164e-05,1.199999999999999895e-04,3.799999999999999667e-04,4.000000000000000327e-05,-1.899999999999999834e-04,3.699999999999999947e-04,6.000000000000000000e+00,2.200000000000000000e+01
7.412800000000000000e+04,2.399999999999999790e-04,1.000000000000000082e-05,2.000000000000000164e-05,1.199999999999999895e-04,3.799999999999999667e-04,4.000000000000000327e-05,-1.899999999999999834e-04,3.699999999999999947e-04,6.000000000000000000e+00,2.200000000000000000e+01
7.412900000000000000e+04,2.399999999999999790e-04,1.000000000000000082e-05,2.000000000000000164e-05,1.199999999999999895e-04,3.799999999999999667e-04,4.000000000000000327e-05,-1.899999999999999834e-04,3.699999999999999947e-04,6.000000000000000000e+00,2.200000000000000000e+01
7.413000000000000000e+04,2.399999999999999790e-04,1.000000000000000082e-05,2.000000000000000164e-05,1.199999999999999895e-04,3.799999999999999667e-04,4.000000000000000327e-05,-1.899999999999999834e-04,3.699999999999999947e-04,6.000000000000000000e+00,2.200000000000000000e+01
7.413100000000000000e+04,2.399999999999999790e-04,1.000000000000000082e-05,2.000000000000000164e-05,1.199999999999999895e-04,3.799999999999999667e-04,4.000000000000000327e-05,-1.899999999999999834e-04,3.699999999999999947e-04,6.000000000000000000e+00,2.200000000000000000e+01
7.413200000000000000e+04,-3.600000000000000227e-04,-5.000000000000000240e-05,-9.000000000000000567e-05,-1.699999999999999851e-04,-1.149999999999999981e-03,-4.599999999999999597e-04,-1.100000000000000039e-04,-5.400000000000000069e-04,6.000000000000000000e+00,2.200000000000000000e+01
7.413300000000000000e+04,-1.699999999999999851e-04,-2.999999999999999737e-05,-2.000000000000000164e-05,-1.600000000000000131e-04,-1.100000000000000039e-04,-5.099999999999999282e-04,1.300000000000000157e-04,0.000000000000000000e+00,6.000000000000000000e+00,2.200000000000000000e+01
7.413400000000000000e+04,-1.699999999999999851e-04,-2.999999999999999737e-05,-2.000000000000000164e-05,-1.600000000000000131e-04,-1.100000000000000039e-04,-5.099999999999999282e-04,1.300000000000000157e-04,0.000000000000000000e+00,6.000000000000000000e+00,2.200000000000000000e+01
7.413500000000000000e+04,-1.699999999999999851e-04,-2.999999999999999737e-05,-2.000000000000000164e-05,-1.600000000000000131e-04,-1.100000000000000039e-04,-5.099999999999999282e-04,1.300000000000000157e-04,0.000000000000000000e+00,6.000000000000000000e+00,2.200000000000000000e+01
7.413600000000000000e+04,-1.699999999999999851e-04,-2.999999999999999737e-05,-2.000000000000000164e-05,-1.600000000000000131e-04,-1.100000000000000039e-04,-5.099999999999999282e-04,1.300000000000000157e-04,0.000000000000000000e+00,6.000000000000000000e+00,2.200000000000000000e+01
7.413800000000000000e+04,-1.699999999999999851e-04,-2.999999999999999737e-05,-2.000000000000000164e-05,-1.600000000000000131e-04,-1.100000000000000039e-04,-5.099999999999999282e-04,1.300000000000000157e-04,0.000000000000000000e+00,6.000000000000000000e+00,2.200000000000000000e+01
7.414000000000000000e+04,-1.699999999999999851e-04,-2.999999999999999737e-05,-2.000000000000000164e-05,-1.600000000000000131e-04,-1.100000000000000039e-04,-5.099999999999999282e-04,1.300000000000000157e-04,0.000000000000000000e+00,6.000000000000000000e+00,2.200000000000000000e+01
7.414100000000000000e+04,-1.699999999999999851e-04,-2.999999999999999737e-05,-2.000000000000000164e-05,-1.600000000000000131e-04,-1.100000000000000039e-04,-5.099999999999999282e-04,1.300000000000000157e-04,0.000000000000000000e+00,6.000000000000000000e+00,2.200000000000000000e+01
7.414200000000000000e+04,-1.699999999999999851e-04,-2.999999999999999737e-05,-2.000000000000000164e-05,-1.600000000000000131e-04,-1.100000000000000039e-04,-5.099999999999999282e-04,1.300000000000000157e-04,0.000000000000000000e+00,6.000000000000000000e+00,2.200000000000000000e+01
7.414300000000000000e+04,-1.699999999999999851e-04,-2.999999999999999737e-05,-2.000000000000000164e-05,-1.600000000000000131e-04,-1.100000000000000039e-04,-5.099999999999999282e-04,1.300000000000000157e-04,0.000000000000000000e+00,6.000000000000000000e+00,2.200000000000000000e+01
7.414400000000000000e+04,-1.699999999999999851e-04,-2.999999999999999737e-05,-2.000000000000000164e-05,-1.600000000000000131e-04,-1.100000000000000039e-04,-5.099999999999999282e-04,1.300000000000000157e-04,0.000000000000000000e+00,6.000000000000000000e+00,2.200000000000000000e+01
7.414500000000000000e+04,-1.699999999999999851e-04,-2.999999999999999737e-05,-2.000000000000000164e-05,-1.600000000000000131e-04,-1.100000000000000039e-04,-5.099999999999999282e-04,1.300000000000000157e-04,0.000000000000000000e+00,6.000000000000000000e+00,2.200000000000000000e+01
7.414600000000000000e+04,-1.699999999999999851e-04,-2.999999999999999737e-05,-2.000000000000000164e-05,-1.600000000000000131e-04,-1.100000000000000039e-04,-5.099999999999999282e-04,1.300000000000000157e-04,0.000000000000000000e+00,6.000000000000000000e+00,2.200000000000000000e+01
7.414700000000000000e+04,3.099999999999999999e-04,5.999999999999999474e-05,1.000000000000000048e-04,3.499999999999999964e-04,5.999999999999999474e-04,8.900000000000000576e-04,1.080000000000000014e-03,7.700000000000000681e-04,6.000000000000000000e+00,2.200000000000000000e+01
7.414800000000000000e+04,5.999999999999999474e-05,-2.999999999999999737e-05,-2.000000000000000164e-05,1.100000000000000039e-04,1.040000000000000126e-03,2.200000000000000078e-04,-4.799999999999999580e-04,-2.799999999999999755e-04,6.000000000000000000e+00,2.200000000000000000e+01
7.414900000000000000e+04,5.999999999999999474e-05,-2.999999999999999737e-05,-2.000000000000000164e-05,1.100000000000000039e-04,1.040000000000000126e-03,2.200000000000000078e-04,-4.799999999999999580e-04,-2.799999999999999755e-04,6.000000000000000000e+00,2.200000000000000000e+01
7.415000000000000000e+04,5.999999999999999474e-05,-2.999999999999999737e-05,-2.000000000000000164e-05,1.100000000000000039e-04,1.040000000000000126e-03,2.200000000000000078e-04,-4.799999999999999580e-04,-2.799999999999999755e-04,6.000000000000000000e+00,2.200000000000000000e+01
7.415100000000000000e+04,5.999999999999999474e-05,-2.999999999999999737e-05,-2.000000000000000164e-05,1.100000000000000039e-04,1.040000000000000126e-03,2.200000000000000078e-04,-4.799999999999999580e-04,-2.799999999999999755e-04,6.000000000000000000e+00,2.200000000000000000e+01
7.415200000000000000e+04,5.999999999999999474e-05,-2.999999999999999737e-05,-2.000000000000000164e-05,1.100000000000000039e-04,1.040000000000000126e-03,2.200000000000000078e-04,-4.799999999999999580e-04,-2.799999999999999755e-04,6.000000000000000000e+00,2.200000000000000000e+01
7.415400000000000000e+04,5.999999999999999474e-05,-2.999999999999999737e-05,-2.000000000000000164e-05,1.100000000000000039e-04,1.040000000000000126e-03,2.200000000000000078e-04,-4.799999999999999580e-04,-2.799999999999999755e-04,6.000000000000000000e+00,2.200000000000000000e+01
7.415500000000000000e+04,5.999999999999999474e-05,-2.999999999999999737e-05,-2.000000000000000164e-05,1.100000000000000039e-04,1.040000000000000126e-03,2.200000000000000078e-04,-4.799999999999999580e-04,-2.799999999999999755e-04,6.000000000000000000e+00,2.200000000000000000e+01
7.415600000000000000e+04,5.999999999999999474e-05,-2.999999999999999737e-05,-2.000000000000000164e-05,1.100000000000000039e-04,1.040000000000000126e-03,2.200000000000000078e-04,-4.799999999999999580e-04,-2.799999999999999755e-04,6.000000000000000000e+00,2.200000000000000000e+01
7.415700000000000000e+04,5.999999999999999474e-05,-2.999999999999999737e-05,-2.000000000000000164e-05,1.100000000000000039e-04,1.040000000000000126e-03,2.200000000000000078e-04,-4.799999999999999580e-04,-2.799999999999999755e-04,6.000000000000000000e+00,2.200000000000000000e+01
7.415800000000000000e+04,5.999999999999999474e-05,-2.999999999999999737e-05,-2.000000000000000164e-05,1.100000000000000039e-04,1.040000000000000126e-03,2.200000000000000078e-04,-4.799999999999999580e-04,-2.799999999999999755e-04,6.000000000000000000e+00,2.200000000000000000e+01
7.415900000000000000e+04,5.999999999999999474e-05,-2.999999999999999737e-05,-2.000000000000000164e-05,1.100000000000000039e-04,1.040000000000000126e-03,2.200000000000000078e-04,-4.799999999999999580e-04,-2.799999999999999755e-04,6.000000000000000000e+00,2.200000000000000000e+01
7.416000000000000000e+04,5.999999999999999474e-05,-2.999999999999999737e-05,-2.000000000000000164e-05,1.100000000000000039e-04,1.040000000000000126e-03,2.200000000000000078e-04,-4.799999999999999580e-04,-2.799999999999999755e-04,6.000000000000000000e+00,2.200000000000000000e+01
7.416100000000000000e+04,5.999999999999999474e-05,-2.999999999999999737e-05,-2.000000000000000164e-05,1.100000000000000039e-04,1.040000000000000126e-03,2.200000000000000078e-04,-4.799999999999999580e-04,-2.799999999999999755e-04,6.000000000000000000e+00,2.200000000000000000e+01
7.416200000000000000e+04,2.200000000000000078e-04,5.000000000000000240e-05,1.000000000000000082e-05,-8.000000000000000654e-05,-4.299999999999999894e-04,1.100000000000000039e-04,4.499999999999999877e-04,1.800000000000000113e-04,6.000000000000000000e+00,2.200000000000000000e+01
7.416300000000000000e+04,2.200000000000000078e-04,5.000000000000000240e-05,1.000000000000000082e-05,-8.000000000000000654e-05,-4.299999999999999894e-04,1.100000000000000039e-04,4.499999999999999877e-04,1.800000000000000113e-04,6.000000000000000000e+00,2.200000000000000000e+01
7.416400000000000000e+04,2.200000000000000078e-04,5.000000000000000240e-05,1.000000000000000082e-05,-8.000000000000000654e-05,-4.299999999999999894e-04,1.100000000000000039e-04,4.499999999999999877e-04,1.800000000000000113e-04,6.000000000000000000e+00,2.200000000000000000e+01
7.416500000000000000e+04,2.200000000000000078e-04,5.000000000000000240e-05,1.000000000000000082e-05,-8.000000000000000654e-05,-4.299999999999999894e-04,1.100000000000000039e-04,4.499999999999999877e-04,1.800000000000000113e-04,6.000000000000000000e+00,2.200000000000000000e+01
7.416600000000000000e+04,2.200000000000000078e-04,5.000000000000000240e-05,1.000000000000000082e-05,-8.000000000000000654e-05,-4.299999999999999894e-04,1.100000000000000039e-04,4.499999999999999877e-04,1.800000000000000113e-04,6.000000000000000000e+00,2.200000000000000000e+01
7.416700000000000000e+04,2.200000000000000078e-04,5.000000000000000240e-05,1.000000000000000082e-05,-8.000000000000000654e-05,-4.299999999999999894e-04,1.100000000000000039e-04,4.499999999999999877e-04,1.800000000000000113e-04,6.000000000000000000e+00,2.200000000000000000e+01
7.416800000000000000e+04,2.000000000000000096e-04,1.000000000000000082e-05,4.000000000000000327e-05,2.999999999999999737e-04,8.000000000000000654e-05,2.700000000000000035e-04,3.799999999999999667e-04,1.899999999999999834e-04,6.000000000000000000e+00,2.200000000000000000e+01
7.416900000000000000e+04,2.000000000000000096e-04,1.000000000000000082e-05,4.000000000000000327e-05,2.999999999999999737e-04,8.000000000000000654e-05,2.700000000000000035e-04,3.799999999999999667e-04,1.899999999999999834e-04,6.000000000000000000e+00,2.200000000000000000e+01
7.417000000000000000e+04,2.000000000000000096e-04,1.000000000000000082e-05,4.000000000000000327e-05,2.999999999999999737e-04,8.000000000000000654e-05,2.700000000000000035e-04,3.799999999999999667e-04,1.899999999999999834e-04,6.000000000000000000e+00,2.200000000000000000e+01
7.417100000000000000e+04,2.000000000000000096e-04,1.000000000000000082e-05,4.000000000000000327e-05,2.999999999999999737e-04,8.000000000000000654e-05,2.700000000000000035e-04,3.799999999999999667e-04,1.899999999999999834e-04,6.000000000000000000e+00,2.200000000000000000e+01
7.417200000000000000e+04,2.000000000000000096e-04,1.000000000000000082e-05,4.000000000000000327e-05,2.999999999999999737e-04,8.000000000000000654e-05,2.700000000000000035e-04,3.799999999999999667e-04,1.899999999999999834e-04,6.000000000000000000e+00,2.200000000000000000e+01
7.417300000000000000e+04,2.000000000000000096e-04,1.000000000000000082e-05,4.000000000000000327e-05,2.999999999999999737e-04,8.000000000000000654e-05,2.700000000000000035e-04,3.799999999999999667e-04,1.899999999999999834e-04,6.000000000000000000e+00,2.200000000000000000e+01
7.417400000000000000e+04,2.000000000000000096e-04,1.000000000000000082e-05,4.000000000000000327e-05,2.999999999999999737e-04,8.000000000000000654e-05,2.700000000000000035e-04,3.799999999999999667e-04,1.899999999999999834e-04,6.000000000000000000e+00,2.200000000000000000e+01
7.417500000000000000e+04,2.000000000000000096e-04,1.000000000000000082e-05,4.000000000000000327e-05,2.999999999999999737e-04,8.000000000000000654e-05,2.700000000000000035e-04,3.799999999999999667e-04,1.899999999999999834e-04,6.000000000000000000e+00,2.200000000000000000e+01
7.417600000000000000e+04,2.000000000000000096e-04,1.000000000000000082e-05,4.000000000000000327e-05,2.999999999999999737e-04,8.000000000000000654e-05,2.700000000000000035e-04,3.799999999999999667e-04,1.899999999999999834e-04,6.000000000000000000e+00,2.200000000000000000e+01
7.417700000000000000e+04,2.000000000000000096e-04,1.000000000000000082e-05,4.000000000000000327e-05,2.999999999999999737e-04,8.000000000000000654e-05,2.700000000000000035e-04,3.799999999999999667e-04,1.899999999999999834e-04,6.000000000000000000e+00,2.200000000000000000e+01
7.417800000000000000e+04,2.000000000000000096e-04,1.000000000000000082e-05,4.000000000000000327e-05,2.999999999999999737e-04,8.000000000000000654e-05,2.700000000000000035e-04,3.799999999999999667e-04,1.899999999999999834e-04,6.000000000000000000e+00,2.200000000000000000e+01
7.417900000000000000e+04,2.000000000000000096e-04,1.000000000000000082e-05,4.000000000000000327e-05,2.999999999999999737e-04,8.000000000000000654e-05,2.700000000000000035e-04,3.799999999999999667e-04,1.899999999999999834e-04,6.000000000000000000e+00,2.200000000000000000e+01
7.418000000000000000e+04,2.000000000000000096e-04,1.000000000000000082e-05,4.000000000000000327e-05,2.999999999999999737e-04,8.000000000000000654e-05,2.700000000000000035e-04,3.799999999999999667e-04,1.899999999999999834e-04,6.000000000000000000e+00,2.200000000000000000e+01
7.418100000000000000e+04,2.000000000000000096e-04,1.000000000000000082e-05,4.000000000000000327e-05,2.999999999999999737e-04,8.000000000000000654e-05,2.700000000000000035e-04,3.799999999999999667e-04,1.899999999999999834e-04,6.000000000000000000e+00,2.200000000000000000e+01
7.418200000000000000e+04,2.000000000000000096e-04,1.000000000000000082e-05,4.000000000000000327e-05,2.999999999999999737e-04,8.000000000000000654e-05,2.700000000000000035e-04,3.799999999999999667e-04,1.899999999999999834e-04,6.000000000000000000e+00,2.200000000000000000e+01
7.418300000000000000e+04,2.000000000000000096e-04,1.000000000000000082e-05,4.000000000000000327e-05,2.999999999999999737e-04,8.000000000000000654e-05,2.700000000000000035e-04,3.799999999999999667e-04,1.899999999999999834e-04,6.000000000000000000e+00,2.200000000000000000e+01
7.418400000000000000e+04,1.000000000000000082e-05,0.000000000000000000e+00,0.000000000000000000e+00,-1.499999999999999869e-04,-1.899999999999999834e-04,-4.599999999999999597e-04,-6.999999999999999387e-05,2.200000000000000078e-04,6.000000000000000000e+00,2.200000000000000000e+01
7.418500000000000000e+04,1.000000000000000082e-05,0.000000000000000000e+00,0.000000000000000000e+00,-1.499999999999999869e-04,-1.899999999999999834e-04,-4.599999999999999597e-04,-6.999999999999999387e-05,2.200000000000000078e-04,6.000000000000000000e+00,2.200000000000000000e+01
7.418600000000000000e+04,-2.299999999999999799e-04,-2.999999999999999737e-05,-1.000000000000000082e-05,-8.000000000000000654e-05,3.099999999999999999e-04,8.999999999999999754e-04,2.799999999999999755e-04,-4.000000000000000192e-04,6.000000000000000000e+00,2.200000000000000000e+01
7.418800000000000000e+04,-2.299999999999999799e-04,-2.999999999999999737e-05,-1.000000000000000082e-05,-8.000000000000000654e-05,3.099999999999999999e-04,8.999999999999999754e-04,2.799999999999999755e-04,-4.000000000000000192e-04,6.000000000000000000e+00,2.200000000000000000e+01
7.419000000000000000e+04,-2.299999999999999799e-04,-2.999999999999999737e-05,-1.000000000000000082e-05,-8.000000000000000654e-05,3.099999999999999999e-04,8.999999999999999754e-04,2.799999999999999755e-04,-4.000000000000000192e-04,6.000000000000000000e+00,2.200000000000000000e+01
7.419100000000000000e+04,-2.299999999999999799e-04,-2.999999999999999737e-05,-1.000000000000000082e-05,-8.000000000000000654e-05,3.099999999999999999e-04,8.999999999999999754e-04,2.799999999999999755e-04,-4.000000000000000192e-04,6.000000000000000000e+00,2.200000000000000000e+01
7.419200000000000000e+04,-2.299999999999999799e-04,-2.999999999999999737e-05,-1.000000000000000082e-05,-8.000000000000000654e-05,3.099999999999999999e-04,8.999999999999999754e-04,2.799999999999999755e-04,-4.000000000000000192e-04,6.000000000000000000e+00,2.200000000000000000e+01
7.419300000000000000e+04,-2.299999999999999799e-04,-2.999999999999999737e-05,-1.000000000000000082e-05,-8.000000000000000654e-05,3.099999999999999999e-04,8.999999999999999754e-04,2.799999999999999755e-04,-4.000000000000000192e-04,6.000000000000000000e+00,2.200000000000000000e+01
7.419400000000000000e+04,-2.299999999999999799e-04,-2.999999999999999737e-05,-1.000000000000000082e-05,-8.000000000000000654e-05,3.099999999999999999e-04,8.999999999999999754e-04,2.799999999999999755e-04,-4.000000000000000192e-04,6.000000000000000000e+00,2.200000000000000000e+01
7.419500000000000000e+04,-2.299999999999999799e-04,-2.999999999999999737e-05,-1.000000000000000082e-05,-8.000000000000000654e-05,3.099999999999999999e-04,8.999999999999999754e-04,2.799999999999999755e-04,-4.000000000000000192e-04,6.000000000000000000e+00,2.200000000000000000e+01
7.419600000000000000e+04,-2.299999999999999799e-04,-2.999999999999999737e-05,-1.000000000000000082e-05,-8.000000000000000654e-05,3.099999999999999999e-04,8.999999999999999754e-04,2.799999999999999755e-04,-4.000000000000000192e-04,6.000000000000000000e+00,2.200000000000000000e+01
7.419700000000000000e+04,-2.299999999999999799e-04,-2.999999999999999737e-05,-1.000000000000000082e-05,-8.000000000000000654e-05,3.099999999999999999e-04,8.999999999999999754e-04,2.799999999999999755e-04,-4.000000000000000192e-04,6.000000000000000000e+00,2.200000000000000000e+01
7.419800000000000000e+04,-2.299999999999999799e-04,-2.999999999999999737e-05,-1.000000000000000082e-05,-8.000000000000000654e-05,3.099999999999999999e-04,8.999999999999999754e-04,2.799999999999999755e-04,-4.000000000000000192e-04,6.000000000000000000e+00,2.200000000000000000e+01
7.419900000000000000e+04,-2.299999999999999799e-04,-2.999999999999999737e-05,-1.000000000000000082e-05,-8.000000000000000654e-05,3.099999999999999999e-04,8.999999999999999754e-04,2.799999999999999755e-04,-4.000000000000000192e-04,6.000000000000000000e+00,2.200000000000000000e+01
7.420000000000000000e+04,-2.299999999999999799e-04,-2.999999999999999737e-05,-1.000000000000000082e-05,-8.000000000000000654e-05,3.099999999999999999e-04,8.999999999999999754e-04,2.799999999999999755e-04,-4.000000000000000192e-04,6.000000000000000000e+00,2.200000000000000000e+01
7.420100000000000000e+04,-2.299999999999999799e-04,-2.999999999999999737e-05,-1.000000000000000082e-05,-8.000000000000000654e-05,3.099999999999999999e-04,8.999999999999999754e-04,2.799999999999999755e-04,-4.000000000000000192e-04,6.000000000000000000e+00,2.200000000000000000e+01
7.420200000000000000e+04,-2.299999999999999799e-04,-2.999999999999999737e-05,-1.000000000000000082e-05,-8.000000000000000654e-05,3.099999999999999999e-04,8.999999999999999754e-04,2.799999999999999755e-04,-4.000000000000000192e-04,6.000000000000000000e+00,2.200000000000000000e+01
7.420400000000000000e+04,-2.299999999999999799e-04,-2.999999999999999737e-05,-1.000000000000000082e-05,-8.000000000000000654e-05,3.099999999999999999e-04,8.999999999999999754e-04,2.799999999999999755e-04,-4.000000000000000192e-04,6.000000000000000000e+00,2.200000000000000000e+01
7.420500000000000000e+04,-2.299999999999999799e-04,-2.999999999999999737e-05,-1.000000000000000082e-05,-8.000000000000000654e-05,3.099999999999999999e-04,8.999999999999999754e-04,2.799999999999999755e-04,-4.000000000000000192e-04,6.000000000000000000e+00,2.200000000000000000e+01
7.420600000000000000e+04,-2.299999999999999799e-04,-2.999999999999999737e-05,-1.000000000000000082e-05,-8.000000000000000654e-05,3.099999999999999999e-04,8.999999999999999754e-04,2.799999999999999755e-04,-4.000000000000000192e-04,6.000000000000000000e+00,2.200000000000000000e+01
7.420700000000000000e+04,-2.299999999999999799e-04,-2.999999999999999737e-05,-1.000000000000000082e-05,-8.000000000000000654e-05,3.099999999999999999e-04,8.999999999999999754e-04,2.799999999999999755e-04,-4.000000000000000192e-04,6.000000000000000000e+00,2.200000000000000000e+01
7.420800000000000000e+04,-2.399999999999999790e-04,1.000000000000000082e-05,1.000000000000000082e-05,-2.999999999999999737e-04,-6.099999999999999737e-04,-2.000000000000000096e-04,2.000000000000000164e-05,1.199999999999999895e-04,6.000000000000000000e+00,2.200000000000000000e+01
7.420900000000000000e+04,-1.300000000000000157e-04,2.999999999999999737e-05,1.000000000000000082e-05,0.000000000000000000e+00,-3.799999999999999667e-04,-3.699999999999999947e-04,-2.000000000000000164e-05,1.899999999999999834e-04,6.000000000000000000e+00,2.200000000000000000e+01
7.421000000000000000e+04,-1.300000000000000157e-04,2.999999999999999737e-05,1.000000000000000082e-05,0.000000000000000000e+00,-3.799999999999999667e-04,-3.699999999999999947e-04,-2.000000000000000164e-05,1.899999999999999834e-04,6.000000000000000000e+00,2.200000000000000000e+01
7.421100000000000000e+04,-1.300000000000000157e-04,2.999999999999999737e-05,1.000000000000000082e-05,0.000000000000000000e+00,-3.799999999999999667e-04,-3.699999999999999947e-04,-2.000000000000000164e-05,1.899999999999999834e-04,6.000000000000000000e+00,2.200000000000000000e+01
7.421200000000000000e+04,-1.300000000000000157e-04,2.999999999999999737e-05,1.000000000000000082e-05,0.000000000000000000e+00,-3.799999999999999667e-04,-3.699999999999999947e-04,-2.000000000000000164e-05,1.899999999999999834e-04,6.000000000000000000e+00,2.200000000000000000e+01
7.421300000000000000e+04,-1.300000000000000157e-04,2.999999999999999737e-05,1.000000000000000082e-05,0.000000000000000000e+00,-3.799999999999999667e-04,-3.699999999999999947e-04,-2.000000000000000164e-05,1.899999999999999834e-04,6.000000000000000000e+00,2.200000000000000000e+01
7.421400000000000000e+04,-1.300000000000000157e-04,2.999999999999999737e-05,1.000000000000000082e-05,0.000000000000000000e+00,-3.799999999999999667e-04,-3.699999999999999947e-04,-2.000000000000000164e-05,1.899999999999999834e-04,6.000000000000000000e+00,2.200000000000000000e+01
7.421500000000000000e+04,-1.300000000000000157e-04,2.999999999999999737e-05,1.000000000000000082e-05,0.000000000000000000e+00,-3.799999999999999667e-04,-3.699999999999999947e-04,-2.000000000000000164e-05,1.899999999999999834e-04,6.000000000000000000e+00,2.200000000000000000e+01
7.421600000000000000e+04,-1.300000000000000157e-04,2.999999999999999737e-05,1.000000000000000082e-05,0.000000000000000000e+00,-3.799999999999999667e-04,-3.699999999999999947e-04,-2.000000000000000164e-05,1.899999999999999834e-04,6.000000000000000000e+00,2.200000000000000000e+01
7.421700000000000000e+04,-1.300000000000000157e-04,2.999999999999999737e-05,1.000000000000000082e-05,0.000000000000000000e+00,-3.799999999999999667e-04,-3.699999999999999947e-04,-2.000000000000000164e-05,1.899999999999999834e-04,6.000000000000000000e+00,2.200000000000000000e+01
7.421800000000000000e+04,-1.300000000000000157e-04,2.999999999999999737e-05,1.000000000000000082e-05,0.000000000000000000e+00,-3.799999999999999667e-04,-3.699999999999999947e-04,-2.000000000000000164e-05,1.899999999999999834e-04,6.000000000000000000e+00,2.200000000000000000e+01
7.421900000000000000e+04,-1.300000000000000157e-04,2.999999999999999737e-05,1.000000000000000082e-05,0.000000000000000000e+00,-3.799999999999999667e-04,-3.699999999999999947e-04,-2.000000000000000164e-05,1.899999999999999834e-04,6.000000000000000000e+00,2.200000000000000000e+01
7.422000000000000000e+04,-1.300000000000000157e-04,2.999999999999999737e-05,1.000000000000000082e-05,0.000000000000000000e+00,-3.799999999999999667e-04,-3.699999999999999947e-04,-2.000000000000000164e-05,1.899999999999999834e-04,6.000000000000000000e+00,2.200000000000000000e+01
7.422100000000000000e+04,1.499999999999999869e-04,5.999999999999999474e-05,6.999999999999999387e-05,1.100000000000000039e-04,2.100000000000000087e-04,3.600000000000000227e-04,1.000000000000000048e-04,-5.999999999999999474e-05,6.000000000000000000e+00,2.200000000000000000e+01
7.422200000000000000e+04,1.499999999999999869e-04,5.999999999999999474e-05,6.999999999999999387e-05,1.100000000000000039e-04,2.100000000000000087e-04,3.600000000000000227e-04,1.000000000000000048e-04,-5.999999999999999474e-05,6.000000000000000000e+00,2.200000000000000000e+01
7.422300000000000000e+04,1.499999999999999869e-04,5.999999999999999474e-05,6.999999999999999387e-05,1.100000000000000039e-04,2.100000000000000087e-04,3.600000000000000227e-04,1.000000000000000048e-04,-5.999999999999999474e-05,6.000000000000000000e+00,2.200000000000000000e+01
7.422400000000000000e+04,1.499999999999999869e-04,5.999999999999999474e-05,6.999999999999999387e-05,1.100000000000000039e-04,2.100000000000000087e-04,3.600000000000000227e-04,1.000000000000000048e-04,-5.999999999999999474e-05,6.000000000000000000e+00,2.200000000000000000e+01
7.422500000000000000e+04,1.499999999999999869e-04,5.999999999999999474e-05,6.999999999999999387e-05,1.100000000000000039e-04,2.100000000000000087e-04,3.600000000000000227e-04,1.000000000000000048e-04,-5.999999999999999474e-05,6.000000000000000000e+00,2.200000000000000000e+01
7.422600000000000000e+04,1.499999999999999869e-04,5.999999999999999474e-05,6.999999999999999387e-05,1.100000000000000039e-04,2.100000000000000087e-04,3.600000000000000227e-04,1.000000000000000048e-04,-5.999999999999999474e-05,6.000000000000000000e+00,2.200000000000000000e+01
7.422700000000000000e+04,1.499999999999999869e-04,5.999999999999999474e-05,6.999999999999999387e-05,1.100000000000000039e-04,2.100000000000000087e-04,3.600000000000000227e-04,1.000000000000000048e-04,-5.999999999999999474e-05,6.000000000000000000e+00,2.200000000000000000e+01
7.422800000000000000e+04,5.999999999999999474e-05,9.000000000000000567e-05,8.000000000000000654e-05,0.000000000000000000e+00,-2.100000000000000087e-04,2.399999999999999790e-04,1.699999999999999851e-04,6.199999999999999999e-04,6.000000000000000000e+00,2.200000000000000000e+01
7.422900000000000000e+04,5.999999999999999474e-05,9.000000000000000567e-05,8.000000000000000654e-05,0.000000000000000000e+00,-2.100000000000000087e-04,2.399999999999999790e-04,1.699999999999999851e-04,6.199999999999999999e-04,6.000000000000000000e+00,2.200000000000000000e+01
7.423000000000000000e+04,5.999999999999999474e-05,9.000000000000000567e-05,8.000000000000000654e-05,0.000000000000000000e+00,-2.100000000000000087e-04,2.399999999999999790e-04,1.699999999999999851e-04,6.199999999999999999e-04,6.000000000000000000e+00,2.200000000000000000e+01
7.423100000000000000e+04,5.999999999999999474e-05,9.000000000000000567e-05,8.000000000000000654e-05,0.000000000000000000e+00,-2.100000000000000087e-04,2.399999999999999790e-04,1.699999999999999851e-04,6.199999999999999999e-04,6.000000000000000000e+00,2.200000000000000000e+01
7.423200000000000000e+04,5.999999999999999474e-05,9.000000000000000567e-05,8.000000000000000654e-05,0.000000000000000000e+00,-2.100000000000000087e-04,2.399999999999999790e-04,1.699999999999999851e-04,6.199999999999999999e-04,6.000000000000000000e+00,2.200000000000000000e+01
7.423300000000000000e+04,5.999999999999999474e-05,9.000000000000000567e-05,8.000000000000000654e-05,0.000000000000000000e+00,-2.100000000000000087e-04,2.399999999999999790e-04,1.699999999999999851e-04,6.199999999999999999e-04,6.000000000000000000e+00,2.200000000000000000e+01
7.423400000000000000e+04,5.999999999999999474e-05,9.000000000000000567e-05,8.000000000000000654e-05,0.000000000000000000e+00,-2.100000000000000087e-04,2.399999999999999790e-04,1.699999999999999851e-04,6.199999999999999999e-04,6.000000000000000000e+00,2.200000000000000000e+01
7.423500000000000000e+04,5.999999999999999474e-05,9.000000000000000567e-05,8.000000000000000654e-05,0.000000000000000000e+00,-2.100000000000000087e-04,2.399999999999999790e-04,1.699999999999999851e-04,6.199999999999999999e-04,6.000000000000000000e+00,2.200000000000000000e+01
7.423600000000000000e+04,5.999999999999999474e-05,9.000000000000000567e-05,8.000000000000000654e-05,0.000000000000000000e+00,-2.100000000000000087e-04,2.399999999999999790e-04,1.699999999999999851e-04,6.199999999999999999e-04,6.000000000000000000e+00,2.200000000000000000e+01
7.423900000000000000e+04,5.999999999999999474e-05,9.000000000000000567e-05,8.000000000000000654e-05,0.000000000000000000e+00,-2.100000000000000087e-04,2.399999999999999790e-04,1.699999999999999851e-04,6.199999999999999999e-04,6.000000000000000000e+00,2.200000000000000000e+01
7.424000000000000000e+04,5.999999999999999474e-05,9.000000000000000567e-05,8.000000000000000654e-05,0.000000000000000000e+00,-2.100000000000000087e-04,2.399999999999999790e-04,1.699999999999999851e-04,6.199999999999999999e-04,6.000000000000000000e+00,2.200000000000000000e+01
7.424100000000000000e+04,5.999999999999999474e-05,9.000000000000000567e-05,8.000000000000000654e-05,0.000000000000000000e+00,-2.100000000000000087e-04,2.399999999999999790e-04,1.699999999999999851e-04,6.199999999999999999e-04,6.000000000000000000e+00,2.200000000000000000e+01
7.424200000000000000e+04,5.999999999999999474e-05,9.000000000000000567e-05,8.000000000000000654e-05,0.000000000000000000e+00,-2.100000000000000087e-04,2.399999999999999790e-04,1.699999999999999851e-04,6.199999999999999999e-04,6.000000000000000000e+00,2.200000000000000000e+01
7.424300000000000000e+04,5.000000000000000240e-05,-5.000000000000000240e-05,-4.000000000000000327e-05,-4.000000000000000327e-05,3.200000000000000262e-04,-6.999999999999999387e-05,-2.799999999999999755e-04,4.599999999999999597e-04,6.000000000000000000e+00,2.200000000000000000e+01
7.424400000000000000e+04,5.000000000000000240e-05,-5.000000000000000240e-05,-4.000000000000000327e-05,-4.000000000000000327e-05,3.200000000000000262e-04,-6.999999999999999387e-05,-2.799999999999999755e-04,4.599999999999999597e-04,6.000000000000000000e+00,2.200000000000000000e+01
7.424500000000000000e+04,5.000000000000000240e-05,-5.000000000000000240e-05,-4.000000000000000327e-05,-4.000000000000000327e-05,3.200000000000000262e-04,-6.999999999999999387e-05,-2.799999999999999755e-04,4.599999999999999597e-04,6.000000000000000000e+00,2.200000000000000000e+01
7.424600000000000000e+04,5.000000000000000240e-05,-5.000000000000000240e-05,-4.000000000000000327e-05,-4.000000000000000327e-05,3.200000000000000262e-04,-6.999999999999999387e-05,-2.799999999999999755e-04,4.599999999999999597e-04,6.000000000000000000e+00,2.200000000000000000e+01
7.424700000000000000e+04,5.000000000000000240e-05,-5.000000000000000240e-05,-4.000000000000000327e-05,-4.000000000000000327e-05,3.200000000000000262e-04,-6.999999999999999387e-05,-2.799999999999999755e-04,4.599999999999999597e-04,6.000000000000000000e+00,2.200000000000000000e+01
7.424800000000000000e+04,5.000000000000000240e-05,-5.000000000000000240e-05,-4.000000000000000327e-05,-4.000000000000000327e-05,3.200000000000000262e-04,-6.999999999999999387e-05,-2.799999999999999755e-04,4.599999999999999597e-04,6.000000000000000000e+00,2.200000000000000000e+01
7.424900000000000000e+04,5.000000000000000240e-05,-5.000000000000000240e-05,-4.000000000000000327e-05,-4.000000000000000327e-05,3.200000000000000262e-04,-6.999999999999999387e-05,-2.799999999999999755e-04,4.599999999999999597e-04,6.000000000000000000e+00,2.200000000000000000e+01
7.425000000000000000e+04,5.000000000000000240e-05,-5.000000000000000240e-05,-4.000000000000000327e-05,-4.000000000000000327e-05,3.200000000000000262e-04,-6.999999999999999387e-05,-2.799999999999999755e-04,4.599999999999999597e-04,6.000000000000000000e+00,2.200000000000000000e+01
7.425100000000000000e+04,5.000000000000000240e-05,-5.000000000000000240e-05,-4.000000000000000327e-05,-4.000000000000000327e-05,3.200000000000000262e-04,-6.999999999999999387e-05,-2.799999999999999755e-04,4.599999999999999597e-04,6.000000000000000000e+00,2.200000000000000000e+01
7.425200000000000000e+04,2.100000000000000087e-04,-1.000000000000000082e-05,0.000000000000000000e+00,1.000000000000000048e-04,2.100000000000000087e-04,-1.399999999999999877e-04,-1.100000000000000039e-04,9.000000000000000567e-05,6.000000000000000000e+00,2.200000000000000000e+01
7.425600000000000000e+04,2.100000000000000087e-04,-1.000000000000000082e-05,0.000000000000000000e+00,1.000000000000000048e-04,2.100000000000000087e-04,-1.399999999999999877e-04,-1.100000000000000039e-04,9.000000000000000567e-05,6.000000000000000000e+00,2.200000000000000000e+01
7.425700000000000000e+04,2.100000000000000087e-04,-1.000000000000000082e-05,0.000000000000000000e+00,1.000000000000000048e-04,2.100000000000000087e-04,-1.399999999999999877e-04,-1.100000000000000039e-04,9.000000000000000567e-05,6.000000000000000000e+00,2.200000000000000000e+01
7.425800000000000000e+04,2.100000000000000087e-04,-1.000000000000000082e-05,0.000000000000000000e+00,1.000000000000000048e-04,2.100000000000000087e-04,-1.399999999999999877e-04,-1.100000000000000039e-04,9.000000000000000567e-05,6.000000000000000000e+00,2.200000000000000000e+01
7.425900000000000000e+04,2.100000000000000087e-04,-1.000000000000000082e-05,0.000000000000000000e+00,1.000000000000000048e-04,2.100000000000000087e-04,-1.399999999999999877e-04,-1.100000000000000039e-04,9.000000000000000567e-05,6.000000000000000000e+00,2.200000000000000000e+01
7.426000000000000000e+04,2.100000000000000087e-04,-1.000000000000000082e-05,0.000000000000000000e+00,1.000000000000000048e-04,2.100000000000000087e-04,-1.399999999999999877e-04,-1.100000000000000039e-04,9.000000000000000567e-05,6.000000000000000000e+00,2.200000000000000000e+01
7.426100000000000000e+04,2.100000000000000087e-04,-1.000000000000000082e-05,0.000000000000000000e+00,1.000000000000000048e-04,2.100000000000000087e-04,-1.399999999999999877e-04,-1.100000000000000039e-04,9.000000000000000567e-05,6.000000000000000000e+00,2.200000000000000000e+01
7.426200000000000000e+04,2.100000000000000087e-04,-1.000000000000000082e-05,0.000000000000000000e+00,1.000000000000000048e-04,2.100000000000000087e-04,-1.399999999999999877e-04,-1.100000000000000039e-04,9.000000000000000567e-05,6.000000000000000000e+00,2.200000000000000000e+01
7.426300000000000000e+04,2.100000000000000087e-04,-1.000000000000000082e-05,0.000000000000000000e+00,1.000000000000000048e-04,2.100000000000000087e-04,-1.399999999999999877e-04,-1.100000000000000039e-04,9.000000000000000567e-05,6.000000000000000000e+00,2.200000000000000000e+01
7.426400000000000000e+04,2.100000000000000087e-04,-1.000000000000000082e-05,0.000000000000000000e+00,1.000000000000000048e-04,2.100000000000000087e-04,-1.399999999999999877e-04,-1.100000000000000039e-04,9.000000000000000567e-05,6.000000000000000000e+00,2.200000000000000000e+01
7.426500000000000000e+04,2.100000000000000087e-04,-1.000000000000000082e-05,0.000000000000000000e+00,1.000000000000000048e-04,2.100000000000000087e-04,-1.399999999999999877e-04,-1.100000000000000039e-04,9.000000000000000567e-05,6.000000000000000000e+00,2.200000000000000000e+01
7.426600000000000000e+04,2.100000000000000087e-04,-1.000000000000000082e-05,0.000000000000000000e+00,1.000000000000000048e-04,2.100000000000000087e-04,-1.399999999999999877e-04,-1.100000000000000039e-04,9.000000000000000567e-05,6.000000000000000000e+00,2.200000000000000000e+01
7.426700000000000000e+04,8.000000000000000654e-05,-5.999999999999999474e-05,-1.000000000000000048e-04,-5.599999999999999509e-04,-5.099999999999999282e-04,4.099999999999999912e-04,-1.300000000000000157e-04,-3.099999999999999999e-04,6.000000000000000000e+00,2.200000000000000000e+01
7.426800000000000000e+04,0.000000000000000000e+00,-5.999999999999999474e-05,-5.999999999999999474e-05,-5.000000000000000240e-05,1.699999999999999851e-04,5.099999999999999282e-04,8.000000000000000654e-05,-8.000000000000000654e-05,6.000000000000000000e+00,2.200000000000000000e+01
7.426900000000000000e+04,0.000000000000000000e+00,-5.999999999999999474e-05,-5.999999999999999474e-05,-5.000000000000000240e-05,1.699999999999999851e-04,5.099999999999999282e-04,8.000000000000000654e-05,-8.000000000000000654e-05,6.000000000000000000e+00,2.200000000000000000e+01
7.427000000000000000e+04,0.000000000000000000e+00,-5.999999999999999474e-05,-5.999999999999999474e-05,-5.000000000000000240e-05,1.699999999999999851e-04,5.099999999999999282e-04,8.000000000000000654e-05,-8.000000000000000654e-05,6.000000000000000000e+00,2.200000000000000000e+01
7.427100000000000000e+04,0.000000000000000000e+00,-5.999999999999999474e-05,-5.999999999999999474e-05,-5.000000000000000240e-05,1.699999999999999851e-04,5.099999999999999282e-04,8.000000000000000654e-05,-8.000000000000000654e-05,6.000000000000000000e+00,2.200000000000000000e+01
7.427200000000000000e+04,0.000000000000000000e+00,-5.999999999999999474e-05,-5.999999999999999474e-05,-5.000000000000000240e-05,1.699999999999999851e-04,5.099999999999999282e-04,8.000000000000000654e-05,-8.000000000000000654e-05,6.000000000000000000e+00,2.200000000000000000e+01
7.427300000000000000e+04,0.000000000000000000e+00,-5.999999999999999474e-05,-5.999999999999999474e-05,-5.000000000000000240e-05,1.699999999999999851e-04,5.099999999999999282e-04,8.000000000000000654e-05,-8.000000000000000654e-05,6.000000000000000000e+00,2.200000000000000000e+01
7.427400000000000000e+04,0.000000000000000000e+00,-5.999999999999999474e-05,-5.999999999999999474e-05,-5.000000000000000240e-05,1.699999999999999851e-04,5.099999999999999282e-04,8.000000000000000654e-05,-8.000000000000000654e-05,6.000000000000000000e+00,2.200000000000000000e+01
7.427500000000000000e+04,0.000000000000000000e+00,-5.999999999999999474e-05,-5.999999999999999474e-05,-5.000000000000000240e-05,1.699999999999999851e-04,5.099999999999999282e-04,8.000000000000000654e-05,-8.000000000000000654e-05,6.000000000000000000e+00,2.200000000000000000e+01
7.427600000000000000e+04,0.000000000000000000e+00,-5.999999999999999474e-05,-5.999999999999999474e-05,-5.000000000000000240e-05,1.699999999999999851e-04,5.099999999999999282e-04,8.000000000000000654e-05,-8.000000000000000654e-05,6.000000000000000000e+00,2.200000000000000000e+01
7.427700000000000000e+04,0.000000000000000000e+00,-5.999999999999999474e-05,-5.999999999999999474e-05,-5.000000000000000240e-05,1.699999999999999851e-04,5.099999999999999282e-04,8.000000000000000654e-05,-8.000000000000000654e-05,6.000000000000000000e+00,2.200000000000000000e+01
7.427800000000000000e+04,0.000000000000000000e+00,-5.999999999999999474e-05,-5.999999999999999474e-05,-5.000000000000000240e-05,1.699999999999999851e-04,5.099999999999999282e-04,8.000000000000000654e-05,-8.000000000000000654e-05,6.000000000000000000e+00,2.200000000000000000e+01
7.427900000000000000e+04,0.000000000000000000e+00,-5.999999999999999474e-05,-5.999999999999999474e-05,-5.000000000000000240e-05,1.699999999999999851e-04,5.099999999999999282e-04,8.000000000000000654e-05,-8.000000000000000654e-05,6.000000000000000000e+00,2.200000000000000000e+01
7.428000000000000000e+04,-1.300000000000000157e-04,-4.000000000000000327e-05,-4.000000000000000327e-05,-1.699999999999999851e-04,-4.499999999999999877e-04,-2.900000000000000017e-04,-9.599999999999999159e-04,-1.399999999999999877e-04,6.000000000000000000e+00,2.200000000000000000e+01
7.428100000000000000e+04,-5.000000000000000240e-05,-2.999999999999999737e-05,-5.000000000000000240e-05,1.300000000000000157e-04,2.399999999999999790e-04,-8.000000000000000654e-05,-5.999999999999999474e-05,-1.000000000000000048e-04,6.000000000000000000e+00,2.200000000000000000e+01
7.428200000000000000e+04,-5.000000000000000240e-05,-2.999999999999999737e-05,-5.000000000000000240e-05,1.300000000000000157e-04,2.399999999999999790e-04,-8.000000000000000654e-05,-5.999999999999999474e-05,-1.000000000000000048e-04,6.000000000000000000e+00,2.200000000000000000e+01
7.428300000000000000e+04,-5.000000000000000240e-05,-2.999999999999999737e-05,-5.000000000000000240e-05,1.300000000000000157e-04,2.399999999999999790e-04,-8.000000000000000654e-05,-5.999999999999999474e-05,-1.000000000000000048e-04,6.000000000000000000e+00,2.200000000000000000e+01
7.428400000000000000e+04,-5.000000000000000240e-05,-2.999999999999999737e-05,-5.000000000000000240e-05,1.300000000000000157e-04,2.399999999999999790e-04,-8.000000000000000654e-05,-5.999999999999999474e-05,-1.000000000000000048e-04,6.000000000000000000e+00,2.200000000000000000e+01
7.428500000000000000e+04,-5.000000000000000240e-05,-2.999999999999999737e-05,-5.000000000000000240e-05,1.300000000000000157e-04,2.399999999999999790e-04,-8.000000000000000654e-05,-5.999999999999999474e-05,-1.000000000000000048e-04,6.000000000000000000e+00,2.200000000000000000e+01
7.428600000000000000e+04,-5.000000000000000240e-05,-2.999999999999999737e-05,-5.000000000000000240e-05,1.300000000000000157e-04,2.399999999999999790e-04,-8.000000000000000654e-05,-5.999999999999999474e-05,-1.000000000000000048e-04,6.000000000000000000e+00,2.200000000000000000e+01
7.428900000000000000e+04,1.899999999999999834e-04,0.000000000000000000e+00,-5.999999999999999474e-05,-4.099999999999999912e-04,-1.049999999999999935e-03,-5.000000000000000240e-05,-2.000000000000000164e-05,2.700000000000000035e-04,6.000000000000000000e+00,2.200000000000000000e+01
7.429000000000000000e+04,-2.799999999999999755e-04,-5.999999999999999474e-05,-4.000000000000000327e-05,6.999999999999999387e-05,2.100000000000000087e-04,-1.800000000000000113e-04,-2.299999999999999799e-04,-3.799999999999999667e-04,6.000000000000000000e+00,2.200000000000000000e+01
7.429100000000000000e+04,-2.799999999999999755e-04,-5.999999999999999474e-05,-4.000000000000000327e-05,6.999999999999999387e-05,2.100000000000000087e-04,-1.800000000000000113e-04,-2.299999999999999799e-04,-3.799999999999999667e-04,6.000000000000000000e+00,2.200000000000000000e+01
7.429200000000000000e+04,-2.799999999999999755e-04,-5.999999999999999474e-05,-4.000000000000000327e-05,6.999999999999999387e-05,2.100000000000000087e-04,-1.800000000000000113e-04,-2.299999999999999799e-04,-3.799999999999999667e-04,6.000000000000000000e+00,2.200000000000000000e+01
7.429300000000000000e+04,-2.799999999999999755e-04,-5.999999999999999474e-05,-4.000000000000000327e-05,6.999999999999999387e-05,2.100000000000000087e-04,-1.800000000000000113e-04,-2.299999999999999799e-04,-3.799999999999999667e-04,6.000000000000000000e+00,2.200000000000000000e+01
7.429400000000000000e+04,-2.799999999999999755e-04,-5.999999999999999474e-05,-4.000000000000000327e-05,6.999999999999999387e-05,2.100000000000000087e-04,-1.800000000000000113e-04,-2.299999999999999799e-04,-3.799999999999999667e-04,6.000000000000000000e+00,2.200000000000000000e+01
7.429500000000000000e+04,-2.799999999999999755e-04,-5.999999999999999474e-05,-4.000000000000000327e-05,6.999999999999999387e-05,2.100000000000000087e-04,-1.800000000000000113e-04,-2.299999999999999799e-04,-3.799999999999999667e-04,6.000000000000000000e+00,2.200000000000000000e+01
7.429600000000000000e+04,-2.799999999999999755e-04,-5.999999999999999474e-05,-4.000000000000000327e-05,6.999999999999999387e-05,2.100000000000000087e-04,-1.800000000000000113e-04,-2.299999999999999799e-04,-3.799999999999999667e-04,6.000000000000000000e+00,2.200000000000000000e+01
7.429700000000000000e+04,-2.799999999999999755e-04,-5.999999999999999474e-05,-4.000000000000000327e-05,6.999999999999999387e-05,2.100000000000000087e-04,-1.800000000000000113e-04,-2.299999999999999799e-04,-3.799999999999999667e-04,6.000000000000000000e+00,2.200000000000000000e+01
7.429800000000000000e+04,-2.799999999999999755e-04,-5.999999999999999474e-05,-4.000000000000000327e-05,6.999999999999999387e-05,2.100000000000000087e-04,-1.800000000000000113e-04,-2.299999999999999799e-04,-3.799999999999999667e-04,6.000000000000000000e+00,2.200000000000000000e+01
7.429900000000000000e+04,-2.799999999999999755e-04,-5.999999999999999474e-05,-4.000000000000000327e-05,6.999999999999999387e-05,2.100000000000000087e-04,-1.800000000000000113e-04,-2.299999999999999799e-04,-3.799999999999999667e-04,6.000000000000000000e+00,2.200000000000000000e+01
7.430000000000000000e+04,-2.799999999999999755e-04,-5.999999999999999474e-05,-4.000000000000000327e-05,6.999999999999999387e-05,2.100000000000000087e-04,-1.800000000000000113e-04,-2.299999999999999799e-04,-3.799999999999999667e-04,6.000000000000000000e+00,2.200000000000000000e+01
7.430100000000000000e+04,-2.799999999999999755e-04,-5.999999999999999474e-05,-4.000000000000000327e-05,6.999999999999999387e-05,2.100000000000000087e-04,-1.800000000000000113e-04,-2.299999999999999799e-04,-3.799999999999999667e-04,6.000000000000000000e+00,2.200000000000000000e+01
7.430200000000000000e+04,-2.799999999999999755e-04,-5.999999999999999474e-05,-4.000000000000000327e-05,6.999999999999999387e-05,2.100000000000000087e-04,-1.800000000000000113e-04,-2.299999999999999799e-04,-3.799999999999999667e-04,6.000000000000000000e+00,2.200000000000000000e+01
7.430400000000000000e+04,6.999999999999999387e-05,-9.000000000000000567e-05,-9.000000000000000567e-05,-8.000000000000000654e-05,2.799999999999999755e-04,2.500000000000000052e-04,-1.000000000000000048e-04,-6.900000000000000751e-04,6.000000000000000000e+00,2.200000000000000000e+01
7.430500000000000000e+04,-7.299999999999999632e-04,-5.999999999999999474e-05,-1.000000000000000082e-05,9.000000000000000567e-05,1.199999999999999895e-04,-7.799999999999999859e-04,-4.299999999999999894e-04,-8.999999999999999754e-04,6.000000000000000000e+00,2.200000000000000000e+01
7.430600000000000000e+04,2.500000000000000052e-04,6.999999999999999387e-05,6.999999999999999387e-05,4.200000000000000174e-04,3.899999999999999929e-04,7.299999999999999632e-04,1.399999999999999877e-04,4.200000000000000174e-04,6.000000000000000000e+00,2.200000000000000000e+01
7.430700000000000000e+04,2.500000000000000052e-04,6.999999999999999387e-05,6.999999999999999387e-05,4.200000000000000174e-04,3.899999999999999929e-04,7.299999999999999632e-04,1.399999999999999877e-04,4.200000000000000174e-04,6.000000000000000000e+00,2.200000000000000000e+01
7.430800000000000000e+04,2.500000000000000052e-04,6.999999999999999387e-05,6.999999999999999387e-05,4.200000000000000174e-04,3.899999999999999929e-04,7.299999999999999632e-04,1.399999999999999877e-04,4.200000000000000174e-04,6.000000000000000000e+00,2.200000000000000000e+01
7.430900000000000000e+04,2.500000000000000052e-04,6.999999999999999387e-05,6.999999999999999387e-05,4.200000000000000174e-04,3.899999999999999929e-04,7.299999999999999632e-04,1.399999999999999877e-04,4.200000000000000174e-04,6.000000000000000000e+00,2.200000000000000000e+01
7.431000000000000000e+04,2.500000000000000052e-04,6.999999999999999387e-05,6.999999999999999387e-05,4.200000000000000174e-04,3.899999999999999929e-04,7.299999999999999632e-04,1.399999999999999877e-04,4.200000000000000174e-04,6.000000000000000000e+00,2.200000000000000000e+01
7.431100000000000000e+04,2.500000000000000052e-04,6.999999999999999387e-05,6.999999999999999387e-05,4.200000000000000174e-04,3.899999999999999929e-04,7.299999999999999632e-04,1.399999999999999877e-04,4.200000000000000174e-04,6.000000000000000000e+00,2.200000000000000000e+01
7.431200000000000000e+04,2.500000000000000052e-04,6.999999999999999387e-05,6.999999999999999387e-05,4.200000000000000174e-04,3.899999999999999929e-04,7.299999999999999632e-04,1.399999999999999877e-04,4.200000000000000174e-04,6.000000000000000000e+00,2.200000000000000000e+01
7.431300000000000000e+04,2.500000000000000052e-04,6.999999999999999387e-05,6.999999999999999387e-05,4.200000000000000174e-04,3.899999999999999929e-04,7.299999999999999632e-04,1.399999999999999877e-04,4.200000000000000174e-04,6.000000000000000000e+00,2.200000000000000000e+01
7.431400000000000000e+04,2.500000000000000052e-04,6.999999999999999387e-05,6.999999999999999387e-05,4.200000000000000174e-04,3.899999999999999929e-04,7.299999999999999632e-04,1.399999999999999877e-04,4.200000000000000174e-04,6.000000000000000000e+00,2.200000000000000000e+01
7.431500000000000000e+04,2.500000000000000052e-04,6.999999999999999387e-05,6.999999999999999387e-05,4.200000000000000174e-04,3.899999999999999929e-04,7.299999999999999632e-04,1.399999999999999877e-04,4.200000000000000174e-04,6.000000000000000000e+00,2.200000000000000000e+01
7.431600000000000000e+04,2.500000000000000052e-04,6.999999999999999387e-05,6.999999999999999387e-05,4.200000000000000174e-04,3.899999999999999929e-04,7.299999999999999632e-04,1.399999999999999877e-04,4.200000000000000174e-04,6.000000000000000000e+00,2.200000000000000000e+01
7.431700000000000000e+04,2.500000000000000052e-04,6.999999999999999387e-05,6.999999999999999387e-05,4.200000000000000174e-04,3.899999999999999929e-04,7.299999999999999632e-04,1.399999999999999877e-04,4.200000000000000174e-04,6.000000000000000000e+00,2.200000000000000000e+01
7.431800000000000000e+04,2.500000000000000052e-04,6.999999999999999387e-05,6.999999999999999387e-05,4.200000000000000174e-04,3.899999999999999929e-04,7.299999999999999632e-04,1.399999999999999877e-04,4.200000000000000174e-04,6.000000000000000000e+00,2.200000000000000000e+01
7.431900000000000000e+04,2.500000000000000052e-04,6.999999999999999387e-05,6.999999999999999387e-05,4.200000000000000174e-04,3.899999999999999929e-04,7.299999999999999632e-04,1.399999999999999877e-04,4.200000000000000174e-04,6.000000000000000000e+00,2.200000000000000000e+01
7.432000000000000000e+04,2.500000000000000052e-04,6.999999999999999387e-05,6.999999999999999387e-05,4.200000000000000174e-04,3.899999999999999929e-04,7.299999999999999632e-04,1.399999999999999877e-04,4.200000000000000174e-04,6.000000000000000000e+00,2.200000000000000000e+01
7.432100000000000000e+04,2.500000000000000052e-04,6.999999999999999387e-05,6.999999999999999387e-05,4.200000000000000174e-04,3.899999999999999929e-04,7.299999999999999632e-04,1.399999999999999877e-04,4.200000000000000174e-04,6.000000000000000000e+00,2.200000000000000000e+01
7.432200000000000000e+04,2.500000000000000052e-04,6.999999999999999387e-05,6.999999999999999387e-05,4.200000000000000174e-04,3.899999999999999929e-04,7.299999999999999632e-04,1.399999999999999877e-04,4.200000000000000174e-04,6.000000000000000000e+00,2.200000000000000000e+01
7.432300000000000000e+04,2.500000000000000052e-04,6.999999999999999387e-05,6.999999999999999387e-05,4.200000000000000174e-04,3.899999999999999929e-04,7.299999999999999632e-04,1.399999999999999877e-04,4.200000000000000174e-04,6.000000000000000000e+00,2.200000000000000000e+01
7.432400000000000000e+04,2.500000000000000052e-04,6.999999999999999387e-05,6.999999999999999387e-05,4.200000000000000174e-04,3.899999999999999929e-04,7.299999999999999632e-04,1.399999999999999877e-04,4.200000000000000174e-04,6.000000000000000000e+00,2.200000000000000000e+01
7.432500000000000000e+04,2.500000000000000052e-04,6.999999999999999387e-05,6.999999999999999387e-05,4.200000000000000174e-04,3.899999999999999929e-04,7.299999999999999632e-04,1.399999999999999877e-04,4.200000000000000174e-04,6.000000000000000000e+00,2.200000000000000000e+01
7.432600000000000000e+04,2.500000000000000052e-04,6.999999999999999387e-05,6.999999999999999387e-05,4.200000000000000174e-04,3.899999999999999929e-04,7.299999999999999632e-04,1.399999999999999877e-04,4.200000000000000174e-04,6.000000000000000000e+00,2.200000000000000000e+01
7.432700000000000000e+04,2.999999999999999737e-04,-5.000000000000000240e-05,-9.000000000000000567e-05,-1.600000000000000131e-04,2.500000000000000052e-04,2.000000000000000164e-05,-2.000000000000000164e-05,4.299999999999999894e-04,6.000000000000000000e+00,2.200000000000000000e+01
7.432800000000000000e+04,2.399999999999999790e-04,-1.000000000000000082e-05,-2.999999999999999737e-05,1.600000000000000131e-04,-1.199999999999999895e-04,-6.999999999999999387e-05,-4.299999999999999894e-04,-1.899999999999999834e-04,6.000000000000000000e+00,2.200000000000000000e+01
7.432900000000000000e+04,2.399999999999999790e-04,-1.000000000000000082e-05,-2.999999999999999737e-05,1.600000000000000131e-04,-1.199999999999999895e-04,-6.999999999999999387e-05,-4.299999999999999894e-04,-1.899999999999999834e-04,6.000000000000000000e+00,2.200000000000000000e+01
7.433000000000000000e+04,2.399999999999999790e-04,-1.000000000000000082e-05,-2.999999999999999737e-05,1.600000000000000131e-04,-1.199999999999999895e-04,-6.999999999999999387e-05,-4.299999999999999894e-04,-1.899999999999999834e-04,6.000000000000000000e+00,2.200000000000000000e+01
7.433100000000000000e+04,2.399999999999999790e-04,-1.000000000000000082e-05,-2.999999999999999737e-05,1.600000000000000131e-04,-1.199999999999999895e-04,-6.999999999999999387e-05,-4.299999999999999894e-04,-1.899999999999999834e-04,6.000000000000000000e+00,2.200000000000000000e+01
7.433200000000000000e+04,2.399999999999999790e-04,-1.000000000000000082e-05,-2.999999999999999737e-05,1.600000000000000131e-04,-1.199999999999999895e-04,-6.999999999999999387e-05,-4.299999999999999894e-04,-1.899999999999999834e-04,6.000000000000000000e+00,2.200000000000000000e+01
7.433300000000000000e+04,2.399999999999999790e-04,-1.000000000000000082e-05,-2.999999999999999737e-05,1.600000000000000131e-04,-1.199999999999999895e-04,-6.999999999999999387e-05,-4.299999999999999894e-04,-1.899999999999999834e-04,6.000000000000000000e+00,2.200000000000000000e+01
7.433400000000000000e+04,2.399999999999999790e-04,-1.000000000000000082e-05,-2.999999999999999737e-05,1.600000000000000131e-04,-1.199999999999999895e-04,-6.999999999999999387e-05,-4.299999999999999894e-04,-1.899999999999999834e-04,6.000000000000000000e+00,2.200000000000000000e+01
7.433500000000000000e+04,2.399999999999999790e-04,-1.000000000000000082e-05,-2.999999999999999737e-05,1.600000000000000131e-04,-1.199999999999999895e-04,-6.999999999999999387e-05,-4.299999999999999894e-04,-1.899999999999999834e-04,6.000000000000000000e+00,2.200000000000000000e+01
7.433600000000000000e+04,2.399999999999999790e-04,-1.000000000000000082e-05,-2.999999999999999737e-05,1.600000000000000131e-04,-1.199999999999999895e-04,-6.999999999999999387e-05,-4.299999999999999894e-04,-1.899999999999999834e-04,6.000000000000000000e+00,2.200000000000000000e+01
7.433800000000000000e+04,2.399999999999999790e-04,-1.000000000000000082e-05,-2.999999999999999737e-05,1.600000000000000131e-04,-1.199999999999999895e-04,-6.999999999999999387e-05,-4.299999999999999894e-04,-1.899999999999999834e-04,6.000000000000000000e+00,2.200000000000000000e+01
7.434000000000000000e+04,1.000000000000000048e-04,1.300000000000000157e-04,1.300000000000000157e-04,-3.600000000000000227e-04,-3.200000000000000262e-04,2.000000000000000164e-05,-1.199999999999999895e-04,1.899999999999999834e-04,6.000000000000000000e+00,2.200000000000000000e+01
7.434100000000000000e+04,1.800000000000000113e-04,-2.999999999999999737e-05,6.999999999999999387e-05,8.599999999999999789e-04,-6.999999999999999387e-05,3.899999999999999929e-04,2.000000000000000096e-04,3.399999999999999702e-04,6.000000000000000000e+00,2.200000000000000000e+01
7.434200000000000000e+04,1.800000000000000113e-04,-2.999999999999999737e-05,6.999999999999999387e-05,8.599999999999999789e-04,-6.999999999999999387e-05,3.899999999999999929e-04,2.000000000000000096e-04,3.399999999999999702e-04,6.000000000000000000e+00,2.200000000000000000e+01
7.434300000000000000e+04,1.800000000000000113e-04,-2.999999999999999737e-05,6.999999999999999387e-05,8.599999999999999789e-04,-6.999999999999999387e-05,3.899999999999999929e-04,2.000000000000000096e-04,3.399999999999999702e-04,6.000000000000000000e+00,2.200000000000000000e+01
7.434400000000000000e+04,1.800000000000000113e-04,-2.999999999999999737e-05,6.999999999999999387e-05,8.599999999999999789e-04,-6.999999999999999387e-05,3.899999999999999929e-04,2.000000000000000096e-04,3.399999999999999702e-04,6.000000000000000000e+00,2.200000000000000000e+01
7.434500000000000000e+04,1.800000000000000113e-04,-2.999999999999999737e-05,6.999999999999999387e-05,8.599999999999999789e-04,-6.999999999999999387e-05,3.899999999999999929e-04,2.000000000000000096e-04,3.399999999999999702e-04,6.000000000000000000e+00,2.200000000000000000e+01
7.434600000000000000e+04,1.800000000000000113e-04,-2.999999999999999737e-05,6.999999999999999387e-05,8.599999999999999789e-04,-6.999999999999999387e-05,3.899999999999999929e-04,2.000000000000000096e-04,3.399999999999999702e-04,6.000000000000000000e+00,2.200000000000000000e+01
7.434700000000000000e+04,1.800000000000000113e-04,-2.999999999999999737e-05,6.999999999999999387e-05,8.599999999999999789e-04,-6.999999999999999387e-05,3.899999999999999929e-04,2.000000000000000096e-04,3.399999999999999702e-04,6.000000000000000000e+00,2.200000000000000000e+01
7.434800000000000000e+04,1.800000000000000113e-04,-2.999999999999999737e-05,6.999999999999999387e-05,8.599999999999999789e-04,-6.999999999999999387e-05,3.899999999999999929e-04,2.000000000000000096e-04,3.399999999999999702e-04,6.000000000000000000e+00,2.200000000000000000e+01
7.434900000000000000e+04,-1.199999999999999895e-04,-9.000000000000000567e-05,-1.499999999999999869e-04,-4.599999999999999597e-04,-2.900000000000000017e-04,3.699999999999999947e-04,-2.500000000000000052e-04,9.000000000000000567e-05,6.000000000000000000e+00,2.200000000000000000e+01
7.435000000000000000e+04,-1.199999999999999895e-04,-9.000000000000000567e-05,-1.499999999999999869e-04,-4.599999999999999597e-04,-2.900000000000000017e-04,3.699999999999999947e-04,-2.500000000000000052e-04,9.000000000000000567e-05,6.000000000000000000e+00,2.200000000000000000e+01
7.435100000000000000e+04,-1.199999999999999895e-04,-9.000000000000000567e-05,-1.499999999999999869e-04,-4.599999999999999597e-04,-2.900000000000000017e-04,3.699999999999999947e-04,-2.500000000000000052e-04,9.000000000000000567e-05,6.000000000000000000e+00,2.200000000000000000e+01
7.435200000000000000e+04,-1.199999999999999895e-04,-9.000000000000000567e-05,-1.499999999999999869e-04,-4.599999999999999597e-04,-2.900000000000000017e-04,3.699999999999999947e-04,-2.500000000000000052e-04,9.000000000000000567e-05,6.000000000000000000e+00,2.200000000000000000e+01
7.435400000000000000e+04,-1.199999999999999895e-04,-9.000000000000000567e-05,-1.499999999999999869e-04,-4.599999999999999597e-04,-2.900000000000000017e-04,3.699999999999999947e-04,-2.500000000000000052e-04,9.000000000000000567e-05,6.000000000000000000e+00,2.200000000000000000e+01
7.435500000000000000e+04,-1.199999999999999895e-04,-9.000000000000000567e-05,-1.499999999999999869e-04,-4.599999999999999597e-04,-2.900000000000000017e-04,3.699999999999999947e-04,-2.500000000000000052e-04,9.000000000000000567e-05,6.000000000000000000e+00,2.200000000000000000e+01
7.435600000000000000e+04,-1.199999999999999895e-04,-9.000000000000000567e-05,-1.499999999999999869e-04,-4.599999999999999597e-04,-2.900000000000000017e-04,3.699999999999999947e-04,-2.500000000000000052e-04,9.000000000000000567e-05,6.000000000000000000e+00,2.200000000000000000e+01
7.435700000000000000e+04,-1.199999999999999895e-04,-9.000000000000000567e-05,-1.499999999999999869e-04,-4.599999999999999597e-04,-2.900000000000000017e-04,3.699999999999999947e-04,-2.500000000000000052e-04,9.000000000000000567e-05,6.000000000000000000e+00,2.200000000000000000e+01
7.435800000000000000e+04,-1.199999999999999895e-04,-9.000000000000000567e-05,-1.499999999999999869e-04,-4.599999999999999597e-04,-2.900000000000000017e-04,3.699999999999999947e-04,-2.500000000000000052e-04,9.000000000000000567e-05,6.000000000000000000e+00,2.200000000000000000e+01
7.435900000000000000e+04,-1.199999999999999895e-04,-9.000000000000000567e-05,-1.499999999999999869e-04,-4.599999999999999597e-04,-2.900000000000000017e-04,3.699999999999999947e-04,-2.500000000000000052e-04,9.000000000000000567e-05,6.000000000000000000e+00,2.200000000000000000e+01
7.436000000000000000e+04,-1.199999999999999895e-04,-9.000000000000000567e-05,-1.499999999999999869e-04,-4.599999999999999597e-04,-2.900000000000000017e-04,3.699999999999999947e-04,-2.500000000000000052e-04,9.000000000000000567e-05,6.000000000000000000e+00,2.200000000000000000e+01
7.436100000000000000e+04,-1.199999999999999895e-04,-9.000000000000000567e-05,-1.499999999999999869e-04,-4.599999999999999597e-04,-2.900000000000000017e-04,3.699999999999999947e-04,-2.500000000000000052e-04,9.000000000000000567e-05,6.000000000000000000e+00,2.200000000000000000e+01
7.436200000000000000e+04,-1.199999999999999895e-04,-9.000000000000000567e-05,-1.499999999999999869e-04,-4.599999999999999597e-04,-2.900000000000000017e-04,3.699999999999999947e-04,-2.500000000000000052e-04,9.000000000000000567e-05,6.000000000000000000e+00,2.200000000000000000e+01
7.436300000000000000e+04,-1.199999999999999895e-04,-9.000000000000000567e-05,-1.499999999999999869e-04,-4.599999999999999597e-04,-2.900000000000000017e-04,3.699999999999999947e-04,-2.500000000000000052e-04,9.000000000000000567e-05,6.000000000000000000e+00,2.200000000000000000e+01
7.436400000000000000e+04,2.500000000000000052e-04,2.999999999999999737e-05,1.000000000000000082e-05,2.900000000000000017e-04,6.599999999999999964e-04,3.799999999999999667e-04,-4.299999999999999894e-04,5.000000000000000240e-05,6.000000000000000000e+00,2.200000000000000000e+01
7.436500000000000000e+04,-1.100000000000000039e-04,2.000000000000000164e-05,8.000000000000000654e-05,3.699999999999999947e-04,5.400000000000000069e-04,0.000000000000000000e+00,9.000000000000000567e-05,-1.800000000000000113e-04,6.000000000000000000e+00,2.200000000000000000e+01
7.436600000000000000e+04,1.600000000000000131e-04,5.000000000000000240e-05,1.000000000000000082e-05,-2.600000000000000314e-04,-3.699999999999999947e-04,-4.299999999999999894e-04,-2.200000000000000078e-04,3.699999999999999947e-04,6.000000000000000000e+00,2.200000000000000000e+01
7.436700000000000000e+04,1.600000000000000131e-04,5.000000000000000240e-05,1.000000000000000082e-05,-2.600000000000000314e-04,-3.699999999999999947e-04,-4.299999999999999894e-04,-2.200000000000000078e-04,3.699999999999999947e-04,6.000000000000000000e+00,2.200000000000000000e+01
7.436800000000000000e+04,1.600000000000000131e-04,5.000000000000000240e-05,1.000000000000000082e-05,-2.600000000000000314e-04,-3.699999999999999947e-04,-4.299999999999999894e-04,-2.200000000000000078e-04,3.699999999999999947e-04,6.000000000000000000e+00,2.200000000000000000e+01
7.436900000000000000e+04,1.600000000000000131e-04,5.000000000000000240e-05,1.000000000000000082e-05,-2.600000000000000314e-04,-3.699999999999999947e-04,-4.299999999999999894e-04,-2.200000000000000078e-04,3.699999999999999947e-04,6.000000000000000000e+00,2.200000000000000000e+01
7.437000000000000000e+04,1.600000000000000131e-04,5.000000000000000240e-05,1.000000000000000082e-05,-2.600000000000000314e-04,-3.699999999999999947e-04,-4.299999999999999894e-04,-2.200000000000000078e-04,3.699999999999999947e-04,6.000000000000000000e+00,2.200000000000000000e+01
7.437100000000000000e+04,1.600000000000000131e-04,5.000000000000000240e-05,1.000000000000000082e-05,-2.600000000000000314e-04,-3.699999999999999947e-04,-4.299999999999999894e-04,-2.200000000000000078e-04,3.699999999999999947e-04,6.000000000000000000e+00,2.200000000000000000e+01
7.437200000000000000e+04,1.600000000000000131e-04,5.000000000000000240e-05,1.000000000000000082e-05,-2.600000000000000314e-04,-3.699999999999999947e-04,-4.299999999999999894e-04,-2.200000000000000078e-04,3.699999999999999947e-04,6.000000000000000000e+00,2.200000000000000000e+01
7.437300000000000000e+04,1.600000000000000131e-04,5.000000000000000240e-05,1.000000000000000082e-05,-2.600000000000000314e-04,-3.699999999999999947e-04,-4.299999999999999894e-04,-2.200000000000000078e-04,3.699999999999999947e-04,6.000000000000000000e+00,2.200000000000000000e+01
7.437400000000000000e+04,1.600000000000000131e-04,5.000000000000000240e-05,1.000000000000000082e-05,-2.600000000000000314e-04,-3.699999999999999947e-04,-4.299999999999999894e-04,-2.200000000000000078e-04,3.699999999999999947e-04,6.000000000000000000e+00,2.200000000000000000e+01
7.437500000000000000e+04,1.600000000000000131e-04,5.000000000000000240e-05,1.000000000000000082e-05,-2.600000000000000314e-04,-3.699999999999999947e-04,-4.299999999999999894e-04,-2.200000000000000078e-04,3.699999999999999947e-04,6.000000000000000000e+00,2.200000000000000000e+01
7.437600000000000000e+04,1.600000000000000131e-04,5.000000000000000240e-05,1.000000000000000082e-05,-2.600000000000000314e-04,-3.699999999999999947e-04,-4.299999999999999894e-04,-2.200000000000000078e-04,3.699999999999999947e-04,6.000000000000000000e+00,2.200000000000000000e+01
7.437700000000000000e+04,1.600000000000000131e-04,5.000000000000000240e-05,1.000000000000000082e-05,-2.600000000000000314e-04,-3.699999999999999947e-04,-4.299999999999999894e-04,-2.200000000000000078e-04,3.699999999999999947e-04,6.000000000000000000e+00,2.200000000000000000e+01
7.437800000000000000e+04,1.600000000000000131e-04,5.000000000000000240e-05,1.000000000000000082e-05,-2.600000000000000314e-04,-3.699999999999999947e-04,-4.299999999999999894e-04,-2.200000000000000078e-04,3.699999999999999947e-04,6.000000000000000000e+00,2.200000000000000000e+01
7.437900000000000000e+04,1.600000000000000131e-04,5.000000000000000240e-05,1.000000000000000082e-05,-2.600000000000000314e-04,-3.699999999999999947e-04,-4.299999999999999894e-04,-2.200000000000000078e-04,3.699999999999999947e-04,6.000000000000000000e+00,2.200000000000000000e+01
7.438000000000000000e+04,1.600000000000000131e-04,5.000000000000000240e-05,1.000000000000000082e-05,-2.600000000000000314e-04,-3.699999999999999947e-04,-4.299999999999999894e-04,-2.200000000000000078e-04,3.699999999999999947e-04,6.000000000000000000e+00,2.200000000000000000e+01
7.438100000000000000e+04,1.600000000000000131e-04,5.000000000000000240e-05,1.000000000000000082e-05,-2.600000000000000314e-04,-3.699999999999999947e-04,-4.299999999999999894e-04,-2.200000000000000078e-04,3.699999999999999947e-04,6.000000000000000000e+00,2.200000000000000000e+01
7.438200000000000000e+04,1.600000000000000131e-04,5.000000000000000240e-05,1.000000000000000082e-05,-2.600000000000000314e-04,-3.699999999999999947e-04,-4.299999999999999894e-04,-2.200000000000000078e-04,3.699999999999999947e-04,6.000000000000000000e+00,2.200000000000000000e+01
7.438300000000000000e+04,1.600000000000000131e-04,5.000000000000000240e-05,1.000000000000000082e-05,-2.600000000000000314e-04,-3.699999999999999947e-04,-4.299999999999999894e-04,-2.200000000000000078e-04,3.699999999999999947e-04,6.000000000000000000e+00,2.200000000000000000e+01
7.438400000000000000e+04,1.600000000000000131e-04,5.000000000000000240e-05,1.000000000000000082e-05,-2.600000000000000314e-04,-3.699999999999999947e-04,-4.299999999999999894e-04,-2.200000000000000078e-04,3.699999999999999947e-04,6.000000000000000000e+00,2.200000000000000000e+01
7.438500000000000000e+04,1.600000000000000131e-04,5.000000000000000240e-05,1.000000000000000082e-05,-2.600000000000000314e-04,-3.699999999999999947e-04,-4.299999999999999894e-04,-2.200000000000000078e-04,3.699999999999999947e-04,6.000000000000000000e+00,2.200000000000000000e+01
7.438600000000000000e+04,1.600000000000000131e-04,5.000000000000000240e-05,1.000000000000000082e-05,-2.600000000000000314e-04,-3.699999999999999947e-04,-4.299999999999999894e-04,-2.200000000000000078e-04,3.699999999999999947e-04,6.000000000000000000e+00,2.200000000000000000e+01
7.438900000000000000e+04,-1.899999999999999834e-04,-4.000000000000000327e-05,-1.000000000000000082e-05,-2.000000000000000164e-05,-1.600000000000000131e-04,-1.600000000000000131e-04,1.000000000000000082e-05,-1.600000000000000131e-04,6.000000000000000000e+00,2.200000000000000000e+01
7.439000000000000000e+04,-1.899999999999999834e-04,-4.000000000000000327e-05,-1.000000000000000082e-05,-2.000000000000000164e-05,-1.600000000000000131e-04,-1.600000000000000131e-04,1.000000000000000082e-05,-1.600000000000000131e-04,6.000000000000000000e+00,2.200000000000000000e+01
7.439100000000000000e+04,-1.899999999999999834e-04,-4.000000000000000327e-05,-1.000000000000000082e-05,-2.000000000000000164e-05,-1.600000000000000131e-04,-1.600000000000000131e-04,1.000000000000000082e-05,-1.600000000000000131e-04,6.000000000000000000e+00,2.200000000000000000e+01
7.439200000000000000e+04,-1.899999999999999834e-04,-4.000000000000000327e-05,-1.000000000000000082e-05,-2.000000000000000164e-05,-1.600000000000000131e-04,-1.600000000000000131e-04,1.000000000000000082e-05,-1.600000000000000131e-04,6.000000000000000000e+00,2.200000000000000000e+01
7.439300000000000000e+04,-1.899999999999999834e-04,-4.000000000000000327e-05,-1.000000000000000082e-05,-2.000000000000000164e-05,-1.600000000000000131e-04,-1.600000000000000131e-04,1.000000000000000082e-05,-1.600000000000000131e-04,6.000000000000000000e+00,2.200000000000000000e+01
7.439400000000000000e+04,-1.899999999999999834e-04,-4.000000000000000327e-05,-1.000000000000000082e-05,-2.000000000000000164e-05,-1.600000000000000131e-04,-1.600000000000000131e-04,1.000000000000000082e-05,-1.600000000000000131e-04,6.000000000000000000e+00,2.200000000000000000e+01
7.439500000000000000e+04,-1.899999999999999834e-04,-4.000000000000000327e-05,-1.000000000000000082e-05,-2.000000000000000164e-05,-1.600000000000000131e-04,-1.600000000000000131e-04,1.000000000000000082e-05,-1.600000000000000131e-04,6.000000000000000000e+00,2.200000000000000000e+01
7.439600000000000000e+04,-1.899999999999999834e-04,-4.000000000000000327e-05,-1.000000000000000082e-05,-2.000000000000000164e-05,-1.600000000000000131e-04,-1.600000000000000131e-04,1.000000000000000082e-05,-1.600000000000000131e-04,6.000000000000000000e+00,2.200000000000000000e+01
7.439700000000000000e+04,-1.899999999999999834e-04,-4.000000000000000327e-05,-1.000000000000000082e-05,-2.000000000000000164e-05,-1.600000000000000131e-04,-1.600000000000000131e-04,1.000000000000000082e-05,-1.600000000000000131e-04,6.000000000000000000e+00,2.200000000000000000e+01
7.439800000000000000e+04,-1.899999999999999834e-04,-4.000000000000000327e-05,-1.000000000000000082e-05,-2.000000000000000164e-05,-1.600000000000000131e-04,-1.600000000000000131e-04,1.000000000000000082e-05,-1.600000000000000131e-04,6.000000000000000000e+00,2.200000000000000000e+01
7.439900000000000000e+04,-1.899999999999999834e-04,-4.000000000000000327e-05,-1.000000000000000082e-05,-2.000000000000000164e-05,-1.600000000000000131e-04,-1.600000000000000131e-04,1.000000000000000082e-05,-1.600000000000000131e-04,6.000000000000000000e+00,2.200000000000000000e+01
7.440000000000000000e+04,-1.899999999999999834e-04,-4.000000000000000327e-05,-1.000000000000000082e-05,-2.000000000000000164e-05,-1.600000000000000131e-04,-1.600000000000000131e-04,1.000000000000000082e-05,-1.600000000000000131e-04,6.000000000000000000e+00,2.200000000000000000e+01
7.440100000000000000e+04,-1.899999999999999834e-04,-4.000000000000000327e-05,-1.000000000000000082e-05,-2.000000000000000164e-05,-1.600000000000000131e-04,-1.600000000000000131e-04,1.000000000000000082e-05,-1.600000000000000131e-04,6.000000000000000000e+00,2.200000000000000000e+01
7.440200000000000000e+04,-1.899999999999999834e-04,-4.000000000000000327e-05,-1.000000000000000082e-05,-2.000000000000000164e-05,-1.600000000000000131e-04,-1.600000000000000131e-04,1.000000000000000082e-05,-1.600000000000000131e-04,6.000000000000000000e+00,2.200000000000000000e+01
7.440300000000000000e+04,-1.899999999999999834e-04,-4.000000000000000327e-05,-1.000000000000000082e-05,-2.000000000000000164e-05,-1.600000000000000131e-04,-1.600000000000000131e-04,1.000000000000000082e-05,-1.600000000000000131e-04,6.000000000000000000e+00,2.200000000000000000e+01
7.440400000000000000e+04,-1.899999999999999834e-04,-4.000000000000000327e-05,-1.000000000000000082e-05,-2.000000000000000164e-05,-1.600000000000000131e-04,-1.600000000000000131e-04,1.000000000000000082e-05,-1.600000000000000131e-04,6.000000000000000000e+00,2.200000000000000000e+01
7.440500000000000000e+04,-1.899999999999999834e-04,-4.000000000000000327e-05,-1.000000000000000082e-05,-2.000000000000000164e-05,-1.600000000000000131e-04,-1.600000000000000131e-04,1.000000000000000082e-05,-1.600000000000000131e-04,6.000000000000000000e+00,2.200000000000000000e+01
7.440600000000000000e+04,-1.899999999999999834e-04,-4.000000000000000327e-05,-1.000000000000000082e-05,-2.000000000000000164e-05,-1.600000000000000131e-04,-1.600000000000000131e-04,1.000000000000000082e-05,-1.600000000000000131e-04,6.000000000000000000e+00,2.200000000000000000e+01
7.440700000000000000e+04,-1.899999999999999834e-04,-4.000000000000000327e-05,-1.000000000000000082e-05,-2.000000000000000164e-05,-1.600000000000000131e-04,-1.600000000000000131e-04,1.000000000000000082e-05,-1.600000000000000131e-04,6.000000000000000000e+00,2.200000000000000000e+01
7.440800000000000000e+04,-1.899999999999999834e-04,-4.000000000000000327e-05,-1.000000000000000082e-05,-2.000000000000000164e-05,-1.600000000000000131e-04,-1.600000000000000131e-04,1.000000000000000082e-05,-1.600000000000000131e-04,6.000000000000000000e+00,2.200000000000000000e+01
7.440900000000000000e+04,3.399999999999999702e-04,9.000000000000000567e-05,6.999999999999999387e-05,1.499999999999999869e-04,2.000000000000000096e-04,6.799999999999999404e-04,-6.999999999999999387e-05,2.799999999999999755e-04,6.000000000000000000e+00,2.200000000000000000e+01
7.441000000000000000e+04,3.399999999999999702e-04,9.000000000000000567e-05,6.999999999999999387e-05,1.499999999999999869e-04,2.000000000000000096e-04,6.799999999999999404e-04,-6.999999999999999387e-05,2.799999999999999755e-04,6.000000000000000000e+00,2.200000000000000000e+01
7.441100000000000000e+04,1.399999999999999877e-04,-1.000000000000000082e-05,-1.000000000000000082e-05,4.000000000000000327e-05,3.399999999999999702e-04,-5.000000000000000104e-04,-3.299999999999999982e-04,1.000000000000000082e-05,6.000000000000000000e+00,2.200000000000000000e+01
7.441200000000000000e+04,1.399999999999999877e-04,-1.000000000000000082e-05,-1.000000000000000082e-05,4.000000000000000327e-05,3.399999999999999702e-04,-5.000000000000000104e-04,-3.299999999999999982e-04,1.000000000000000082e-05,6.000000000000000000e+00,2.200000000000000000e+01
7.441300000000000000e+04,1.399999999999999877e-04,-1.000000000000000082e-05,-1.000000000000000082e-05,4.000000000000000327e-05,3.399999999999999702e-04,-5.000000000000000104e-04,-3.299999999999999982e-04,1.000000000000000082e-05,6.000000000000000000e+00,2.200000000000000000e+01
7.441400000000000000e+04,1.399999999999999877e-04,-1.000000000000000082e-05,-1.000000000000000082e-05,4.000000000000000327e-05,3.399999999999999702e-04,-5.000000000000000104e-04,-3.299999999999999982e-04,1.000000000000000082e-05,6.000000000000000000e+00,2.200000000000000000e+01
7.441500000000000000e+04,1.399999999999999877e-04,-1.000000000000000082e-05,-1.000000000000000082e-05,4.000000000000000327e-05,3.399999999999999702e-04,-5.000000000000000104e-04,-3.299999999999999982e-04,1.000000000000000082e-05,6.000000000000000000e+00,2.200000000000000000e+01
7.441600000000000000e+04,1.399999999999999877e-04,-1.000000000000000082e-05,-1.000000000000000082e-05,4.000000000000000327e-05,3.399999999999999702e-04,-5.000000000000000104e-04,-3.299999999999999982e-04,1.000000000000000082e-05,6.000000000000000000e+00,2.200000000000000000e+01
7.441700000000000000e+04,1.399999999999999877e-04,-1.000000000000000082e-05,-1.000000000000000082e-05,4.000000000000000327e-05,3.399999999999999702e-04,-5.000000000000000104e-04,-3.299999999999999982e-04,1.000000000000000082e-05,6.000000000000000000e+00,2.200000000000000000e+01
7.441800000000000000e+04,1.399999999999999877e-04,-1.000000000000000082e-05,-1.000000000000000082e-05,4.000000000000000327e-05,3.399999999999999702e-04,-5.000000000000000104e-04,-3.299999999999999982e-04,1.000000000000000082e-05,6.000000000000000000e+00,2.200000000000000000e+01
7.441900000000000000e+04,1.399999999999999877e-04,-1.000000000000000082e-05,-1.000000000000000082e-05,4.000000000000000327e-05,3.399999999999999702e-04,-5.000000000000000104e-04,-3.299999999999999982e-04,1.000000000000000082e-05,6.000000000000000000e+00,2.200000000000000000e+01
7.442000000000000000e+04,1.399999999999999877e-04,-1.000000000000000082e-05,-1.000000000000000082e-05,4.000000000000000327e-05,3.399999999999999702e-04,-5.000000000000000104e-04,-3.299999999999999982e-04,1.000000000000000082e-05,6.000000000000000000e+00,2.200000000000000000e+01
7.442100000000000000e+04,1.399999999999999877e-04,-1.000000000000000082e-05,-1.000000000000000082e-05,4.000000000000000327e-05,3.399999999999999702e-04,-5.000000000000000104e-04,-3.299999999999999982e-04,1.000000000000000082e-05,6.000000000000000000e+00,2.200000000000000000e+01
7.442200000000000000e+04,1.399999999999999877e-04,-1.000000000000000082e-05,-1.000000000000000082e-05,4.000000000000000327e-05,3.399999999999999702e-04,-5.000000000000000104e-04,-3.299999999999999982e-04,1.000000000000000082e-05,6.000000000000000000e+00,2.200000000000000000e+01
7.442300000000000000e+04,1.399999999999999877e-04,-1.000000000000000082e-05,-1.000000000000000082e-05,4.000000000000000327e-05,3.399999999999999702e-04,-5.000000000000000104e-04,-3.299999999999999982e-04,1.000000000000000082e-05,6.000000000000000000e+00,2.200000000000000000e+01
7.442400000000000000e+04,0.000000000000000000e+00,2.999999999999999737e-05,2.999999999999999737e-05,-2.500000000000000052e-04,-1.069999999999999988e-03,-3.399999999999999702e-04,0.000000000000000000e+00,-1.499999999999999869e-04,6.000000000000000000e+00,2.200000000000000000e+01
7.442500000000000000e+04,0.000000000000000000e+00,2.999999999999999737e-05,2.999999999999999737e-05,-2.500000000000000052e-04,-1.069999999999999988e-03,-3.399999999999999702e-04,0.000000000000000000e+00,-1.499999999999999869e-04,6.000000000000000000e+00,2.200000000000000000e+01
7.442600000000000000e+04,-1.300000000000000157e-04,-1.000000000000000082e-05,5.000000000000000240e-05,3.399999999999999702e-04,5.800000000000000034e-04,2.700000000000000035e-04,2.100000000000000087e-04,8.000000000000000654e-05,6.000000000000000000e+00,2.200000000000000000e+01
7.442700000000000000e+04,-1.300000000000000157e-04,-1.000000000000000082e-05,5.000000000000000240e-05,3.399999999999999702e-04,5.800000000000000034e-04,2.700000000000000035e-04,2.100000000000000087e-04,8.000000000000000654e-05,6.000000000000000000e+00,2.200000000000000000e+01
7.442800000000000000e+04,-1.300000000000000157e-04,-1.000000000000000082e-05,5.000000000000000240e-05,3.399999999999999702e-04,5.800000000000000034e-04,2.700000000000000035e-04,2.100000000000000087e-04,8.000000000000000654e-05,6.000000000000000000e+00,2.200000000000000000e+01
7.442900000000000000e+04,-1.300000000000000157e-04,-1.000000000000000082e-05,5.000000000000000240e-05,3.399999999999999702e-04,5.800000000000000034e-04,2.700000000000000035e-04,2.100000000000000087e-04,8.000000000000000654e-05,6.000000000000000000e+00,2.200000000000000000e+01
7.443000000000000000e+04,-1.300000000000000157e-04,-1.000000000000000082e-05,5.000000000000000240e-05,3.399999999999999702e-04,5.800000000000000034e-04,2.700000000000000035e-04,2.100000000000000087e-04,8.000000000000000654e-05,6.000000000000000000e+00,2.200000000000000000e+01
7.443100000000000000e+04,-1.300000000000000157e-04,-1.000000000000000082e-05,5.000000000000000240e-05,3.399999999999999702e-04,5.800000000000000034e-04,2.700000000000000035e-04,2.100000000000000087e-04,8.000000000000000654e-05,6.000000000000000000e+00,2.200000000000000000e+01
7.443200000000000000e+04,-1.300000000000000157e-04,-1.000000000000000082e-05,5.000000000000000240e-05,3.399999999999999702e-04,5.800000000000000034e-04,2.700000000000000035e-04,2.100000000000000087e-04,8.000000000000000654e-05,6.000000000000000000e+00,2.200000000000000000e+01
7.443300000000000000e+04,-1.300000000000000157e-04,-1.000000000000000082e-05,5.000000000000000240e-05,3.399999999999999702e-04,5.800000000000000034e-04,2.700000000000000035e-04,2.100000000000000087e-04,8.000000000000000654e-05,6.000000000000000000e+00,2.200000000000000000e+01
7.443400000000000000e+04,-1.300000000000000157e-04,-1.000000000000000082e-05,5.000000000000000240e-05,3.399999999999999702e-04,5.800000000000000034e-04,2.700000000000000035e-04,2.100000000000000087e-04,8.000000000000000654e-05,6.000000000000000000e+00,2.200000000000000000e+01
7.443500000000000000e+04,-1.300000000000000157e-04,-1.000000000000000082e-05,5.000000000000000240e-05,3.399999999999999702e-04,5.800000000000000034e-04,2.700000000000000035e-04,2.100000000000000087e-04,8.000000000000000654e-05,6.000000000000000000e+00,2.200000000000000000e+01
7.443600000000000000e+04,-1.300000000000000157e-04,-1.000000000000000082e-05,5.000000000000000240e-05,3.399999999999999702e-04,5.800000000000000034e-04,2.700000000000000035e-04,2.100000000000000087e-04,8.000000000000000654e-05,6.000000000000000000e+00,2.200000000000000000e+01
7.443900000000000000e+04,-1.300000000000000157e-04,-1.000000000000000082e-05,5.000000000000000240e-05,3.399999999999999702e-04,5.800000000000000034e-04,2.700000000000000035e-04,2.100000000000000087e-04,8.000000000000000654e-05,6.000000000000000000e+00,2.200000000000000000e+01
7.444000000000000000e+04,-1.300000000000000157e-04,-1.000000000000000082e-05,5.000000000000000240e-05,3.399999999999999702e-04,5.800000000000000034e-04,2.700000000000000035e-04,2.100000000000000087e-04,8.000000000000000654e-05,6.000000000000000000e+00,2.200000000000000000e+01
7.444100000000000000e+04,-1.300000000000000157e-04,-1.000000000000000082e-05,5.000000000000000240e-05,3.399999999999999702e-04,5.800000000000000034e-04,2.700000000000000035e-04,2.100000000000000087e-04,8.000000000000000654e-05,6.000000000000000000e+00,2.200000000000000000e+01
7.444200000000000000e+04,-1.300000000000000157e-04,-1.000000000000000082e-05,5.000000000000000240e-05,3.399999999999999702e-04,5.800000000000000034e-04,2.700000000000000035e-04,2.100000000000000087e-04,8.000000000000000654e-05,6.000000000000000000e+00,2.200000000000000000e+01
7.444300000000000000e+04,-1.300000000000000157e-04,-1.000000000000000082e-05,5.000000000000000240e-05,3.399999999999999702e-04,5.800000000000000034e-04,2.700000000000000035e-04,2.100000000000000087e-04,8.000000000000000654e-05,6.000000000000000000e+00,2.200000000000000000e+01
7.444400000000000000e+04,-1.300000000000000157e-04,-1.000000000000000082e-05,5.000000000000000240e-05,3.399999999999999702e-04,5.800000000000000034e-04,2.700000000000000035e-04,2.100000000000000087e-04,8.000000000000000654e-05,6.000000000000000000e+00,2.200000000000000000e+01
7.444500000000000000e+04,-1.300000000000000157e-04,-1.000000000000000082e-05,5.000000000000000240e-05,3.399999999999999702e-04,5.800000000000000034e-04,2.700000000000000035e-04,2.100000000000000087e-04,8.000000000000000654e-05,6.000000000000000000e+00,2.200000000000000000e+01
7.444600000000000000e+04,-1.300000000000000157e-04,-1.000000000000000082e-05,5.000000000000000240e-05,3.399999999999999702e-04,5.800000000000000034e-04,2.700000000000000035e-04,2.100000000000000087e-04,8.000000000000000654e-05,6.000000000000000000e+00,2.200000000000000000e+01
7.444700000000000000e+04,6.999999999999999387e-05,2.999999999999999737e-05,-2.999999999999999737e-05,5.000000000000000240e-05,-1.000000000000000082e-05,-1.899999999999999834e-04,-2.600000000000000314e-04,9.000000000000000567e-05,6.000000000000000000e+00,2.200000000000000000e+01
7.444800000000000000e+04,-1.300000000000000157e-04,-5.999999999999999474e-05,-5.999999999999999474e-05,-1.499999999999999869e-04,-5.800000000000000034e-04,-2.200000000000000078e-04,1.000000000000000082e-05,-1.800000000000000113e-04,6.000000000000000000e+00,2.200000000000000000e+01
7.444900000000000000e+04,-1.300000000000000157e-04,-5.999999999999999474e-05,-5.999999999999999474e-05,-1.499999999999999869e-04,-5.800000000000000034e-04,-2.200000000000000078e-04,1.000000000000000082e-05,-1.800000000000000113e-04,6.000000000000000000e+00,2.200000000000000000e+01
7.445000000000000000e+04,-1.300000000000000157e-04,-5.999999999999999474e-05,-5.999999999999999474e-05,-1.499999999999999869e-04,-5.800000000000000034e-04,-2.200000000000000078e-04,1.000000000000000082e-05,-1.800000000000000113e-04,6.000000000000000000e+00,2.200000000000000000e+01
7.445100000000000000e+04,-1.300000000000000157e-04,-5.999999999999999474e-05,-5.999999999999999474e-05,-1.499999999999999869e-04,-5.800000000000000034e-04,-2.200000000000000078e-04,1.000000000000000082e-05,-1.800000000000000113e-04,6.000000000000000000e+00,2.200000000000000000e+01
7.445200000000000000e+04,-1.300000000000000157e-04,-5.999999999999999474e-05,-5.999999999999999474e-05,-1.499999999999999869e-04,-5.800000000000000034e-04,-2.200000000000000078e-04,1.000000000000000082e-05,-1.800000000000000113e-04,6.000000000000000000e+00,2.200000000000000000e+01
7.445300000000000000e+04,-1.300000000000000157e-04,-5.999999999999999474e-05,-5.999999999999999474e-05,-1.499999999999999869e-04,-5.800000000000000034e-04,-2.200000000000000078e-04,1.000000000000000082e-05,-1.800000000000000113e-04,6.000000000000000000e+00,2.200000000000000000e+01
7.445400000000000000e+04,-1.300000000000000157e-04,-5.999999999999999474e-05,-5.999999999999999474e-05,-1.499999999999999869e-04,-5.800000000000000034e-04,-2.200000000000000078e-04,1.000000000000000082e-05,-1.800000000000000113e-04,6.000000000000000000e+00,2.200000000000000000e+01
7.445500000000000000e+04,-1.300000000000000157e-04,-5.999999999999999474e-05,-5.999999999999999474e-05,-1.499999999999999869e-04,-5.800000000000000034e-04,-2.200000000000000078e-04,1.000000000000000082e-05,-1.800000000000000113e-04,6.000000000000000000e+00,2.200000000000000000e+01
7.445600000000000000e+04,-1.300000000000000157e-04,-5.999999999999999474e-05,-5.999999999999999474e-05,-1.499999999999999869e-04,-5.800000000000000034e-04,-2.200000000000000078e-04,1.000000000000000082e-05,-1.800000000000000113e-04,6.000000000000000000e+00,2.200000000000000000e+01
7.445700000000000000e+04,-1.300000000000000157e-04,-5.999999999999999474e-05,-5.999999999999999474e-05,-1.499999999999999869e-04,-5.800000000000000034e-04,-2.200000000000000078e-04,1.000000000000000082e-05,-1.800000000000000113e-04,6.000000000000000000e+00,2.200000000000000000e+01
7.445800000000000000e+04,-1.300000000000000157e-04,-5.999999999999999474e-05,-5.999999999999999474e-05,-1.499999999999999869e-04,-5.800000000000000034e-04,-2.200000000000000078e-04,1.000000000000000082e-05,-1.800000000000000113e-04,6.000000000000000000e+00,2.200000000000000000e+01
7.445900000000000000e+04,-1.300000000000000157e-04,-5.999999999999999474e-05,-5.999999999999999474e-05,-1.499999999999999869e-04,-5.800000000000000034e-04,-2.200000000000000078e-04,1.000000000000000082e-05,-1.800000000000000113e-04,6.000000000000000000e+00,2.200000000000000000e+01
7.446000000000000000e+04,1.699999999999999851e-04,1.000000000000000082e-05,2.999999999999999737e-05,1.199999999999999895e-04,4.899999999999999842e-04,-2.799999999999999755e-04,-2.000000000000000164e-05,4.400000000000000157e-04,6.000000000000000000e+00,2.200000000000000000e+01
7.446200000000000000e+04,1.699999999999999851e-04,1.000000000000000082e-05,2.999999999999999737e-05,1.199999999999999895e-04,4.899999999999999842e-04,-2.799999999999999755e-04,-2.000000000000000164e-05,4.400000000000000157e-04,6.000000000000000000e+00,2.200000000000000000e+01
7.446300000000000000e+04,1.699999999999999851e-04,1.000000000000000082e-05,2.999999999999999737e-05,1.199999999999999895e-04,4.899999999999999842e-04,-2.799999999999999755e-04,-2.000000000000000164e-05,4.400000000000000157e-04,6.000000000000000000e+00,2.200000000000000000e+01
7.446400000000000000e+04,1.699999999999999851e-04,1.000000000000000082e-05,2.999999999999999737e-05,1.199999999999999895e-04,4.899999999999999842e-04,-2.799999999999999755e-04,-2.000000000000000164e-05,4.400000000000000157e-04,6.000000000000000000e+00,2.200000000000000000e+01
7.446500000000000000e+04,1.699999999999999851e-04,1.000000000000000082e-05,2.999999999999999737e-05,1.199999999999999895e-04,4.899999999999999842e-04,-2.799999999999999755e-04,-2.000000000000000164e-05,4.400000000000000157e-04,6.000000000000000000e+00,2.200000000000000000e+01
7.446600000000000000e+04,1.699999999999999851e-04,1.000000000000000082e-05,2.999999999999999737e-05,1.199999999999999895e-04,4.899999999999999842e-04,-2.799999999999999755e-04,-2.000000000000000164e-05,4.400000000000000157e-04,6.000000000000000000e+00,2.200000000000000000e+01
7.446700000000000000e+04,1.699999999999999851e-04,1.000000000000000082e-05,2.999999999999999737e-05,1.199999999999999895e-04,4.899999999999999842e-04,-2.799999999999999755e-04,-2.000000000000000164e-05,4.400000000000000157e-04,6.000000000000000000e+00,2.200000000000000000e+01
7.446800000000000000e+04,1.699999999999999851e-04,1.000000000000000082e-05,2.999999999999999737e-05,1.199999999999999895e-04,4.899999999999999842e-04,-2.799999999999999755e-04,-2.000000000000000164e-05,4.400000000000000157e-04,6.000000000000000000e+00,2.200000000000000000e+01
7.446900000000000000e+04,2.999999999999999737e-04,-2.000000000000000164e-05,-5.999999999999999474e-05,-1.199999999999999895e-04,-3.099999999999999999e-04,-4.000000000000000192e-04,-1.300000000000000157e-04,3.099999999999999999e-04,6.000000000000000000e+00,2.200000000000000000e+01
7.447000000000000000e+04,2.999999999999999737e-04,-2.000000000000000164e-05,-5.999999999999999474e-05,-1.199999999999999895e-04,-3.099999999999999999e-04,-4.000000000000000192e-04,-1.300000000000000157e-04,3.099999999999999999e-04,6.000000000000000000e+00,2.200000000000000000e+01
7.447100000000000000e+04,2.999999999999999737e-04,-2.000000000000000164e-05,-5.999999999999999474e-05,-1.199999999999999895e-04,-3.099999999999999999e-04,-4.000000000000000192e-04,-1.300000000000000157e-04,3.099999999999999999e-04,6.000000000000000000e+00,2.200000000000000000e+01
7.447200000000000000e+04,2.999999999999999737e-04,-2.000000000000000164e-05,-5.999999999999999474e-05,-1.199999999999999895e-04,-3.099999999999999999e-04,-4.000000000000000192e-04,-1.300000000000000157e-04,3.099999999999999999e-04,6.000000000000000000e+00,2.200000000000000000e+01
7.447300000000000000e+04,2.999999999999999737e-04,-2.000000000000000164e-05,-5.999999999999999474e-05,-1.199999999999999895e-04,-3.099999999999999999e-04,-4.000000000000000192e-04,-1.300000000000000157e-04,3.099999999999999999e-04,6.000000000000000000e+00,2.200000000000000000e+01
7.447400000000000000e+04,2.999999999999999737e-04,-2.000000000000000164e-05,-5.999999999999999474e-05,-1.199999999999999895e-04,-3.099999999999999999e-04,-4.000000000000000192e-04,-1.300000000000000157e-04,3.099999999999999999e-04,6.000000000000000000e+00,2.200000000000000000e+01
7.447500000000000000e+04,2.999999999999999737e-04,-2.000000000000000164e-05,-5.999999999999999474e-05,-1.199999999999999895e-04,-3.099999999999999999e-04,-4.000000000000000192e-04,-1.300000000000000157e-04,3.099999999999999999e-04,6.000000000000000000e+00,2.200000000000000000e+01
7.447600000000000000e+04,2.999999999999999737e-04,-2.000000000000000164e-05,-5.999999999999999474e-05,-1.199999999999999895e-04,-3.099999999999999999e-04,-4.000000000000000192e-04,-1.300000000000000157e-04,3.099999999999999999e-04,6.000000000000000000e+00,2.200000000000000000e+01
7.447700000000000000e+04,2.999999999999999737e-04,-2.000000000000000164e-05,-5.999999999999999474e-05,-1.199999999999999895e-04,-3.099999999999999999e-04,-4.000000000000000192e-04,-1.300000000000000157e-04,3.099999999999999999e-04,6.000000000000000000e+00,2.200000000000000000e+01
7.447800000000000000e+04,2.999999999999999737e-04,-2.000000000000000164e-05,-5.999999999999999474e-05,-1.199999999999999895e-04,-3.099999999999999999e-04,-4.000000000000000192e-04,-1.300000000000000157e-04,3.099999999999999999e-04,6.000000000000000000e+00,2.200000000000000000e+01
7.447900000000000000e+04,2.999999999999999737e-04,-2.000000000000000164e-05,-5.999999999999999474e-05,-1.199999999999999895e-04,-3.099999999999999999e-04,-4.000000000000000192e-04,-1.300000000000000157e-04,3.099999999999999999e-04,6.000000000000000000e+00,2.200000000000000000e+01
7.448000000000000000e+04,2.999999999999999737e-04,-2.000000000000000164e-05,-5.999999999999999474e-05,-1.199999999999999895e-04,-3.099999999999999999e-04,-4.000000000000000192e-04,-1.300000000000000157e-04,3.099999999999999999e-04,6.000000000000000000e+00,2.200000000000000000e+01
7.448100000000000000e+04,2.999999999999999737e-04,-2.000000000000000164e-05,-5.999999999999999474e-05,-1.199999999999999895e-04,-3.099999999999999999e-04,-4.000000000000000192e-04,-1.300000000000000157e-04,3.099999999999999999e-04,6.000000000000000000e+00,2.200000000000000000e+01
7.448200000000000000e+04,2.999999999999999737e-04,-2.000000000000000164e-05,-5.999999999999999474e-05,-1.199999999999999895e-04,-3.099999999999999999e-04,-4.000000000000000192e-04,-1.300000000000000157e-04,3.099999999999999999e-04,6.000000000000000000e+00,2.200000000000000000e+01
7.448300000000000000e+04,2.999999999999999737e-04,-2.000000000000000164e-05,-5.999999999999999474e-05,-1.199999999999999895e-04,-3.099999999999999999e-04,-4.000000000000000192e-04,-1.300000000000000157e-04,3.099999999999999999e-04,6.000000000000000000e+00,2.200000000000000000e+01
7.448400000000000000e+04,-4.000000000000000327e-05,-4.000000000000000327e-05,-1.100000000000000039e-04,-3.600000000000000227e-04,-3.399999999999999702e-04,-2.799999999999999755e-04,-6.999999999999999387e-05,-6.999999999999999387e-05,6.000000000000000000e+00,2.200000000000000000e+01
7.448500000000000000e+04,-4.000000000000000327e-05,-4.000000000000000327e-05,-1.100000000000000039e-04,-3.600000000000000227e-04,-3.399999999999999702e-04,-2.799999999999999755e-04,-6.999999999999999387e-05,-6.999999999999999387e-05,6.000000000000000000e+00,2.200000000000000000e+01
7.448600000000000000e+04,2.200000000000000078e-04,2.999999999999999737e-05,2.000000000000000164e-05,-1.600000000000000131e-04,-2.600000000000000314e-04,-1.300000000000000157e-04,2.100000000000000087e-04,4.899999999999999842e-04,6.000000000000000000e+00,2.200000000000000000e+01
7.448900000000000000e+04,2.200000000000000078e-04,2.999999999999999737e-05,2.000000000000000164e-05,-1.600000000000000131e-04,-2.600000000000000314e-04,-1.300000000000000157e-04,2.100000000000000087e-04,4.899999999999999842e-04,6.000000000000000000e+00,2.200000000000000000e+01
7.449000000000000000e+04,2.200000000000000078e-04,2.999999999999999737e-05,2.000000000000000164e-05,-1.600000000000000131e-04,-2.600000000000000314e-04,-1.300000000000000157e-04,2.100000000000000087e-04,4.899999999999999842e-04,6.000000000000000000e+00,2.200000000000000000e+01
7.449100000000000000e+04,2.200000000000000078e-04,2.999999999999999737e-05,2.000000000000000164e-05,-1.600000000000000131e-04,-2.600000000000000314e-04,-1.300000000000000157e-04,2.100000000000000087e-04,4.899999999999999842e-04,6.000000000000000000e+00,2.200000000000000000e+01
7.449200000000000000e+04,2.200000000000000078e-04,2.999999999999999737e-05,2.000000000000000164e-05,-1.600000000000000131e-04,-2.600000000000000314e-04,-1.300000000000000157e-04,2.100000000000000087e-04,4.899999999999999842e-04,6.000000000000000000e+00,2.200000000000000000e+01
7.449300000000000000e+04,2.200000000000000078e-04,2.999999999999999737e-05,2.000000000000000164e-05,-1.600000000000000131e-04,-2.600000000000000314e-04,-1.300000000000000157e-04,2.100000000000000087e-04,4.899999999999999842e-04,6.000000000000000000e+00,2.200000000000000000e+01
7.449400000000000000e+04,2.200000000000000078e-04,2.999999999999999737e-05,2.000000000000000164e-05,-1.600000000000000131e-04,-2.600000000000000314e-04,-1.300000000000000157e-04,2.100000000000000087e-04,4.899999999999999842e-04,6.000000000000000000e+00,2.200000000000000000e+01
7.449500000000000000e+04,2.200000000000000078e-04,2.999999999999999737e-05,2.000000000000000164e-05,-1.600000000000000131e-04,-2.600000000000000314e-04,-1.300000000000000157e-04,2.100000000000000087e-04,4.899999999999999842e-04,6.000000000000000000e+00,2.200000000000000000e+01
7.449600000000000000e+04,2.200000000000000078e-04,2.999999999999999737e-05,2.000000000000000164e-05,-1.600000000000000131e-04,-2.600000000000000314e-04,-1.300000000000000157e-04,2.100000000000000087e-04,4.899999999999999842e-04,6.000000000000000000e+00,2.200000000000000000e+01
7.449700000000000000e+04,2.200000000000000078e-04,2.999999999999999737e-05,2.000000000000000164e-05,-1.600000000000000131e-04,-2.600000000000000314e-04,-1.300000000000000157e-04,2.100000000000000087e-04,4.899999999999999842e-04,6.000000000000000000e+00,2.200000000000000000e+01
7.449800000000000000e+04,2.200000000000000078e-04,2.999999999999999737e-05,2.000000000000000164e-05,-1.600000000000000131e-04,-2.600000000000000314e-04,-1.300000000000000157e-04,2.100000000000000087e-04,4.899999999999999842e-04,6.000000000000000000e+00,2.200000000000000000e+01
7.449900000000000000e+04,2.200000000000000078e-04,2.999999999999999737e-05,2.000000000000000164e-05,-1.600000000000000131e-04,-2.600000000000000314e-04,-1.300000000000000157e-04,2.100000000000000087e-04,4.899999999999999842e-04,6.000000000000000000e+00,2.200000000000000000e+01
7.450000000000000000e+04,2.200000000000000078e-04,2.999999999999999737e-05,2.000000000000000164e-05,-1.600000000000000131e-04,-2.600000000000000314e-04,-1.300000000000000157e-04,2.100000000000000087e-04,4.899999999999999842e-04,6.000000000000000000e+00,2.200000000000000000e+01
7.450100000000000000e+04,2.200000000000000078e-04,2.999999999999999737e-05,2.000000000000000164e-05,-1.600000000000000131e-04,-2.600000000000000314e-04,-1.300000000000000157e-04,2.100000000000000087e-04,4.899999999999999842e-04,6.000000000000000000e+00,2.200000000000000000e+01
7.450200000000000000e+04,2.200000000000000078e-04,2.999999999999999737e-05,2.000000000000000164e-05,-1.600000000000000131e-04,-2.600000000000000314e-04,-1.300000000000000157e-04,2.100000000000000087e-04,4.899999999999999842e-04,6.000000000000000000e+00,2.200000000000000000e+01
7.450300000000000000e+04,2.200000000000000078e-04,2.999999999999999737e-05,2.000000000000000164e-05,-1.600000000000000131e-04,-2.600000000000000314e-04,-1.300000000000000157e-04,2.100000000000000087e-04,4.899999999999999842e-04,6.000000000000000000e+00,2.200000000000000000e+01
7.450400000000000000e+04,2.200000000000000078e-04,2.999999999999999737e-05,2.000000000000000164e-05,-1.600000000000000131e-04,-2.600000000000000314e-04,-1.300000000000000157e-04,2.100000000000000087e-04,4.899999999999999842e-04,6.000000000000000000e+00,2.200000000000000000e+01
7.450500000000000000e+04,2.200000000000000078e-04,2.999999999999999737e-05,2.000000000000000164e-05,-1.600000000000000131e-04,-2.600000000000000314e-04,-1.300000000000000157e-04,2.100000000000000087e-04,4.899999999999999842e-04,6.000000000000000000e+00,2.200000000000000000e+01
7.450600000000000000e+04,2.200000000000000078e-04,2.999999999999999737e-05,2.000000000000000164e-05,-1.600000000000000131e-04,-2.600000000000000314e-04,-1.300000000000000157e-04,2.100000000000000087e-04,4.899999999999999842e-04,6.000000000000000000e+00,2.200000000000000000e+01
7.450700000000000000e+04,-1.000000000000000048e-04,-1.000000000000000082e-05,-2.000000000000000164e-05,-4.000000000000000327e-05,0.000000000000000000e+00,1.100000000000000039e-04,2.900000000000000017e-04,-1.699999999999999851e-04,6.000000000000000000e+00,2.200000000000000000e+01
7.450800000000000000e+04,-1.699999999999999851e-04,2.999999999999999737e-05,2.000000000000000164e-05,2.000000000000000164e-05,-5.900000000000000296e-04,5.999999999999999474e-05,-2.000000000000000096e-04,-2.700000000000000035e-04,6.000000000000000000e+00,2.200000000000000000e+01
7.450900000000000000e+04,-1.699999999999999851e-04,2.999999999999999737e-05,2.000000000000000164e-05,2.000000000000000164e-05,-5.900000000000000296e-04,5.999999999999999474e-05,-2.000000000000000096e-04,-2.700000000000000035e-04,6.000000000000000000e+00,2.200000000000000000e+01
7.451000000000000000e+04,-1.699999999999999851e-04,2.999999999999999737e-05,2.000000000000000164e-05,2.000000000000000164e-05,-5.900000000000000296e-04,5.999999999999999474e-05,-2.000000000000000096e-04,-2.700000000000000035e-04,6.000000000000000000e+00,2.200000000000000000e+01
7.451100000000000000e+04,-1.699999999999999851e-04,2.999999999999999737e-05,2.000000000000000164e-05,2.000000000000000164e-05,-5.900000000000000296e-04,5.999999999999999474e-05,-2.000000000000000096e-04,-2.700000000000000035e-04,6.000000000000000000e+00,2.200000000000000000e+01
7.451200000000000000e+04,-1.699999999999999851e-04,2.999999999999999737e-05,2.000000000000000164e-05,2.000000000000000164e-05,-5.900000000000000296e-04,5.999999999999999474e-05,-2.000000000000000096e-04,-2.700000000000000035e-04,6.000000000000000000e+00,2.200000000000000000e+01
7.451300000000000000e+04,-1.699999999999999851e-04,2.999999999999999737e-05,2.000000000000000164e-05,2.000000000000000164e-05,-5.900000000000000296e-04,5.999999999999999474e-05,-2.000000000000000096e-04,-2.700000000000000035e-04,6.000000000000000000e+00,2.200000000000000000e+01
7.451400000000000000e+04,-1.699999999999999851e-04,2.999999999999999737e-05,2.000000000000000164e-05,2.000000000000000164e-05,-5.900000000000000296e-04,5.999999999999999474e-05,-2.000000000000000096e-04,-2.700000000000000035e-04,6.000000000000000000e+00,2.200000000000000000e+01
7.451500000000000000e+04,-1.699999999999999851e-04,2.999999999999999737e-05,2.000000000000000164e-05,2.000000000000000164e-05,-5.900000000000000296e-04,5.999999999999999474e-05,-2.000000000000000096e-04,-2.700000000000000035e-04,6.000000000000000000e+00,2.200000000000000000e+01
7.451600000000000000e+04,-1.699999999999999851e-04,2.999999999999999737e-05,2.000000000000000164e-05,2.000000000000000164e-05,-5.900000000000000296e-04,5.999999999999999474e-05,-2.000000000000000096e-04,-2.700000000000000035e-04,6.000000000000000000e+00,2.200000000000000000e+01
7.451700000000000000e+04,-1.699999999999999851e-04,2.999999999999999737e-05,2.000000000000000164e-05,2.000000000000000164e-05,-5.900000000000000296e-04,5.999999999999999474e-05,-2.000000000000000096e-04,-2.700000000000000035e-04,6.000000000000000000e+00,2.200000000000000000e+01
7.451800000000000000e+04,-1.699999999999999851e-04,2.999999999999999737e-05,2.000000000000000164e-05,2.000000000000000164e-05,-5.900000000000000296e-04,5.999999999999999474e-05,-2.000000000000000096e-04,-2.700000000000000035e-04,6.000000000000000000e+00,2.200000000000000000e+01
7.451900000000000000e+04,-1.699999999999999851e-04,2.999999999999999737e-05,2.000000000000000164e-05,2.000000000000000164e-05,-5.900000000000000296e-04,5.999999999999999474e-05,-2.000000000000000096e-04,-2.700000000000000035e-04,6.000000000000000000e+00,2.200000000000000000e+01
7.452000000000000000e+04,-4.499999999999999877e-04,-1.000000000000000082e-05,5.999999999999999474e-05,3.899999999999999929e-04,8.300000000000001170e-04,5.400000000000000069e-04,-2.900000000000000017e-04,-6.499999999999999702e-04,6.000000000000000000e+00,2.200000000000000000e+01
7.452200000000000000e+04,-4.499999999999999877e-04,-1.000000000000000082e-05,5.999999999999999474e-05,3.899999999999999929e-04,8.300000000000001170e-04,5.400000000000000069e-04,-2.900000000000000017e-04,-6.499999999999999702e-04,6.000000000000000000e+00,2.200000000000000000e+01
7.452300000000000000e+04,-4.499999999999999877e-04,-1.000000000000000082e-05,5.999999999999999474e-05,3.899999999999999929e-04,8.300000000000001170e-04,5.400000000000000069e-04,-2.900000000000000017e-04,-6.499999999999999702e-04,6.000000000000000000e+00,2.200000000000000000e+01
7.452400000000000000e+04,-4.499999999999999877e-04,-1.000000000000000082e-05,5.999999999999999474e-05,3.899999999999999929e-04,8.300000000000001170e-04,5.400000000000000069e-04,-2.900000000000000017e-04,-6.499999999999999702e-04,6.000000000000000000e+00,2.200000000000000000e+01
7.452500000000000000e+04,-4.499999999999999877e-04,-1.000000000000000082e-05,5.999999999999999474e-05,3.899999999999999929e-04,8.300000000000001170e-04,5.400000000000000069e-04,-2.900000000000000017e-04,-6.499999999999999702e-04,6.000000000000000000e+00,2.200000000000000000e+01
7.452600000000000000e+04,-4.499999999999999877e-04,-1.000000000000000082e-05,5.999999999999999474e-05,3.899999999999999929e-04,8.300000000000001170e-04,5.400000000000000069e-04,-2.900000000000000017e-04,-6.499999999999999702e-04,6.000000000000000000e+00,2.200000000000000000e+01
7.452700000000000000e+04,-4.499999999999999877e-04,-1.000000000000000082e-05,5.999999999999999474e-05,3.899999999999999929e-04,8.300000000000001170e-04,5.400000000000000069e-04,-2.900000000000000017e-04,-6.499999999999999702e-04,6.000000000000000000e+00,2.200000000000000000e+01
7.452800000000000000e+04,-4.499999999999999877e-04,-1.000000000000000082e-05,5.999999999999999474e-05,3.899999999999999929e-04,8.300000000000001170e-04,5.400000000000000069e-04,-2.900000000000000017e-04,-6.499999999999999702e-04,6.000000000000000000e+00,2.200000000000000000e+01
7.452900000000000000e+04,-5.999999999999999474e-05,-2.999999999999999737e-05,-1.100000000000000039e-04,-4.099999999999999912e-04,-7.799999999999999859e-04,-3.600000000000000227e-04,0.000000000000000000e+00,-2.999999999999999737e-05,6.000000000000000000e+00,2.200000000000000000e+01
7.453000000000000000e+04,-5.999999999999999474e-05,-2.999999999999999737e-05,-1.100000000000000039e-04,-4.099999999999999912e-04,-7.799999999999999859e-04,-3.600000000000000227e-04,0.000000000000000000e+00,-2.999999999999999737e-05,6.000000000000000000e+00,2.200000000000000000e+01
7.453100000000000000e+04,-5.999999999999999474e-05,-2.999999999999999737e-05,-1.100000000000000039e-04,-4.099999999999999912e-04,-7.799999999999999859e-04,-3.600000000000000227e-04,0.000000000000000000e+00,-2.999999999999999737e-05,6.000000000000000000e+00,2.200000000000000000e+01
7.453200000000000000e+04,-5.999999999999999474e-05,-2.999999999999999737e-05,-1.100000000000000039e-04,-4.099999999999999912e-04,-7.799999999999999859e-04,-3.600000000000000227e-04,0.000000000000000000e+00,-2.999999999999999737e-05,6.000000000000000000e+00,2.200000000000000000e+01
7.453300000000000000e+04,-5.999999999999999474e-05,-2.999999999999999737e-05,-1.100000000000000039e-04,-4.099999999999999912e-04,-7.799999999999999859e-04,-3.600000000000000227e-04,0.000000000000000000e+00,-2.999999999999999737e-05,6.000000000000000000e+00,2.200000000000000000e+01
7.453400000000000000e+04,-5.999999999999999474e-05,-2.999999999999999737e-05,-1.100000000000000039e-04,-4.099999999999999912e-04,-7.799999999999999859e-04,-3.600000000000000227e-04,0.000000000000000000e+00,-2.999999999999999737e-05,6.000000000000000000e+00,2.200000000000000000e+01
7.453500000000000000e+04,-5.999999999999999474e-05,-2.999999999999999737e-05,-1.100000000000000039e-04,-4.099999999999999912e-04,-7.799999999999999859e-04,-3.600000000000000227e-04,0.000000000000000000e+00,-2.999999999999999737e-05,6.000000000000000000e+00,2.200000000000000000e+01
7.453600000000000000e+04,-5.999999999999999474e-05,-2.999999999999999737e-05,-1.100000000000000039e-04,-4.099999999999999912e-04,-7.799999999999999859e-04,-3.600000000000000227e-04,0.000000000000000000e+00,-2.999999999999999737e-05,6.000000000000000000e+00,2.200000000000000000e+01
7.453900000000000000e+04,-5.999999999999999474e-05,-2.999999999999999737e-05,-1.100000000000000039e-04,-4.099999999999999912e-04,-7.799999999999999859e-04,-3.600000000000000227e-04,0.000000000000000000e+00,-2.999999999999999737e-05,6.000000000000000000e+00,2.200000000000000000e+01
7.454000000000000000e+04,-5.999999999999999474e-05,-2.999999999999999737e-05,-1.100000000000000039e-04,-4.099999999999999912e-04,-7.799999999999999859e-04,-3.600000000000000227e-04,0.000000000000000000e+00,-2.999999999999999737e-05,6.000000000000000000e+00,2.200000000000000000e+01
7.454100000000000000e+04,-5.999999999999999474e-05,-2.999999999999999737e-05,-1.100000000000000039e-04,-4.099999999999999912e-04,-7.799999999999999859e-04,-3.600000000000000227e-04,0.000000000000000000e+00,-2.999999999999999737e-05,6.000000000000000000e+00,2.200000000000000000e+01
7.454200000000000000e+04,-5.999999999999999474e-05,-2.999999999999999737e-05,-1.100000000000000039e-04,-4.099999999999999912e-04,-7.799999999999999859e-04,-3.600000000000000227e-04,0.000000000000000000e+00,-2.999999999999999737e-05,6.000000000000000000e+00,2.200000000000000000e+01
7.454300000000000000e+04,-5.999999999999999474e-05,-2.999999999999999737e-05,-1.100000000000000039e-04,-4.099999999999999912e-04,-7.799999999999999859e-04,-3.600000000000000227e-04,0.000000000000000000e+00,-2.999999999999999737e-05,6.000000000000000000e+00,2.200000000000000000e+01
7.454400000000000000e+04,1.499999999999999869e-04,-5.000000000000000240e-05,-9.000000000000000567e-05,-3.399999999999999702e-04,-3.799999999999999667e-04,-1.399999999999999877e-04,-1.800000000000000113e-04,3.299999999999999982e-04,6.000000000000000000e+00,2.200000000000000000e+01
7.454500000000000000e+04,1.499999999999999869e-04,-5.000000000000000240e-05,-9.000000000000000567e-05,-3.399999999999999702e-04,-3.799999999999999667e-04,-1.399999999999999877e-04,-1.800000000000000113e-04,3.299999999999999982e-04,6.000000000000000000e+00,2.200000000000000000e+01
7.454600000000000000e+04,-4.000000000000000327e-05,2.000000000000000164e-05,6.999999999999999387e-05,2.700000000000000035e-04,5.599999999999999509e-04,0.000000000000000000e+00,1.499999999999999869e-04,-5.999999999999999474e-05,6.000000000000000000e+00,2.200000000000000000e+01
7.454700000000000000e+04,-4.000000000000000327e-05,2.000000000000000164e-05,6.999999999999999387e-05,2.700000000000000035e-04,5.599999999999999509e-04,0.000000000000000000e+00,1.499999999999999869e-04,-5.999999999999999474e-05,6.000000000000000000e+00,2.200000000000000000e+01
7.454800000000000000e+04,-4.000000000000000327e-05,2.000000000000000164e-05,6.999999999999999387e-05,2.700000000000000035e-04,5.599999999999999509e-04,0.000000000000000000e+00,1.499999999999999869e-04,-5.999999999999999474e-05,6.000000000000000000e+00,2.200000000000000000e+01
7.454900000000000000e+04,-4.000000000000000327e-05,2.000000000000000164e-05,6.999999999999999387e-05,2.700000000000000035e-04,5.599999999999999509e-04,0.000000000000000000e+00,1.499999999999999869e-04,-5.999999999999999474e-05,6.000000000000000000e+00,2.200000000000000000e+01
7.455000000000000000e+04,-4.000000000000000327e-05,2.000000000000000164e-05,6.999999999999999387e-05,2.700000000000000035e-04,5.599999999999999509e-04,0.000000000000000000e+00,1.499999999999999869e-04,-5.999999999999999474e-05,6.000000000000000000e+00,2.200000000000000000e+01
7.455100000000000000e+04,-4.000000000000000327e-05,2.000000000000000164e-05,6.999999999999999387e-05,2.700000000000000035e-04,5.599999999999999509e-04,0.000000000000000000e+00,1.499999999999999869e-04,-5.999999999999999474e-05,6.000000000000000000e+00,2.200000000000000000e+01
7.455200000000000000e+04,-4.000000000000000327e-05,2.000000000000000164e-05,6.999999999999999387e-05,2.700000000000000035e-04,5.599999999999999509e-04,0.000000000000000000e+00,1.499999999999999869e-04,-5.999999999999999474e-05,6.000000000000000000e+00,2.200000000000000000e+01
7.455300000000000000e+04,-4.000000000000000327e-05,2.000000000000000164e-05,6.999999999999999387e-05,2.700000000000000035e-04,5.599999999999999509e-04,0.000000000000000000e+00,1.499999999999999869e-04,-5.999999999999999474e-05,6.000000000000000000e+00,2.200000000000000000e+01
7.455400000000000000e+04,-4.000000000000000327e-05,2.000000000000000164e-05,6.999999999999999387e-05,2.700000000000000035e-04,5.599999999999999509e-04,0.000000000000000000e+00,1.499999999999999869e-04,-5.999999999999999474e-05,6.000000000000000000e+00,2.200000000000000000e+01
7.455500000000000000e+04,-4.000000000000000327e-05,2.000000000000000164e-05,6.999999999999999387e-05,2.700000000000000035e-04,5.599999999999999509e-04,0.000000000000000000e+00,1.499999999999999869e-04,-5.999999999999999474e-05,6.000000000000000000e+00,2.200000000000000000e+01
7.455600000000000000e+04,-4.000000000000000327e-05,2.000000000000000164e-05,6.999999999999999387e-05,2.700000000000000035e-04,5.599999999999999509e-04,0.000000000000000000e+00,1.499999999999999869e-04,-5.999999999999999474e-05,6.000000000000000000e+00,2.200000000000000000e+01
7.455700000000000000e+04,-4.000000000000000327e-05,2.000000000000000164e-05,6.999999999999999387e-05,2.700000000000000035e-04,5.599999999999999509e-04,0.000000000000000000e+00,1.499999999999999869e-04,-5.999999999999999474e-05,6.000000000000000000e+00,2.200000000000000000e+01
7.455800000000000000e+04,-4.000000000000000327e-05,2.000000000000000164e-05,6.999999999999999387e-05,2.700000000000000035e-04,5.599999999999999509e-04,0.000000000000000000e+00,1.499999999999999869e-04,-5.999999999999999474e-05,6.000000000000000000e+00,2.200000000000000000e+01
7.455900000000000000e+04,-4.000000000000000327e-05,2.000000000000000164e-05,6.999999999999999387e-05,2.700000000000000035e-04,5.599999999999999509e-04,0.000000000000000000e+00,1.499999999999999869e-04,-5.999999999999999474e-05,6.000000000000000000e+00,2.200000000000000000e+01
7.456000000000000000e+04,-4.000000000000000327e-05,2.000000000000000164e-05,6.999999999999999387e-05,2.700000000000000035e-04,5.599999999999999509e-04,0.000000000000000000e+00,1.499999999999999869e-04,-5.999999999999999474e-05,6.000000000000000000e+00,2.200000000000000000e+01
7.456100000000000000e+04,-4.000000000000000327e-05,2.000000000000000164e-05,6.999999999999999387e-05,2.700000000000000035e-04,5.599999999999999509e-04,0.000000000000000000e+00,1.499999999999999869e-04,-5.999999999999999474e-05,6.000000000000000000e+00,2.200000000000000000e+01
7.456200000000000000e+04,-4.000000000000000327e-05,2.000000000000000164e-05,6.999999999999999387e-05,2.700000000000000035e-04,5.599999999999999509e-04,0.000000000000000000e+00,1.499999999999999869e-04,-5.999999999999999474e-05,6.000000000000000000e+00,2.200000000000000000e+01
7.456300000000000000e+04,-4.000000000000000327e-05,2.000000000000000164e-05,6.999999999999999387e-05,2.700000000000000035e-04,5.599999999999999509e-04,0.000000000000000000e+00,1.499999999999999869e-04,-5.999999999999999474e-05,6.000000000000000000e+00,2.200000000000000000e+01
7.456400000000000000e+04,-4.000000000000000327e-05,2.000000000000000164e-05,6.999999999999999387e-05,2.700000000000000035e-04,5.599999999999999509e-04,0.000000000000000000e+00,1.499999999999999869e-04,-5.999999999999999474e-05,6.000000000000000000e+00,2.200000000000000000e+01
7.456500000000000000e+04,-4.000000000000000327e-05,2.000000000000000164e-05,6.999999999999999387e-05,2.700000000000000035e-04,5.599999999999999509e-04,0.000000000000000000e+00,1.499999999999999869e-04,-5.999999999999999474e-05,6.000000000000000000e+00,2.200000000000000000e+01
7.456600000000000000e+04,-4.000000000000000327e-05,2.000000000000000164e-05,6.999999999999999387e-05,2.700000000000000035e-04,5.599999999999999509e-04,0.000000000000000000e+00,1.499999999999999869e-04,-5.999999999999999474e-05,6.000000000000000000e+00,2.200000000000000000e+01
7.456700000000000000e+04,-1.300000000000000157e-04,-1.199999999999999895e-04,-8.000000000000000654e-05,-2.000000000000000096e-04,2.299999999999999799e-04,2.100000000000000087e-04,2.700000000000000035e-04,-1.600000000000000131e-04,6.000000000000000000e+00,2.200000000000000000e+01
7.456800000000000000e+04,1.300000000000000157e-04,5.000000000000000240e-05,4.000000000000000327e-05,-2.799999999999999755e-04,-6.300000000000000261e-04,-6.400000000000000524e-04,1.000000000000000048e-04,1.199999999999999895e-04,6.000000000000000000e+00,2.200000000000000000e+01
7.456900000000000000e+04,1.300000000000000157e-04,5.000000000000000240e-05,4.000000000000000327e-05,-2.799999999999999755e-04,-6.300000000000000261e-04,-6.400000000000000524e-04,1.000000000000000048e-04,1.199999999999999895e-04,6.000000000000000000e+00,2.200000000000000000e+01
7.457000000000000000e+04,1.300000000000000157e-04,5.000000000000000240e-05,4.000000000000000327e-05,-2.799999999999999755e-04,-6.300000000000000261e-04,-6.400000000000000524e-04,1.000000000000000048e-04,1.199999999999999895e-04,6.000000000000000000e+00,2.200000000000000000e+01
7.457100000000000000e+04,1.300000000000000157e-04,5.000000000000000240e-05,4.000000000000000327e-05,-2.799999999999999755e-04,-6.300000000000000261e-04,-6.400000000000000524e-04,1.000000000000000048e-04,1.199999999999999895e-04,6.000000000000000000e+00,2.200000000000000000e+01
7.457200000000000000e+04,1.300000000000000157e-04,5.000000000000000240e-05,4.000000000000000327e-05,-2.799999999999999755e-04,-6.300000000000000261e-04,-6.400000000000000524e-04,1.000000000000000048e-04,1.199999999999999895e-04,6.000000000000000000e+00,2.200000000000000000e+01
7.457300000000000000e+04,1.300000000000000157e-04,5.000000000000000240e-05,4.000000000000000327e-05,-2.799999999999999755e-04,-6.300000000000000261e-04,-6.400000000000000524e-04,1.000000000000000048e-04,1.199999999999999895e-04,6.000000000000000000e+00,2.200000000000000000e+01
7.457400000000000000e+04,1.300000000000000157e-04,5.000000000000000240e-05,4.000000000000000327e-05,-2.799999999999999755e-04,-6.300000000000000261e-04,-6.400000000000000524e-04,1.000000000000000048e-04,1.199999999999999895e-04,6.000000000000000000e+00,2.200000000000000000e+01
7.457500000000000000e+04,1.300000000000000157e-04,5.000000000000000240e-05,4.000000000000000327e-05,-2.799999999999999755e-04,-6.300000000000000261e-04,-6.400000000000000524e-04,1.000000000000000048e-04,1.199999999999999895e-04,6.000000000000000000e+00,2.200000000000000000e+01
7.457600000000000000e+04,1.300000000000000157e-04,5.000000000000000240e-05,4.000000000000000327e-05,-2.799999999999999755e-04,-6.300000000000000261e-04,-6.400000000000000524e-04,1.000000000000000048e-04,1.199999999999999895e-04,6.000000000000000000e+00,2.200000000000000000e+01
7.457700000000000000e+04,1.300000000000000157e-04,5.000000000000000240e-05,4.000000000000000327e-05,-2.799999999999999755e-04,-6.300000000000000261e-04,-6.400000000000000524e-04,1.000000000000000048e-04,1.199999999999999895e-04,6.000000000000000000e+00,2.200000000000000000e+01
7.457800000000000000e+04,1.300000000000000157e-04,5.000000000000000240e-05,4.000000000000000327e-05,-2.799999999999999755e-04,-6.300000000000000261e-04,-6.400000000000000524e-04,1.000000000000000048e-04,1.199999999999999895e-04,6.000000000000000000e+00,2.200000000000000000e+01
7.457900000000000000e+04,1.300000000000000157e-04,5.000000000000000240e-05,4.000000000000000327e-05,-2.799999999999999755e-04,-6.300000000000000261e-04,-6.400000000000000524e-04,1.000000000000000048e-04,1.199999999999999895e-04,6.000000000000000000e+00,2.200000000000000000e+01
7.458000000000000000e+04,1.100000000000000039e-04,4.000000000000000327e-05,0.000000000000000000e+00,-5.000000000000000240e-05,-1.699999999999999851e-04,-1.000000000000000082e-05,-1.699999999999999851e-04,-1.000000000000000048e-04,6.000000000000000000e+00,2.200000000000000000e+01
7.458100000000000000e+04,1.100000000000000039e-04,4.000000000000000327e-05,0.000000000000000000e+00,-5.000000000000000240e-05,-1.699999999999999851e-04,-1.000000000000000082e-05,-1.699999999999999851e-04,-1.000000000000000048e-04,6.000000000000000000e+00,2.200000000000000000e+01
7.458200000000000000e+04,1.100000000000000039e-04,4.000000000000000327e-05,0.000000000000000000e+00,-5.000000000000000240e-05,-1.699999999999999851e-04,-1.000000000000000082e-05,-1.699999999999999851e-04,-1.000000000000000048e-04,6.000000000000000000e+00,2.200000000000000000e+01
