2.829000000000000000e+04,5.000000000000000240e-05,2.999999999999999737e-05,2.999999999999999737e-05,1.000000000000000048e-04,2.299999999999999799e-04,5.500000000000000331e-04,2.399999999999999790e-04,2.200000000000000078e-04,6.000000000000000000e+00,1.000000000000000000e+01
2.829100000000000000e+04,0.000000000000000000e+00,-1.000000000000000082e-05,0.000000000000000000e+00,9.000000000000000567e-05,2.399999999999999790e-04,5.999999999999999474e-05,-2.000000000000000164e-05,1.000000000000000082e-05,6.000000000000000000e+00,1.000000000000000000e+01
2.829200000000000000e+04,-8.000000000000000654e-05,-4.000000000000000327e-05,-1.000000000000000082e-05,0.000000000000000000e+00,-1.199999999999999895e-04,-4.099999999999999912e-04,6.999999999999999387e-05,3.399999999999999702e-04,6.000000000000000000e+00,1.000000000000000000e+01
2.829300000000000000e+04,-8.000000000000000654e-05,-4.000000000000000327e-05,-1.000000000000000082e-05,0.000000000000000000e+00,-1.199999999999999895e-04,-4.099999999999999912e-04,6.999999999999999387e-05,3.399999999999999702e-04,6.000000000000000000e+00,1.000000000000000000e+01
2.829400000000000000e+04,-8.000000000000000654e-05,-4.000000000000000327e-05,-1.000000000000000082e-05,0.000000000000000000e+00,-1.199999999999999895e-04,-4.099999999999999912e-04,6.999999999999999387e-05,3.399999999999999702e-04,6.000000000000000000e+00,1.000000000000000000e+01
2.829500000000000000e+04,-8.000000000000000654e-05,-4.000000000000000327e-05,-1.000000000000000082e-05,0.000000000000000000e+00,-1.199999999999999895e-04,-4.099999999999999912e-04,6.999999999999999387e-05,3.399999999999999702e-04,6.000000000000000000e+00,1.000000000000000000e+01
2.829600000000000000e+04,-8.000000000000000654e-05,-4.000000000000000327e-05,-1.000000000000000082e-05,0.000000000000000000e+00,-1.199999999999999895e-04,-4.099999999999999912e-04,6.999999999999999387e-05,3.399999999999999702e-04,6.000000000000000000e+00,1.000000000000000000e+01
2.829700000000000000e+04,-8.000000000000000654e-05,-4.000000000000000327e-05,-1.000000000000000082e-05,0.000000000000000000e+00,-1.199999999999999895e-04,-4.099999999999999912e-04,6.999999999999999387e-05,3.399999999999999702e-04,6.000000000000000000e+00,1.000000000000000000e+01
2.829800000000000000e+04,-8.000000000000000654e-05,-4.000000000000000327e-05,-1.000000000000000082e-05,0.000000000000000000e+00,-1.199999999999999895e-04,-4.099999999999999912e-04,6.999999999999999387e-05,3.399999999999999702e-04,6.000000000000000000e+00,1.000000000000000000e+01
2.829900000000000000e+04,-8.000000000000000654e-05,-4.000000000000000327e-05,-1.000000000000000082e-05,0.000000000000000000e+00,-1.199999999999999895e-04,-4.099999999999999912e-04,6.999999999999999387e-05,3.399999999999999702e-04,6.000000000000000000e+00,1.000000000000000000e+01
2.830000000000000000e+04,-8.000000000000000654e-05,-4.000000000000000327e-05,-1.000000000000000082e-05,0.000000000000000000e+00,-1.199999999999999895e-04,-4.099999999999999912e-04,6.999999999999999387e-05,3.399999999999999702e-04,6.000000000000000000e+00,1.000000000000000000e+01
2.830100000000000000e+04,-8.000000000000000654e-05,-4.000000000000000327e-05,-1.000000000000000082e-05,0.000000000000000000e+00,-1.199999999999999895e-04,-4.099999999999999912e-04,6.999999999999999387e-05,3.399999999999999702e-04,6.000000000000000000e+00,1.000000000000000000e+01
2.830200000000000000e+04,-8.000000000000000654e-05,-4.000000000000000327e-05,-1.000000000000000082e-05,0.000000000000000000e+00,-1.199999999999999895e-04,-4.099999999999999912e-04,6.999999999999999387e-05,3.399999999999999702e-04,6.000000000000000000e+00,1.000000000000000000e+01
2.830300000000000000e+04,-8.000000000000000654e-05,-4.000000000000000327e-05,-1.000000000000000082e-05,0.000000000000000000e+00,-1.199999999999999895e-04,-4.099999999999999912e-04,6.999999999999999387e-05,3.399999999999999702e-04,6.000000000000000000e+00,1.000000000000000000e+01
2.830400000000000000e+04,-8.000000000000000654e-05,-4.000000000000000327e-05,-1.000000000000000082e-05,0.000000000000000000e+00,-1.199999999999999895e-04,-4.099999999999999912e-04,6.999999999999999387e-05,3.399999999999999702e-04,6.000000000000000000e+00,1.000000000000000000e+01
2.830500000000000000e+04,-8.000000000000000654e-05,-4.000000000000000327e-05,-1.000000000000000082e-05,0.000000000000000000e+00,-1.199999999999999895e-04,-4.099999999999999912e-04,6.999999999999999387e-05,3.399999999999999702e-04,6.000000000000000000e+00,1.000000000000000000e+01
2.830600000000000000e+04,-8.000000000000000654e-05,-4.000000000000000327e-05,-1.000000000000000082e-05,0.000000000000000000e+00,-1.199999999999999895e-04,-4.099999999999999912e-04,6.999999999999999387e-05,3.399999999999999702e-04,6.000000000000000000e+00,1.000000000000000000e+01
2.830700000000000000e+04,-8.000000000000000654e-05,-4.000000000000000327e-05,-1.000000000000000082e-05,0.000000000000000000e+00,-1.199999999999999895e-04,-4.099999999999999912e-04,6.999999999999999387e-05,3.399999999999999702e-04,6.000000000000000000e+00,1.000000000000000000e+01
2.830800000000000000e+04,-8.000000000000000654e-05,-4.000000000000000327e-05,-1.000000000000000082e-05,0.000000000000000000e+00,-1.199999999999999895e-04,-4.099999999999999912e-04,6.999999999999999387e-05,3.399999999999999702e-04,6.000000000000000000e+00,1.000000000000000000e+01
2.830900000000000000e+04,-8.000000000000000654e-05,-4.000000000000000327e-05,-1.000000000000000082e-05,0.000000000000000000e+00,-1.199999999999999895e-04,-4.099999999999999912e-04,6.999999999999999387e-05,3.399999999999999702e-04,6.000000000000000000e+00,1.000000000000000000e+01
2.831000000000000000e+04,-8.000000000000000654e-05,-4.000000000000000327e-05,-1.000000000000000082e-05,0.000000000000000000e+00,-1.199999999999999895e-04,-4.099999999999999912e-04,6.999999999999999387e-05,3.399999999999999702e-04,6.000000000000000000e+00,1.000000000000000000e+01
2.831100000000000000e+04,-8.000000000000000654e-05,-4.000000000000000327e-05,-1.000000000000000082e-05,0.000000000000000000e+00,-1.199999999999999895e-04,-4.099999999999999912e-04,6.999999999999999387e-05,3.399999999999999702e-04,6.000000000000000000e+00,1.000000000000000000e+01
2.831200000000000000e+04,-9.000000000000000567e-05,-5.999999999999999474e-05,-5.000000000000000240e-05,-2.500000000000000052e-04,-2.500000000000000052e-04,-5.500000000000000331e-04,-1.699999999999999851e-04,1.800000000000000113e-04,6.000000000000000000e+00,1.000000000000000000e+01
2.831300000000000000e+04,2.000000000000000164e-05,5.999999999999999474e-05,6.999999999999999387e-05,1.600000000000000131e-04,5.299999999999999807e-04,2.000000000000000096e-04,1.699999999999999851e-04,-8.400000000000000348e-04,6.000000000000000000e+00,1.000000000000000000e+01
2.831400000000000000e+04,1.000000000000000082e-05,-2.999999999999999737e-05,-4.000000000000000327e-05,-1.100000000000000039e-04,-3.200000000000000262e-04,1.100000000000000039e-04,1.000000000000000082e-05,8.000000000000000654e-05,6.000000000000000000e+00,1.000000000000000000e+01
2.831500000000000000e+04,1.000000000000000082e-05,-2.999999999999999737e-05,-4.000000000000000327e-05,-1.100000000000000039e-04,-3.200000000000000262e-04,1.100000000000000039e-04,1.000000000000000082e-05,8.000000000000000654e-05,6.000000000000000000e+00,1.000000000000000000e+01
2.831600000000000000e+04,1.000000000000000082e-05,-2.999999999999999737e-05,-4.000000000000000327e-05,-1.100000000000000039e-04,-3.200000000000000262e-04,1.100000000000000039e-04,1.000000000000000082e-05,8.000000000000000654e-05,6.000000000000000000e+00,1.000000000000000000e+01
2.831700000000000000e+04,1.000000000000000082e-05,-2.999999999999999737e-05,-4.000000000000000327e-05,-1.100000000000000039e-04,-3.200000000000000262e-04,1.100000000000000039e-04,1.000000000000000082e-05,8.000000000000000654e-05,6.000000000000000000e+00,1.000000000000000000e+01
2.831800000000000000e+04,1.000000000000000082e-05,-2.999999999999999737e-05,-4.000000000000000327e-05,-1.100000000000000039e-04,-3.200000000000000262e-04,1.100000000000000039e-04,1.000000000000000082e-05,8.000000000000000654e-05,6.000000000000000000e+00,1.000000000000000000e+01
2.831900000000000000e+04,1.000000000000000082e-05,-2.999999999999999737e-05,-4.000000000000000327e-05,-1.100000000000000039e-04,-3.200000000000000262e-04,1.100000000000000039e-04,1.000000000000000082e-05,8.000000000000000654e-05,6.000000000000000000e+00,1.000000000000000000e+01
2.832000000000000000e+04,1.000000000000000082e-05,-2.999999999999999737e-05,-4.000000000000000327e-05,-1.100000000000000039e-04,-3.200000000000000262e-04,1.100000000000000039e-04,1.000000000000000082e-05,8.000000000000000654e-05,6.000000000000000000e+00,1.000000000000000000e+01
2.832100000000000000e+04,1.000000000000000082e-05,-2.999999999999999737e-05,-4.000000000000000327e-05,-1.100000000000000039e-04,-3.200000000000000262e-04,1.100000000000000039e-04,1.000000000000000082e-05,8.000000000000000654e-05,6.000000000000000000e+00,1.000000000000000000e+01
2.832200000000000000e+04,1.000000000000000082e-05,-2.999999999999999737e-05,-4.000000000000000327e-05,-1.100000000000000039e-04,-3.200000000000000262e-04,1.100000000000000039e-04,1.000000000000000082e-05,8.000000000000000654e-05,6.000000000000000000e+00,1.000000000000000000e+01
2.832300000000000000e+04,1.000000000000000082e-05,-2.999999999999999737e-05,-4.000000000000000327e-05,-1.100000000000000039e-04,-3.200000000000000262e-04,1.100000000000000039e-04,1.000000000000000082e-05,8.000000000000000654e-05,6.000000000000000000e+00,1.000000000000000000e+01
2.832400000000000000e+04,1.000000000000000082e-05,-2.999999999999999737e-05,-4.000000000000000327e-05,-1.100000000000000039e-04,-3.200000000000000262e-04,1.100000000000000039e-04,1.000000000000000082e-05,8.000000000000000654e-05,6.000000000000000000e+00,1.000000000000000000e+01
2.832500000000000000e+04,1.000000000000000082e-05,-2.999999999999999737e-05,-4.000000000000000327e-05,-1.100000000000000039e-04,-3.200000000000000262e-04,1.100000000000000039e-04,1.000000000000000082e-05,8.000000000000000654e-05,6.000000000000000000e+00,1.000000000000000000e+01
2.832600000000000000e+04,1.000000000000000082e-05,-2.999999999999999737e-05,-4.000000000000000327e-05,-1.100000000000000039e-04,-3.200000000000000262e-04,1.100000000000000039e-04,1.000000000000000082e-05,8.000000000000000654e-05,6.000000000000000000e+00,1.000000000000000000e+01
2.832700000000000000e+04,1.000000000000000082e-05,-2.999999999999999737e-05,-4.000000000000000327e-05,-1.100000000000000039e-04,-3.200000000000000262e-04,1.100000000000000039e-04,1.000000000000000082e-05,8.000000000000000654e-05,6.000000000000000000e+00,1.000000000000000000e+01
2.832800000000000000e+04,1.000000000000000082e-05,-2.999999999999999737e-05,-4.000000000000000327e-05,-1.100000000000000039e-04,-3.200000000000000262e-04,1.100000000000000039e-04,1.000000000000000082e-05,8.000000000000000654e-05,6.000000000000000000e+00,1.000000000000000000e+01
2.832900000000000000e+04,1.000000000000000082e-05,-2.999999999999999737e-05,-4.000000000000000327e-05,-1.100000000000000039e-04,-3.200000000000000262e-04,1.100000000000000039e-04,1.000000000000000082e-05,8.000000000000000654e-05,6.000000000000000000e+00,1.000000000000000000e+01
2.833000000000000000e+04,1.000000000000000082e-05,-2.999999999999999737e-05,-4.000000000000000327e-05,-1.100000000000000039e-04,-3.200000000000000262e-04,1.100000000000000039e-04,1.000000000000000082e-05,8.000000000000000654e-05,6.000000000000000000e+00,1.000000000000000000e+01
2.833100000000000000e+04,1.000000000000000082e-05,-2.999999999999999737e-05,-4.000000000000000327e-05,-1.100000000000000039e-04,-3.200000000000000262e-04,1.100000000000000039e-04,1.000000000000000082e-05,8.000000000000000654e-05,6.000000000000000000e+00,1.000000000000000000e+01
2.833200000000000000e+04,1.000000000000000082e-05,-2.999999999999999737e-05,-4.000000000000000327e-05,-1.100000000000000039e-04,-3.200000000000000262e-04,1.100000000000000039e-04,1.000000000000000082e-05,8.000000000000000654e-05,6.000000000000000000e+00,1.000000000000000000e+01
2.833300000000000000e+04,1.000000000000000082e-05,-2.999999999999999737e-05,-4.000000000000000327e-05,-1.100000000000000039e-04,-3.200000000000000262e-04,1.100000000000000039e-04,1.000000000000000082e-05,8.000000000000000654e-05,6.000000000000000000e+00,1.000000000000000000e+01
2.833400000000000000e+04,-4.000000000000000327e-05,-5.000000000000000240e-05,-5.999999999999999474e-05,-2.399999999999999790e-04,-4.200000000000000174e-04,-9.199999999999999194e-04,2.000000000000000164e-05,8.000000000000000654e-05,6.000000000000000000e+00,1.000000000000000000e+01
2.833500000000000000e+04,2.000000000000000164e-05,-2.000000000000000164e-05,-5.000000000000000240e-05,2.000000000000000164e-05,-2.200000000000000078e-04,2.399999999999999790e-04,2.500000000000000052e-04,5.999999999999999474e-04,6.000000000000000000e+00,1.000000000000000000e+01
2.833600000000000000e+04,2.000000000000000164e-05,-2.000000000000000164e-05,-5.000000000000000240e-05,2.000000000000000164e-05,-2.200000000000000078e-04,2.399999999999999790e-04,2.500000000000000052e-04,5.999999999999999474e-04,6.000000000000000000e+00,1.000000000000000000e+01
2.833900000000000000e+04,2.999999999999999737e-05,-5.000000000000000240e-05,-6.999999999999999387e-05,-2.100000000000000087e-04,-6.400000000000000524e-04,-5.400000000000000069e-04,-1.499999999999999869e-04,1.399999999999999877e-04,6.000000000000000000e+00,1.000000000000000000e+01
2.834000000000000000e+04,2.999999999999999737e-05,-5.000000000000000240e-05,-6.999999999999999387e-05,-2.100000000000000087e-04,-6.400000000000000524e-04,-5.400000000000000069e-04,-1.499999999999999869e-04,1.399999999999999877e-04,6.000000000000000000e+00,1.000000000000000000e+01
2.834100000000000000e+04,2.999999999999999737e-05,-5.000000000000000240e-05,-6.999999999999999387e-05,-2.100000000000000087e-04,-6.400000000000000524e-04,-5.400000000000000069e-04,-1.499999999999999869e-04,1.399999999999999877e-04,6.000000000000000000e+00,1.000000000000000000e+01
2.834200000000000000e+04,2.999999999999999737e-05,-5.000000000000000240e-05,-6.999999999999999387e-05,-2.100000000000000087e-04,-6.400000000000000524e-04,-5.400000000000000069e-04,-1.499999999999999869e-04,1.399999999999999877e-04,6.000000000000000000e+00,1.000000000000000000e+01
2.834300000000000000e+04,2.999999999999999737e-05,-5.000000000000000240e-05,-6.999999999999999387e-05,-2.100000000000000087e-04,-6.400000000000000524e-04,-5.400000000000000069e-04,-1.499999999999999869e-04,1.399999999999999877e-04,6.000000000000000000e+00,1.000000000000000000e+01
2.834400000000000000e+04,2.999999999999999737e-05,-5.000000000000000240e-05,-6.999999999999999387e-05,-2.100000000000000087e-04,-6.400000000000000524e-04,-5.400000000000000069e-04,-1.499999999999999869e-04,1.399999999999999877e-04,6.000000000000000000e+00,1.000000000000000000e+01
2.834500000000000000e+04,2.999999999999999737e-05,-5.000000000000000240e-05,-6.999999999999999387e-05,-2.100000000000000087e-04,-6.400000000000000524e-04,-5.400000000000000069e-04,-1.499999999999999869e-04,1.399999999999999877e-04,6.000000000000000000e+00,1.000000000000000000e+01
2.834600000000000000e+04,2.999999999999999737e-05,-5.000000000000000240e-05,-6.999999999999999387e-05,-2.100000000000000087e-04,-6.400000000000000524e-04,-5.400000000000000069e-04,-1.499999999999999869e-04,1.399999999999999877e-04,6.000000000000000000e+00,1.000000000000000000e+01
2.834700000000000000e+04,2.999999999999999737e-05,-5.000000000000000240e-05,-6.999999999999999387e-05,-2.100000000000000087e-04,-6.400000000000000524e-04,-5.400000000000000069e-04,-1.499999999999999869e-04,1.399999999999999877e-04,6.000000000000000000e+00,1.000000000000000000e+01
2.834800000000000000e+04,2.999999999999999737e-05,-5.000000000000000240e-05,-6.999999999999999387e-05,-2.100000000000000087e-04,-6.400000000000000524e-04,-5.400000000000000069e-04,-1.499999999999999869e-04,1.399999999999999877e-04,6.000000000000000000e+00,1.000000000000000000e+01
2.834900000000000000e+04,-2.999999999999999737e-05,-4.000000000000000327e-05,-5.000000000000000240e-05,-8.000000000000000654e-05,-1.199999999999999895e-04,3.399999999999999702e-04,1.600000000000000131e-04,1.000000000000000048e-04,6.000000000000000000e+00,1.000000000000000000e+01
2.835000000000000000e+04,-2.000000000000000164e-05,2.999999999999999737e-05,5.000000000000000240e-05,-1.000000000000000048e-04,-8.400000000000000348e-04,-7.599999999999999334e-04,-3.099999999999999999e-04,-3.799999999999999667e-04,6.000000000000000000e+00,1.000000000000000000e+01
2.835100000000000000e+04,1.000000000000000082e-05,-1.000000000000000082e-05,-2.000000000000000164e-05,4.000000000000000327e-05,2.200000000000000078e-04,4.299999999999999894e-04,5.999999999999999474e-05,-3.899999999999999929e-04,6.000000000000000000e+00,1.000000000000000000e+01
2.835200000000000000e+04,1.000000000000000082e-05,-1.000000000000000082e-05,-2.000000000000000164e-05,4.000000000000000327e-05,2.200000000000000078e-04,4.299999999999999894e-04,5.999999999999999474e-05,-3.899999999999999929e-04,6.000000000000000000e+00,1.000000000000000000e+01
2.835300000000000000e+04,1.000000000000000082e-05,-1.000000000000000082e-05,-2.000000000000000164e-05,4.000000000000000327e-05,2.200000000000000078e-04,4.299999999999999894e-04,5.999999999999999474e-05,-3.899999999999999929e-04,6.000000000000000000e+00,1.000000000000000000e+01
2.835400000000000000e+04,1.000000000000000082e-05,-1.000000000000000082e-05,-2.000000000000000164e-05,4.000000000000000327e-05,2.200000000000000078e-04,4.299999999999999894e-04,5.999999999999999474e-05,-3.899999999999999929e-04,6.000000000000000000e+00,1.000000000000000000e+01
2.835500000000000000e+04,1.000000000000000082e-05,-1.000000000000000082e-05,-2.000000000000000164e-05,4.000000000000000327e-05,2.200000000000000078e-04,4.299999999999999894e-04,5.999999999999999474e-05,-3.899999999999999929e-04,6.000000000000000000e+00,1.000000000000000000e+01
2.835600000000000000e+04,1.000000000000000082e-05,-1.000000000000000082e-05,-2.000000000000000164e-05,4.000000000000000327e-05,2.200000000000000078e-04,4.299999999999999894e-04,5.999999999999999474e-05,-3.899999999999999929e-04,6.000000000000000000e+00,1.000000000000000000e+01
2.835700000000000000e+04,1.000000000000000082e-05,-1.000000000000000082e-05,-2.000000000000000164e-05,4.000000000000000327e-05,2.200000000000000078e-04,4.299999999999999894e-04,5.999999999999999474e-05,-3.899999999999999929e-04,6.000000000000000000e+00,1.000000000000000000e+01
2.835800000000000000e+04,1.000000000000000082e-05,-1.000000000000000082e-05,-2.000000000000000164e-05,4.000000000000000327e-05,2.200000000000000078e-04,4.299999999999999894e-04,5.999999999999999474e-05,-3.899999999999999929e-04,6.000000000000000000e+00,1.000000000000000000e+01
2.835900000000000000e+04,1.000000000000000082e-05,-1.000000000000000082e-05,-2.000000000000000164e-05,4.000000000000000327e-05,2.200000000000000078e-04,4.299999999999999894e-04,5.999999999999999474e-05,-3.899999999999999929e-04,6.000000000000000000e+00,1.000000000000000000e+01
2.836000000000000000e+04,1.000000000000000082e-05,-1.000000000000000082e-05,-2.000000000000000164e-05,4.000000000000000327e-05,2.200000000000000078e-04,4.299999999999999894e-04,5.999999999999999474e-05,-3.899999999999999929e-04,6.000000000000000000e+00,1.000000000000000000e+01
2.836100000000000000e+04,1.000000000000000082e-05,-1.000000000000000082e-05,-2.000000000000000164e-05,4.000000000000000327e-05,2.200000000000000078e-04,4.299999999999999894e-04,5.999999999999999474e-05,-3.899999999999999929e-04,6.000000000000000000e+00,1.000000000000000000e+01
2.836200000000000000e+04,1.000000000000000082e-05,-1.000000000000000082e-05,-2.000000000000000164e-05,4.000000000000000327e-05,2.200000000000000078e-04,4.299999999999999894e-04,5.999999999999999474e-05,-3.899999999999999929e-04,6.000000000000000000e+00,1.000000000000000000e+01
2.836300000000000000e+04,1.000000000000000082e-05,-1.000000000000000082e-05,-2.000000000000000164e-05,4.000000000000000327e-05,2.200000000000000078e-04,4.299999999999999894e-04,5.999999999999999474e-05,-3.899999999999999929e-04,6.000000000000000000e+00,1.000000000000000000e+01
2.836400000000000000e+04,1.000000000000000082e-05,-1.000000000000000082e-05,-2.000000000000000164e-05,4.000000000000000327e-05,2.200000000000000078e-04,4.299999999999999894e-04,5.999999999999999474e-05,-3.899999999999999929e-04,6.000000000000000000e+00,1.000000000000000000e+01
2.836500000000000000e+04,1.000000000000000082e-05,-1.000000000000000082e-05,-2.000000000000000164e-05,4.000000000000000327e-05,2.200000000000000078e-04,4.299999999999999894e-04,5.999999999999999474e-05,-3.899999999999999929e-04,6.000000000000000000e+00,1.000000000000000000e+01
2.836600000000000000e+04,1.000000000000000082e-05,-1.000000000000000082e-05,-2.000000000000000164e-05,4.000000000000000327e-05,2.200000000000000078e-04,4.299999999999999894e-04,5.999999999999999474e-05,-3.899999999999999929e-04,6.000000000000000000e+00,1.000000000000000000e+01
2.836700000000000000e+04,1.000000000000000082e-05,-1.000000000000000082e-05,-2.000000000000000164e-05,4.000000000000000327e-05,2.200000000000000078e-04,4.299999999999999894e-04,5.999999999999999474e-05,-3.899999999999999929e-04,6.000000000000000000e+00,1.000000000000000000e+01
2.836800000000000000e+04,1.000000000000000082e-05,-1.000000000000000082e-05,-2.000000000000000164e-05,4.000000000000000327e-05,2.200000000000000078e-04,4.299999999999999894e-04,5.999999999999999474e-05,-3.899999999999999929e-04,6.000000000000000000e+00,1.000000000000000000e+01
2.836900000000000000e+04,1.000000000000000082e-05,-1.000000000000000082e-05,-2.000000000000000164e-05,4.000000000000000327e-05,2.200000000000000078e-04,4.299999999999999894e-04,5.999999999999999474e-05,-3.899999999999999929e-04,6.000000000000000000e+00,1.000000000000000000e+01
2.837000000000000000e+04,1.000000000000000082e-05,-1.000000000000000082e-05,-2.000000000000000164e-05,4.000000000000000327e-05,2.200000000000000078e-04,4.299999999999999894e-04,5.999999999999999474e-05,-3.899999999999999929e-04,6.000000000000000000e+00,1.000000000000000000e+01
2.837100000000000000e+04,1.000000000000000082e-05,-1.000000000000000082e-05,-2.000000000000000164e-05,4.000000000000000327e-05,2.200000000000000078e-04,4.299999999999999894e-04,5.999999999999999474e-05,-3.899999999999999929e-04,6.000000000000000000e+00,1.000000000000000000e+01
2.837200000000000000e+04,2.000000000000000164e-05,-2.000000000000000164e-05,-2.000000000000000164e-05,-6.999999999999999387e-05,-4.899999999999999842e-04,-4.000000000000000192e-04,-1.499999999999999869e-04,6.999999999999999387e-05,6.000000000000000000e+00,1.000000000000000000e+01
2.837300000000000000e+04,2.000000000000000164e-05,-6.999999999999999387e-05,-1.000000000000000048e-04,-1.499999999999999869e-04,-1.300000000000000157e-04,-3.299999999999999982e-04,-2.000000000000000164e-05,-5.999999999999999474e-05,6.000000000000000000e+00,1.000000000000000000e+01
2.837400000000000000e+04,1.000000000000000082e-05,1.000000000000000082e-05,2.999999999999999737e-05,-1.100000000000000039e-04,-2.600000000000000314e-04,3.899999999999999929e-04,5.999999999999999474e-05,9.000000000000000567e-05,6.000000000000000000e+00,1.000000000000000000e+01
2.837500000000000000e+04,1.000000000000000082e-05,1.000000000000000082e-05,2.999999999999999737e-05,-1.100000000000000039e-04,-2.600000000000000314e-04,3.899999999999999929e-04,5.999999999999999474e-05,9.000000000000000567e-05,6.000000000000000000e+00,1.000000000000000000e+01
2.837600000000000000e+04,1.000000000000000082e-05,1.000000000000000082e-05,2.999999999999999737e-05,-1.100000000000000039e-04,-2.600000000000000314e-04,3.899999999999999929e-04,5.999999999999999474e-05,9.000000000000000567e-05,6.000000000000000000e+00,1.000000000000000000e+01
2.837700000000000000e+04,1.000000000000000082e-05,1.000000000000000082e-05,2.999999999999999737e-05,-1.100000000000000039e-04,-2.600000000000000314e-04,3.899999999999999929e-04,5.999999999999999474e-05,9.000000000000000567e-05,6.000000000000000000e+00,1.000000000000000000e+01
2.837800000000000000e+04,1.000000000000000082e-05,1.000000000000000082e-05,2.999999999999999737e-05,-1.100000000000000039e-04,-2.600000000000000314e-04,3.899999999999999929e-04,5.999999999999999474e-05,9.000000000000000567e-05,6.000000000000000000e+00,1.000000000000000000e+01
2.838100000000000000e+04,1.000000000000000082e-05,1.000000000000000082e-05,2.999999999999999737e-05,-1.100000000000000039e-04,-2.600000000000000314e-04,3.899999999999999929e-04,5.999999999999999474e-05,9.000000000000000567e-05,6.000000000000000000e+00,1.000000000000000000e+01
2.838200000000000000e+04,1.000000000000000082e-05,1.000000000000000082e-05,2.999999999999999737e-05,-1.100000000000000039e-04,-2.600000000000000314e-04,3.899999999999999929e-04,5.999999999999999474e-05,9.000000000000000567e-05,6.000000000000000000e+00,1.000000000000000000e+01
2.838300000000000000e+04,1.000000000000000082e-05,1.000000000000000082e-05,2.999999999999999737e-05,-1.100000000000000039e-04,-2.600000000000000314e-04,3.899999999999999929e-04,5.999999999999999474e-05,9.000000000000000567e-05,6.000000000000000000e+00,1.000000000000000000e+01
2.838400000000000000e+04,1.000000000000000082e-05,1.000000000000000082e-05,2.999999999999999737e-05,-1.100000000000000039e-04,-2.600000000000000314e-04,3.899999999999999929e-04,5.999999999999999474e-05,9.000000000000000567e-05,6.000000000000000000e+00,1.000000000000000000e+01
2.838500000000000000e+04,1.000000000000000082e-05,1.000000000000000082e-05,2.999999999999999737e-05,-1.100000000000000039e-04,-2.600000000000000314e-04,3.899999999999999929e-04,5.999999999999999474e-05,9.000000000000000567e-05,6.000000000000000000e+00,1.000000000000000000e+01
2.838700000000000000e+04,5.999999999999999474e-05,2.999999999999999737e-05,2.999999999999999737e-05,1.000000000000000048e-04,4.799999999999999580e-04,5.699999999999999772e-04,-2.000000000000000096e-04,-2.799999999999999755e-04,6.000000000000000000e+00,1.000000000000000000e+01
2.838900000000000000e+04,5.999999999999999474e-05,2.999999999999999737e-05,2.999999999999999737e-05,1.000000000000000048e-04,4.799999999999999580e-04,5.699999999999999772e-04,-2.000000000000000096e-04,-2.799999999999999755e-04,6.000000000000000000e+00,1.000000000000000000e+01
2.839000000000000000e+04,5.999999999999999474e-05,2.999999999999999737e-05,2.999999999999999737e-05,1.000000000000000048e-04,4.799999999999999580e-04,5.699999999999999772e-04,-2.000000000000000096e-04,-2.799999999999999755e-04,6.000000000000000000e+00,1.000000000000000000e+01
2.839100000000000000e+04,5.999999999999999474e-05,2.999999999999999737e-05,2.999999999999999737e-05,1.000000000000000048e-04,4.799999999999999580e-04,5.699999999999999772e-04,-2.000000000000000096e-04,-2.799999999999999755e-04,6.000000000000000000e+00,1.000000000000000000e+01
2.839200000000000000e+04,5.999999999999999474e-05,2.999999999999999737e-05,2.999999999999999737e-05,1.000000000000000048e-04,4.799999999999999580e-04,5.699999999999999772e-04,-2.000000000000000096e-04,-2.799999999999999755e-04,6.000000000000000000e+00,1.000000000000000000e+01
2.839300000000000000e+04,-4.000000000000000327e-05,2.000000000000000164e-05,5.000000000000000240e-05,9.000000000000000567e-05,1.100000000000000039e-04,-1.899999999999999834e-04,5.999999999999999474e-05,6.300000000000000261e-04,6.000000000000000000e+00,1.000000000000000000e+01
2.839400000000000000e+04,-4.000000000000000327e-05,2.000000000000000164e-05,5.000000000000000240e-05,9.000000000000000567e-05,1.100000000000000039e-04,-1.899999999999999834e-04,5.999999999999999474e-05,6.300000000000000261e-04,6.000000000000000000e+00,1.000000000000000000e+01
2.839500000000000000e+04,-4.000000000000000327e-05,2.000000000000000164e-05,5.000000000000000240e-05,9.000000000000000567e-05,1.100000000000000039e-04,-1.899999999999999834e-04,5.999999999999999474e-05,6.300000000000000261e-04,6.000000000000000000e+00,1.000000000000000000e+01
2.839600000000000000e+04,-4.000000000000000327e-05,2.000000000000000164e-05,5.000000000000000240e-05,9.000000000000000567e-05,1.100000000000000039e-04,-1.899999999999999834e-04,5.999999999999999474e-05,6.300000000000000261e-04,6.000000000000000000e+00,1.000000000000000000e+01
2.839700000000000000e+04,-4.000000000000000327e-05,2.000000000000000164e-05,5.000000000000000240e-05,9.000000000000000567e-05,1.100000000000000039e-04,-1.899999999999999834e-04,5.999999999999999474e-05,6.300000000000000261e-04,6.000000000000000000e+00,1.000000000000000000e+01
2.839800000000000000e+04,-4.000000000000000327e-05,2.000000000000000164e-05,5.000000000000000240e-05,9.000000000000000567e-05,1.100000000000000039e-04,-1.899999999999999834e-04,5.999999999999999474e-05,6.300000000000000261e-04,6.000000000000000000e+00,1.000000000000000000e+01
2.839900000000000000e+04,-4.000000000000000327e-05,2.000000000000000164e-05,5.000000000000000240e-05,9.000000000000000567e-05,1.100000000000000039e-04,-1.899999999999999834e-04,5.999999999999999474e-05,6.300000000000000261e-04,6.000000000000000000e+00,1.000000000000000000e+01
2.840000000000000000e+04,-4.000000000000000327e-05,2.000000000000000164e-05,5.000000000000000240e-05,9.000000000000000567e-05,1.100000000000000039e-04,-1.899999999999999834e-04,5.999999999999999474e-05,6.300000000000000261e-04,6.000000000000000000e+00,1.000000000000000000e+01
2.840100000000000000e+04,-4.000000000000000327e-05,2.000000000000000164e-05,5.000000000000000240e-05,9.000000000000000567e-05,1.100000000000000039e-04,-1.899999999999999834e-04,5.999999999999999474e-05,6.300000000000000261e-04,6.000000000000000000e+00,1.000000000000000000e+01
2.840200000000000000e+04,-4.000000000000000327e-05,2.000000000000000164e-05,5.000000000000000240e-05,9.000000000000000567e-05,1.100000000000000039e-04,-1.899999999999999834e-04,5.999999999999999474e-05,6.300000000000000261e-04,6.000000000000000000e+00,1.000000000000000000e+01
2.840300000000000000e+04,-4.000000000000000327e-05,2.000000000000000164e-05,5.000000000000000240e-05,9.000000000000000567e-05,1.100000000000000039e-04,-1.899999999999999834e-04,5.999999999999999474e-05,6.300000000000000261e-04,6.000000000000000000e+00,1.000000000000000000e+01
2.840400000000000000e+04,-4.000000000000000327e-05,2.000000000000000164e-05,5.000000000000000240e-05,9.000000000000000567e-05,1.100000000000000039e-04,-1.899999999999999834e-04,5.999999999999999474e-05,6.300000000000000261e-04,6.000000000000000000e+00,1.000000000000000000e+01
2.840500000000000000e+04,-4.000000000000000327e-05,2.000000000000000164e-05,5.000000000000000240e-05,9.000000000000000567e-05,1.100000000000000039e-04,-1.899999999999999834e-04,5.999999999999999474e-05,6.300000000000000261e-04,6.000000000000000000e+00,1.000000000000000000e+01
2.840600000000000000e+04,-4.000000000000000327e-05,2.000000000000000164e-05,5.000000000000000240e-05,9.000000000000000567e-05,1.100000000000000039e-04,-1.899999999999999834e-04,5.999999999999999474e-05,6.300000000000000261e-04,6.000000000000000000e+00,1.000000000000000000e+01
2.840700000000000000e+04,-4.000000000000000327e-05,2.000000000000000164e-05,5.000000000000000240e-05,9.000000000000000567e-05,1.100000000000000039e-04,-1.899999999999999834e-04,5.999999999999999474e-05,6.300000000000000261e-04,6.000000000000000000e+00,1.000000000000000000e+01
2.840800000000000000e+04,-4.000000000000000327e-05,2.000000000000000164e-05,5.000000000000000240e-05,9.000000000000000567e-05,1.100000000000000039e-04,-1.899999999999999834e-04,5.999999999999999474e-05,6.300000000000000261e-04,6.000000000000000000e+00,1.000000000000000000e+01
2.840900000000000000e+04,-4.000000000000000327e-05,2.000000000000000164e-05,5.000000000000000240e-05,9.000000000000000567e-05,1.100000000000000039e-04,-1.899999999999999834e-04,5.999999999999999474e-05,6.300000000000000261e-04,6.000000000000000000e+00,1.000000000000000000e+01
2.841000000000000000e+04,0.000000000000000000e+00,-1.000000000000000082e-05,2.000000000000000164e-05,8.000000000000000654e-05,-8.000000000000000654e-05,6.099999999999999737e-04,2.299999999999999799e-04,9.000000000000000567e-05,6.000000000000000000e+00,1.000000000000000000e+01
2.841100000000000000e+04,0.000000000000000000e+00,-1.000000000000000082e-05,2.000000000000000164e-05,8.000000000000000654e-05,-8.000000000000000654e-05,6.099999999999999737e-04,2.299999999999999799e-04,9.000000000000000567e-05,6.000000000000000000e+00,1.000000000000000000e+01
2.841200000000000000e+04,-4.000000000000000327e-05,-2.000000000000000164e-05,-2.000000000000000164e-05,1.000000000000000082e-05,-3.099999999999999999e-04,-6.400000000000000524e-04,-2.299999999999999799e-04,-5.200000000000000629e-04,6.000000000000000000e+00,1.000000000000000000e+01
2.841300000000000000e+04,-4.000000000000000327e-05,-2.000000000000000164e-05,-2.000000000000000164e-05,1.000000000000000082e-05,-3.099999999999999999e-04,-6.400000000000000524e-04,-2.299999999999999799e-04,-5.200000000000000629e-04,6.000000000000000000e+00,1.000000000000000000e+01
2.841400000000000000e+04,-4.000000000000000327e-05,-2.000000000000000164e-05,-2.000000000000000164e-05,1.000000000000000082e-05,-3.099999999999999999e-04,-6.400000000000000524e-04,-2.299999999999999799e-04,-5.200000000000000629e-04,6.000000000000000000e+00,1.000000000000000000e+01
2.841500000000000000e+04,-4.000000000000000327e-05,-2.000000000000000164e-05,-2.000000000000000164e-05,1.000000000000000082e-05,-3.099999999999999999e-04,-6.400000000000000524e-04,-2.299999999999999799e-04,-5.200000000000000629e-04,6.000000000000000000e+00,1.000000000000000000e+01
2.841600000000000000e+04,-4.000000000000000327e-05,-2.000000000000000164e-05,-2.000000000000000164e-05,1.000000000000000082e-05,-3.099999999999999999e-04,-6.400000000000000524e-04,-2.299999999999999799e-04,-5.200000000000000629e-04,6.000000000000000000e+00,1.000000000000000000e+01
2.841700000000000000e+04,-4.000000000000000327e-05,-2.000000000000000164e-05,-2.000000000000000164e-05,1.000000000000000082e-05,-3.099999999999999999e-04,-6.400000000000000524e-04,-2.299999999999999799e-04,-5.200000000000000629e-04,6.000000000000000000e+00,1.000000000000000000e+01
2.841800000000000000e+04,-4.000000000000000327e-05,-2.000000000000000164e-05,-2.000000000000000164e-05,1.000000000000000082e-05,-3.099999999999999999e-04,-6.400000000000000524e-04,-2.299999999999999799e-04,-5.200000000000000629e-04,6.000000000000000000e+00,1.000000000000000000e+01
2.841900000000000000e+04,-4.000000000000000327e-05,-2.000000000000000164e-05,-2.000000000000000164e-05,1.000000000000000082e-05,-3.099999999999999999e-04,-6.400000000000000524e-04,-2.299999999999999799e-04,-5.200000000000000629e-04,6.000000000000000000e+00,1.000000000000000000e+01
2.842000000000000000e+04,-4.000000000000000327e-05,-2.000000000000000164e-05,-2.000000000000000164e-05,1.000000000000000082e-05,-3.099999999999999999e-04,-6.400000000000000524e-04,-2.299999999999999799e-04,-5.200000000000000629e-04,6.000000000000000000e+00,1.000000000000000000e+01
2.842100000000000000e+04,-4.000000000000000327e-05,-2.000000000000000164e-05,-2.000000000000000164e-05,1.000000000000000082e-05,-3.099999999999999999e-04,-6.400000000000000524e-04,-2.299999999999999799e-04,-5.200000000000000629e-04,6.000000000000000000e+00,1.000000000000000000e+01
2.842200000000000000e+04,-4.000000000000000327e-05,-2.000000000000000164e-05,-2.000000000000000164e-05,1.000000000000000082e-05,-3.099999999999999999e-04,-6.400000000000000524e-04,-2.299999999999999799e-04,-5.200000000000000629e-04,6.000000000000000000e+00,1.000000000000000000e+01
2.842300000000000000e+04,-4.000000000000000327e-05,-2.000000000000000164e-05,-2.000000000000000164e-05,1.000000000000000082e-05,-3.099999999999999999e-04,-6.400000000000000524e-04,-2.299999999999999799e-04,-5.200000000000000629e-04,6.000000000000000000e+00,1.000000000000000000e+01
2.842400000000000000e+04,-4.000000000000000327e-05,-2.000000000000000164e-05,-2.000000000000000164e-05,1.000000000000000082e-05,-3.099999999999999999e-04,-6.400000000000000524e-04,-2.299999999999999799e-04,-5.200000000000000629e-04,6.000000000000000000e+00,1.000000000000000000e+01
2.842500000000000000e+04,-4.000000000000000327e-05,-2.000000000000000164e-05,-2.000000000000000164e-05,1.000000000000000082e-05,-3.099999999999999999e-04,-6.400000000000000524e-04,-2.299999999999999799e-04,-5.200000000000000629e-04,6.000000000000000000e+00,1.000000000000000000e+01
2.842600000000000000e+04,-4.000000000000000327e-05,-2.000000000000000164e-05,-2.000000000000000164e-05,1.000000000000000082e-05,-3.099999999999999999e-04,-6.400000000000000524e-04,-2.299999999999999799e-04,-5.200000000000000629e-04,6.000000000000000000e+00,1.000000000000000000e+01
2.842700000000000000e+04,-4.000000000000000327e-05,-2.000000000000000164e-05,-2.000000000000000164e-05,1.000000000000000082e-05,-3.099999999999999999e-04,-6.400000000000000524e-04,-2.299999999999999799e-04,-5.200000000000000629e-04,6.000000000000000000e+00,1.000000000000000000e+01
2.842800000000000000e+04,-4.000000000000000327e-05,-2.000000000000000164e-05,-2.000000000000000164e-05,1.000000000000000082e-05,-3.099999999999999999e-04,-6.400000000000000524e-04,-2.299999999999999799e-04,-5.200000000000000629e-04,6.000000000000000000e+00,1.000000000000000000e+01
2.842900000000000000e+04,-4.000000000000000327e-05,-2.000000000000000164e-05,-2.000000000000000164e-05,1.000000000000000082e-05,-3.099999999999999999e-04,-6.400000000000000524e-04,-2.299999999999999799e-04,-5.200000000000000629e-04,6.000000000000000000e+00,1.000000000000000000e+01
2.843000000000000000e+04,-4.000000000000000327e-05,-2.000000000000000164e-05,-2.000000000000000164e-05,1.000000000000000082e-05,-3.099999999999999999e-04,-6.400000000000000524e-04,-2.299999999999999799e-04,-5.200000000000000629e-04,6.000000000000000000e+00,1.000000000000000000e+01
2.843100000000000000e+04,-4.000000000000000327e-05,-2.000000000000000164e-05,-2.000000000000000164e-05,1.000000000000000082e-05,-3.099999999999999999e-04,-6.400000000000000524e-04,-2.299999999999999799e-04,-5.200000000000000629e-04,6.000000000000000000e+00,1.000000000000000000e+01
2.843200000000000000e+04,-4.000000000000000327e-05,-2.999999999999999737e-05,-4.000000000000000327e-05,-5.999999999999999474e-05,9.000000000000000567e-05,-6.099999999999999737e-04,-1.000000000000000082e-05,-1.000000000000000048e-04,6.000000000000000000e+00,1.000000000000000000e+01
2.843300000000000000e+04,2.999999999999999737e-05,-1.000000000000000082e-05,4.000000000000000327e-05,1.300000000000000157e-04,5.599999999999999509e-04,8.199999999999999824e-04,1.100000000000000039e-04,-1.000000000000000082e-05,6.000000000000000000e+00,1.000000000000000000e+01
2.843400000000000000e+04,0.000000000000000000e+00,-2.000000000000000164e-05,-2.999999999999999737e-05,-5.999999999999999474e-05,-2.299999999999999799e-04,-8.300000000000001170e-04,-1.100000000000000039e-04,4.000000000000000327e-05,6.000000000000000000e+00,1.000000000000000000e+01
2.843500000000000000e+04,0.000000000000000000e+00,-2.000000000000000164e-05,-2.999999999999999737e-05,-5.999999999999999474e-05,-2.299999999999999799e-04,-8.300000000000001170e-04,-1.100000000000000039e-04,4.000000000000000327e-05,6.000000000000000000e+00,1.000000000000000000e+01
2.843600000000000000e+04,0.000000000000000000e+00,-2.000000000000000164e-05,-2.999999999999999737e-05,-5.999999999999999474e-05,-2.299999999999999799e-04,-8.300000000000001170e-04,-1.100000000000000039e-04,4.000000000000000327e-05,6.000000000000000000e+00,1.000000000000000000e+01
2.843800000000000000e+04,0.000000000000000000e+00,-2.000000000000000164e-05,-2.999999999999999737e-05,-5.999999999999999474e-05,-2.299999999999999799e-04,-8.300000000000001170e-04,-1.100000000000000039e-04,4.000000000000000327e-05,6.000000000000000000e+00,1.000000000000000000e+01
2.843900000000000000e+04,0.000000000000000000e+00,-2.000000000000000164e-05,-2.999999999999999737e-05,-5.999999999999999474e-05,-2.299999999999999799e-04,-8.300000000000001170e-04,-1.100000000000000039e-04,4.000000000000000327e-05,6.000000000000000000e+00,1.000000000000000000e+01
2.844000000000000000e+04,0.000000000000000000e+00,-2.000000000000000164e-05,-2.999999999999999737e-05,-5.999999999999999474e-05,-2.299999999999999799e-04,-8.300000000000001170e-04,-1.100000000000000039e-04,4.000000000000000327e-05,6.000000000000000000e+00,1.000000000000000000e+01
2.844100000000000000e+04,0.000000000000000000e+00,-2.000000000000000164e-05,-2.999999999999999737e-05,-5.999999999999999474e-05,-2.299999999999999799e-04,-8.300000000000001170e-04,-1.100000000000000039e-04,4.000000000000000327e-05,6.000000000000000000e+00,1.000000000000000000e+01
2.844200000000000000e+04,0.000000000000000000e+00,-2.000000000000000164e-05,-2.999999999999999737e-05,-5.999999999999999474e-05,-2.299999999999999799e-04,-8.300000000000001170e-04,-1.100000000000000039e-04,4.000000000000000327e-05,6.000000000000000000e+00,1.000000000000000000e+01
2.844300000000000000e+04,0.000000000000000000e+00,-2.000000000000000164e-05,-2.999999999999999737e-05,-5.999999999999999474e-05,-2.299999999999999799e-04,-8.300000000000001170e-04,-1.100000000000000039e-04,4.000000000000000327e-05,6.000000000000000000e+00,1.000000000000000000e+01
2.844400000000000000e+04,0.000000000000000000e+00,-2.000000000000000164e-05,-2.999999999999999737e-05,-5.999999999999999474e-05,-2.299999999999999799e-04,-8.300000000000001170e-04,-1.100000000000000039e-04,4.000000000000000327e-05,6.000000000000000000e+00,1.000000000000000000e+01
2.844500000000000000e+04,0.000000000000000000e+00,-2.000000000000000164e-05,-2.999999999999999737e-05,-5.999999999999999474e-05,-2.299999999999999799e-04,-8.300000000000001170e-04,-1.100000000000000039e-04,4.000000000000000327e-05,6.000000000000000000e+00,1.000000000000000000e+01
2.844600000000000000e+04,0.000000000000000000e+00,-2.000000000000000164e-05,-2.999999999999999737e-05,-5.999999999999999474e-05,-2.299999999999999799e-04,-8.300000000000001170e-04,-1.100000000000000039e-04,4.000000000000000327e-05,6.000000000000000000e+00,1.000000000000000000e+01
2.844700000000000000e+04,0.000000000000000000e+00,-2.000000000000000164e-05,-2.999999999999999737e-05,-5.999999999999999474e-05,-2.299999999999999799e-04,-8.300000000000001170e-04,-1.100000000000000039e-04,4.000000000000000327e-05,6.000000000000000000e+00,1.000000000000000000e+01
2.844800000000000000e+04,0.000000000000000000e+00,-2.000000000000000164e-05,-2.999999999999999737e-05,-5.999999999999999474e-05,-2.299999999999999799e-04,-8.300000000000001170e-04,-1.100000000000000039e-04,4.000000000000000327e-05,6.000000000000000000e+00,1.000000000000000000e+01
2.844900000000000000e+04,0.000000000000000000e+00,-2.000000000000000164e-05,-2.999999999999999737e-05,-5.999999999999999474e-05,-2.299999999999999799e-04,-8.300000000000001170e-04,-1.100000000000000039e-04,4.000000000000000327e-05,6.000000000000000000e+00,1.000000000000000000e+01
2.845000000000000000e+04,0.000000000000000000e+00,-2.000000000000000164e-05,-2.999999999999999737e-05,-5.999999999999999474e-05,-2.299999999999999799e-04,-8.300000000000001170e-04,-1.100000000000000039e-04,4.000000000000000327e-05,6.000000000000000000e+00,1.000000000000000000e+01
2.845100000000000000e+04,0.000000000000000000e+00,-2.000000000000000164e-05,-2.999999999999999737e-05,-5.999999999999999474e-05,-2.299999999999999799e-04,-8.300000000000001170e-04,-1.100000000000000039e-04,4.000000000000000327e-05,6.000000000000000000e+00,1.000000000000000000e+01
2.845200000000000000e+04,0.000000000000000000e+00,-2.000000000000000164e-05,-2.999999999999999737e-05,-5.999999999999999474e-05,-2.299999999999999799e-04,-8.300000000000001170e-04,-1.100000000000000039e-04,4.000000000000000327e-05,6.000000000000000000e+00,1.000000000000000000e+01
2.845300000000000000e+04,0.000000000000000000e+00,-2.000000000000000164e-05,-2.999999999999999737e-05,-5.999999999999999474e-05,-2.299999999999999799e-04,-8.300000000000001170e-04,-1.100000000000000039e-04,4.000000000000000327e-05,6.000000000000000000e+00,1.000000000000000000e+01
2.845400000000000000e+04,0.000000000000000000e+00,-2.000000000000000164e-05,-2.999999999999999737e-05,-5.999999999999999474e-05,-2.299999999999999799e-04,-8.300000000000001170e-04,-1.100000000000000039e-04,4.000000000000000327e-05,6.000000000000000000e+00,1.000000000000000000e+01
2.845500000000000000e+04,0.000000000000000000e+00,-2.000000000000000164e-05,-2.999999999999999737e-05,-5.999999999999999474e-05,-2.299999999999999799e-04,-8.300000000000001170e-04,-1.100000000000000039e-04,4.000000000000000327e-05,6.000000000000000000e+00,1.000000000000000000e+01
2.845600000000000000e+04,2.999999999999999737e-05,0.000000000000000000e+00,2.000000000000000164e-05,1.100000000000000039e-04,1.300000000000000157e-04,-3.099999999999999999e-04,2.999999999999999737e-05,4.200000000000000174e-04,6.000000000000000000e+00,1.000000000000000000e+01
2.845700000000000000e+04,2.999999999999999737e-05,0.000000000000000000e+00,2.000000000000000164e-05,1.100000000000000039e-04,1.300000000000000157e-04,-3.099999999999999999e-04,2.999999999999999737e-05,4.200000000000000174e-04,6.000000000000000000e+00,1.000000000000000000e+01
2.845800000000000000e+04,2.999999999999999737e-05,0.000000000000000000e+00,2.000000000000000164e-05,1.100000000000000039e-04,1.300000000000000157e-04,-3.099999999999999999e-04,2.999999999999999737e-05,4.200000000000000174e-04,6.000000000000000000e+00,1.000000000000000000e+01
2.845900000000000000e+04,2.999999999999999737e-05,0.000000000000000000e+00,2.000000000000000164e-05,1.100000000000000039e-04,1.300000000000000157e-04,-3.099999999999999999e-04,2.999999999999999737e-05,4.200000000000000174e-04,6.000000000000000000e+00,1.000000000000000000e+01
2.846000000000000000e+04,-9.000000000000000567e-05,-5.000000000000000240e-05,-6.999999999999999387e-05,-1.699999999999999851e-04,-4.200000000000000174e-04,-1.800000000000000113e-04,-2.100000000000000087e-04,-7.799999999999999859e-04,6.000000000000000000e+00,1.000000000000000000e+01
2.846100000000000000e+04,-4.000000000000000327e-05,1.000000000000000082e-05,-2.999999999999999737e-05,-8.000000000000000654e-05,-2.000000000000000164e-05,5.999999999999999474e-05,6.999999999999999387e-05,8.000000000000000654e-05,6.000000000000000000e+00,1.000000000000000000e+01
2.846200000000000000e+04,-4.000000000000000327e-05,1.000000000000000082e-05,-2.999999999999999737e-05,-8.000000000000000654e-05,-2.000000000000000164e-05,5.999999999999999474e-05,6.999999999999999387e-05,8.000000000000000654e-05,6.000000000000000000e+00,1.000000000000000000e+01
2.846300000000000000e+04,-4.000000000000000327e-05,1.000000000000000082e-05,-2.999999999999999737e-05,-8.000000000000000654e-05,-2.000000000000000164e-05,5.999999999999999474e-05,6.999999999999999387e-05,8.000000000000000654e-05,6.000000000000000000e+00,1.000000000000000000e+01
2.846400000000000000e+04,-4.000000000000000327e-05,1.000000000000000082e-05,-2.999999999999999737e-05,-8.000000000000000654e-05,-2.000000000000000164e-05,5.999999999999999474e-05,6.999999999999999387e-05,8.000000000000000654e-05,6.000000000000000000e+00,1.000000000000000000e+01
2.846500000000000000e+04,-4.000000000000000327e-05,1.000000000000000082e-05,-2.999999999999999737e-05,-8.000000000000000654e-05,-2.000000000000000164e-05,5.999999999999999474e-05,6.999999999999999387e-05,8.000000000000000654e-05,6.000000000000000000e+00,1.000000000000000000e+01
2.846600000000000000e+04,-4.000000000000000327e-05,1.000000000000000082e-05,-2.999999999999999737e-05,-8.000000000000000654e-05,-2.000000000000000164e-05,5.999999999999999474e-05,6.999999999999999387e-05,8.000000000000000654e-05,6.000000000000000000e+00,1.000000000000000000e+01
2.846700000000000000e+04,-4.000000000000000327e-05,1.000000000000000082e-05,-2.999999999999999737e-05,-8.000000000000000654e-05,-2.000000000000000164e-05,5.999999999999999474e-05,6.999999999999999387e-05,8.000000000000000654e-05,6.000000000000000000e+00,1.000000000000000000e+01
2.846800000000000000e+04,-4.000000000000000327e-05,1.000000000000000082e-05,-2.999999999999999737e-05,-8.000000000000000654e-05,-2.000000000000000164e-05,5.999999999999999474e-05,6.999999999999999387e-05,8.000000000000000654e-05,6.000000000000000000e+00,1.000000000000000000e+01
2.846900000000000000e+04,1.000000000000000082e-05,0.000000000000000000e+00,2.999999999999999737e-05,1.800000000000000113e-04,2.399999999999999790e-04,4.700000000000000401e-04,1.100000000000000039e-04,-5.800000000000000034e-04,6.000000000000000000e+00,1.000000000000000000e+01
2.847000000000000000e+04,2.999999999999999737e-05,5.000000000000000240e-05,8.000000000000000654e-05,1.399999999999999877e-04,5.400000000000000069e-04,4.099999999999999912e-04,4.000000000000000327e-05,1.499999999999999869e-04,6.000000000000000000e+00,1.000000000000000000e+01
2.847100000000000000e+04,0.000000000000000000e+00,-5.000000000000000240e-05,-5.000000000000000240e-05,5.999999999999999474e-05,1.399999999999999877e-04,5.299999999999999807e-04,-1.000000000000000082e-05,0.000000000000000000e+00,6.000000000000000000e+00,1.000000000000000000e+01
2.847200000000000000e+04,0.000000000000000000e+00,-5.000000000000000240e-05,-5.000000000000000240e-05,5.999999999999999474e-05,1.399999999999999877e-04,5.299999999999999807e-04,-1.000000000000000082e-05,0.000000000000000000e+00,6.000000000000000000e+00,1.000000000000000000e+01
2.847300000000000000e+04,0.000000000000000000e+00,-5.000000000000000240e-05,-5.000000000000000240e-05,5.999999999999999474e-05,1.399999999999999877e-04,5.299999999999999807e-04,-1.000000000000000082e-05,0.000000000000000000e+00,6.000000000000000000e+00,1.000000000000000000e+01
2.847400000000000000e+04,0.000000000000000000e+00,-5.000000000000000240e-05,-5.000000000000000240e-05,5.999999999999999474e-05,1.399999999999999877e-04,5.299999999999999807e-04,-1.000000000000000082e-05,0.000000000000000000e+00,6.000000000000000000e+00,1.000000000000000000e+01
2.847500000000000000e+04,0.000000000000000000e+00,-5.000000000000000240e-05,-5.000000000000000240e-05,5.999999999999999474e-05,1.399999999999999877e-04,5.299999999999999807e-04,-1.000000000000000082e-05,0.000000000000000000e+00,6.000000000000000000e+00,1.000000000000000000e+01
2.847600000000000000e+04,0.000000000000000000e+00,-5.000000000000000240e-05,-5.000000000000000240e-05,5.999999999999999474e-05,1.399999999999999877e-04,5.299999999999999807e-04,-1.000000000000000082e-05,0.000000000000000000e+00,6.000000000000000000e+00,1.000000000000000000e+01
2.847700000000000000e+04,0.000000000000000000e+00,-5.000000000000000240e-05,-5.000000000000000240e-05,5.999999999999999474e-05,1.399999999999999877e-04,5.299999999999999807e-04,-1.000000000000000082e-05,0.000000000000000000e+00,6.000000000000000000e+00,1.000000000000000000e+01
2.847800000000000000e+04,0.000000000000000000e+00,-5.000000000000000240e-05,-5.000000000000000240e-05,5.999999999999999474e-05,1.399999999999999877e-04,5.299999999999999807e-04,-1.000000000000000082e-05,0.000000000000000000e+00,6.000000000000000000e+00,1.000000000000000000e+01
2.847900000000000000e+04,0.000000000000000000e+00,-5.000000000000000240e-05,-5.000000000000000240e-05,5.999999999999999474e-05,1.399999999999999877e-04,5.299999999999999807e-04,-1.000000000000000082e-05,0.000000000000000000e+00,6.000000000000000000e+00,1.000000000000000000e+01
2.848000000000000000e+04,0.000000000000000000e+00,-5.000000000000000240e-05,-5.000000000000000240e-05,5.999999999999999474e-05,1.399999999999999877e-04,5.299999999999999807e-04,-1.000000000000000082e-05,0.000000000000000000e+00,6.000000000000000000e+00,1.000000000000000000e+01
2.848100000000000000e+04,0.000000000000000000e+00,-5.000000000000000240e-05,-5.000000000000000240e-05,5.999999999999999474e-05,1.399999999999999877e-04,5.299999999999999807e-04,-1.000000000000000082e-05,0.000000000000000000e+00,6.000000000000000000e+00,1.000000000000000000e+01
2.848200000000000000e+04,0.000000000000000000e+00,-5.000000000000000240e-05,-5.000000000000000240e-05,5.999999999999999474e-05,1.399999999999999877e-04,5.299999999999999807e-04,-1.000000000000000082e-05,0.000000000000000000e+00,6.000000000000000000e+00,1.000000000000000000e+01
2.848300000000000000e+04,0.000000000000000000e+00,-5.000000000000000240e-05,-5.000000000000000240e-05,5.999999999999999474e-05,1.399999999999999877e-04,5.299999999999999807e-04,-1.000000000000000082e-05,0.000000000000000000e+00,6.000000000000000000e+00,1.000000000000000000e+01
2.848400000000000000e+04,0.000000000000000000e+00,-5.000000000000000240e-05,-5.000000000000000240e-05,5.999999999999999474e-05,1.399999999999999877e-04,5.299999999999999807e-04,-1.000000000000000082e-05,0.000000000000000000e+00,6.000000000000000000e+00,1.000000000000000000e+01
2.848500000000000000e+04,0.000000000000000000e+00,-5.000000000000000240e-05,-5.000000000000000240e-05,5.999999999999999474e-05,1.399999999999999877e-04,5.299999999999999807e-04,-1.000000000000000082e-05,0.000000000000000000e+00,6.000000000000000000e+00,1.000000000000000000e+01
2.848600000000000000e+04,0.000000000000000000e+00,-5.000000000000000240e-05,-5.000000000000000240e-05,5.999999999999999474e-05,1.399999999999999877e-04,5.299999999999999807e-04,-1.000000000000000082e-05,0.000000000000000000e+00,6.000000000000000000e+00,1.000000000000000000e+01
2.848900000000000000e+04,0.000000000000000000e+00,-5.000000000000000240e-05,-5.000000000000000240e-05,5.999999999999999474e-05,1.399999999999999877e-04,5.299999999999999807e-04,-1.000000000000000082e-05,0.000000000000000000e+00,6.000000000000000000e+00,1.000000000000000000e+01
2.849000000000000000e+04,0.000000000000000000e+00,-5.000000000000000240e-05,-5.000000000000000240e-05,5.999999999999999474e-05,1.399999999999999877e-04,5.299999999999999807e-04,-1.000000000000000082e-05,0.000000000000000000e+00,6.000000000000000000e+00,1.000000000000000000e+01
2.849100000000000000e+04,0.000000000000000000e+00,-5.000000000000000240e-05,-5.000000000000000240e-05,5.999999999999999474e-05,1.399999999999999877e-04,5.299999999999999807e-04,-1.000000000000000082e-05,0.000000000000000000e+00,6.000000000000000000e+00,1.000000000000000000e+01
2.849200000000000000e+04,-5.000000000000000240e-05,-1.000000000000000082e-05,-2.999999999999999737e-05,-1.000000000000000048e-04,1.399999999999999877e-04,-4.000000000000000327e-05,-1.000000000000000082e-05,-1.800000000000000113e-04,6.000000000000000000e+00,1.000000000000000000e+01
2.849300000000000000e+04,0.000000000000000000e+00,1.000000000000000082e-05,5.000000000000000240e-05,1.199999999999999895e-04,4.000000000000000327e-05,8.000000000000000654e-05,2.000000000000000164e-05,-5.999999999999999474e-05,6.000000000000000000e+00,1.000000000000000000e+01
2.849400000000000000e+04,6.999999999999999387e-05,4.000000000000000327e-05,5.999999999999999474e-05,2.600000000000000314e-04,7.500000000000000156e-04,2.500000000000000052e-04,-2.299999999999999799e-04,-1.199999999999999895e-04,6.000000000000000000e+00,1.000000000000000000e+01
2.849500000000000000e+04,6.999999999999999387e-05,4.000000000000000327e-05,5.999999999999999474e-05,2.600000000000000314e-04,7.500000000000000156e-04,2.500000000000000052e-04,-2.299999999999999799e-04,-1.199999999999999895e-04,6.000000000000000000e+00,1.000000000000000000e+01
2.849600000000000000e+04,6.999999999999999387e-05,4.000000000000000327e-05,5.999999999999999474e-05,2.600000000000000314e-04,7.500000000000000156e-04,2.500000000000000052e-04,-2.299999999999999799e-04,-1.199999999999999895e-04,6.000000000000000000e+00,1.000000000000000000e+01
2.849700000000000000e+04,6.999999999999999387e-05,4.000000000000000327e-05,5.999999999999999474e-05,2.600000000000000314e-04,7.500000000000000156e-04,2.500000000000000052e-04,-2.299999999999999799e-04,-1.199999999999999895e-04,6.000000000000000000e+00,1.000000000000000000e+01
2.849800000000000000e+04,6.999999999999999387e-05,4.000000000000000327e-05,5.999999999999999474e-05,2.600000000000000314e-04,7.500000000000000156e-04,2.500000000000000052e-04,-2.299999999999999799e-04,-1.199999999999999895e-04,6.000000000000000000e+00,1.000000000000000000e+01
2.849900000000000000e+04,6.999999999999999387e-05,4.000000000000000327e-05,5.999999999999999474e-05,2.600000000000000314e-04,7.500000000000000156e-04,2.500000000000000052e-04,-2.299999999999999799e-04,-1.199999999999999895e-04,6.000000000000000000e+00,1.000000000000000000e+01
2.850000000000000000e+04,6.999999999999999387e-05,4.000000000000000327e-05,5.999999999999999474e-05,2.600000000000000314e-04,7.500000000000000156e-04,2.500000000000000052e-04,-2.299999999999999799e-04,-1.199999999999999895e-04,6.000000000000000000e+00,1.000000000000000000e+01
2.850100000000000000e+04,6.999999999999999387e-05,4.000000000000000327e-05,5.999999999999999474e-05,2.600000000000000314e-04,7.500000000000000156e-04,2.500000000000000052e-04,-2.299999999999999799e-04,-1.199999999999999895e-04,6.000000000000000000e+00,1.000000000000000000e+01
2.850200000000000000e+04,6.999999999999999387e-05,4.000000000000000327e-05,5.999999999999999474e-05,2.600000000000000314e-04,7.500000000000000156e-04,2.500000000000000052e-04,-2.299999999999999799e-04,-1.199999999999999895e-04,6.000000000000000000e+00,1.000000000000000000e+01
2.850300000000000000e+04,6.999999999999999387e-05,4.000000000000000327e-05,5.999999999999999474e-05,2.600000000000000314e-04,7.500000000000000156e-04,2.500000000000000052e-04,-2.299999999999999799e-04,-1.199999999999999895e-04,6.000000000000000000e+00,1.000000000000000000e+01
2.850400000000000000e+04,6.999999999999999387e-05,4.000000000000000327e-05,5.999999999999999474e-05,2.600000000000000314e-04,7.500000000000000156e-04,2.500000000000000052e-04,-2.299999999999999799e-04,-1.199999999999999895e-04,6.000000000000000000e+00,1.000000000000000000e+01
2.850500000000000000e+04,6.999999999999999387e-05,4.000000000000000327e-05,5.999999999999999474e-05,2.600000000000000314e-04,7.500000000000000156e-04,2.500000000000000052e-04,-2.299999999999999799e-04,-1.199999999999999895e-04,6.000000000000000000e+00,1.000000000000000000e+01
2.850600000000000000e+04,-2.999999999999999737e-05,-2.000000000000000164e-05,1.000000000000000082e-05,-4.000000000000000327e-05,-1.499999999999999869e-04,5.000000000000000240e-05,-2.799999999999999755e-04,-6.700000000000000226e-04,6.000000000000000000e+00,1.000000000000000000e+01
2.850700000000000000e+04,-2.999999999999999737e-05,-2.000000000000000164e-05,1.000000000000000082e-05,-4.000000000000000327e-05,-1.499999999999999869e-04,5.000000000000000240e-05,-2.799999999999999755e-04,-6.700000000000000226e-04,6.000000000000000000e+00,1.000000000000000000e+01
2.850800000000000000e+04,-2.999999999999999737e-05,-2.000000000000000164e-05,1.000000000000000082e-05,-4.000000000000000327e-05,-1.499999999999999869e-04,5.000000000000000240e-05,-2.799999999999999755e-04,-6.700000000000000226e-04,6.000000000000000000e+00,1.000000000000000000e+01
2.850900000000000000e+04,-2.999999999999999737e-05,-2.000000000000000164e-05,1.000000000000000082e-05,-4.000000000000000327e-05,-1.499999999999999869e-04,5.000000000000000240e-05,-2.799999999999999755e-04,-6.700000000000000226e-04,6.000000000000000000e+00,1.000000000000000000e+01
2.851000000000000000e+04,-2.999999999999999737e-05,-2.000000000000000164e-05,1.000000000000000082e-05,-4.000000000000000327e-05,-1.499999999999999869e-04,5.000000000000000240e-05,-2.799999999999999755e-04,-6.700000000000000226e-04,6.000000000000000000e+00,1.000000000000000000e+01
2.851100000000000000e+04,-2.999999999999999737e-05,-2.000000000000000164e-05,1.000000000000000082e-05,-4.000000000000000327e-05,-1.499999999999999869e-04,5.000000000000000240e-05,-2.799999999999999755e-04,-6.700000000000000226e-04,6.000000000000000000e+00,1.000000000000000000e+01
2.851200000000000000e+04,-2.999999999999999737e-05,-2.000000000000000164e-05,1.000000000000000082e-05,-4.000000000000000327e-05,-1.499999999999999869e-04,5.000000000000000240e-05,-2.799999999999999755e-04,-6.700000000000000226e-04,6.000000000000000000e+00,1.000000000000000000e+01
2.851300000000000000e+04,-5.999999999999999474e-05,-8.000000000000000654e-05,-1.399999999999999877e-04,-2.200000000000000078e-04,-6.199999999999999999e-04,-1.699999999999999851e-04,2.999999999999999737e-05,5.000000000000000240e-05,6.000000000000000000e+00,1.000000000000000000e+01
2.851400000000000000e+04,-5.999999999999999474e-05,-8.000000000000000654e-05,-1.399999999999999877e-04,-2.200000000000000078e-04,-6.199999999999999999e-04,-1.699999999999999851e-04,2.999999999999999737e-05,5.000000000000000240e-05,6.000000000000000000e+00,1.000000000000000000e+01
2.851500000000000000e+04,-5.999999999999999474e-05,-8.000000000000000654e-05,-1.399999999999999877e-04,-2.200000000000000078e-04,-6.199999999999999999e-04,-1.699999999999999851e-04,2.999999999999999737e-05,5.000000000000000240e-05,6.000000000000000000e+00,1.000000000000000000e+01
2.851600000000000000e+04,-5.999999999999999474e-05,-8.000000000000000654e-05,-1.399999999999999877e-04,-2.200000000000000078e-04,-6.199999999999999999e-04,-1.699999999999999851e-04,2.999999999999999737e-05,5.000000000000000240e-05,6.000000000000000000e+00,1.000000000000000000e+01
2.851700000000000000e+04,-5.999999999999999474e-05,-8.000000000000000654e-05,-1.399999999999999877e-04,-2.200000000000000078e-04,-6.199999999999999999e-04,-1.699999999999999851e-04,2.999999999999999737e-05,5.000000000000000240e-05,6.000000000000000000e+00,1.000000000000000000e+01
2.851800000000000000e+04,-5.999999999999999474e-05,-8.000000000000000654e-05,-1.399999999999999877e-04,-2.200000000000000078e-04,-6.199999999999999999e-04,-1.699999999999999851e-04,2.999999999999999737e-05,5.000000000000000240e-05,6.000000000000000000e+00,1.000000000000000000e+01
2.851900000000000000e+04,-5.999999999999999474e-05,-8.000000000000000654e-05,-1.399999999999999877e-04,-2.200000000000000078e-04,-6.199999999999999999e-04,-1.699999999999999851e-04,2.999999999999999737e-05,5.000000000000000240e-05,6.000000000000000000e+00,1.000000000000000000e+01
2.852000000000000000e+04,-5.999999999999999474e-05,-8.000000000000000654e-05,-1.399999999999999877e-04,-2.200000000000000078e-04,-6.199999999999999999e-04,-1.699999999999999851e-04,2.999999999999999737e-05,5.000000000000000240e-05,6.000000000000000000e+00,1.000000000000000000e+01
2.852100000000000000e+04,-5.999999999999999474e-05,-8.000000000000000654e-05,-1.399999999999999877e-04,-2.200000000000000078e-04,-6.199999999999999999e-04,-1.699999999999999851e-04,2.999999999999999737e-05,5.000000000000000240e-05,6.000000000000000000e+00,1.000000000000000000e+01
2.852200000000000000e+04,-5.999999999999999474e-05,-8.000000000000000654e-05,-1.399999999999999877e-04,-2.200000000000000078e-04,-6.199999999999999999e-04,-1.699999999999999851e-04,2.999999999999999737e-05,5.000000000000000240e-05,6.000000000000000000e+00,1.000000000000000000e+01
2.852300000000000000e+04,-5.999999999999999474e-05,-8.000000000000000654e-05,-1.399999999999999877e-04,-2.200000000000000078e-04,-6.199999999999999999e-04,-1.699999999999999851e-04,2.999999999999999737e-05,5.000000000000000240e-05,6.000000000000000000e+00,1.000000000000000000e+01
2.852400000000000000e+04,-5.999999999999999474e-05,-8.000000000000000654e-05,-1.399999999999999877e-04,-2.200000000000000078e-04,-6.199999999999999999e-04,-1.699999999999999851e-04,2.999999999999999737e-05,5.000000000000000240e-05,6.000000000000000000e+00,1.000000000000000000e+01
2.852500000000000000e+04,-5.999999999999999474e-05,-8.000000000000000654e-05,-1.399999999999999877e-04,-2.200000000000000078e-04,-6.199999999999999999e-04,-1.699999999999999851e-04,2.999999999999999737e-05,5.000000000000000240e-05,6.000000000000000000e+00,1.000000000000000000e+01
2.852600000000000000e+04,-5.999999999999999474e-05,-8.000000000000000654e-05,-1.399999999999999877e-04,-2.200000000000000078e-04,-6.199999999999999999e-04,-1.699999999999999851e-04,2.999999999999999737e-05,5.000000000000000240e-05,6.000000000000000000e+00,1.000000000000000000e+01
2.852700000000000000e+04,-5.999999999999999474e-05,-8.000000000000000654e-05,-1.399999999999999877e-04,-2.200000000000000078e-04,-6.199999999999999999e-04,-1.699999999999999851e-04,2.999999999999999737e-05,5.000000000000000240e-05,6.000000000000000000e+00,1.000000000000000000e+01
2.852800000000000000e+04,-5.999999999999999474e-05,-8.000000000000000654e-05,-1.399999999999999877e-04,-2.200000000000000078e-04,-6.199999999999999999e-04,-1.699999999999999851e-04,2.999999999999999737e-05,5.000000000000000240e-05,6.000000000000000000e+00,1.000000000000000000e+01
2.852900000000000000e+04,-5.999999999999999474e-05,-8.000000000000000654e-05,-1.399999999999999877e-04,-2.200000000000000078e-04,-6.199999999999999999e-04,-1.699999999999999851e-04,2.999999999999999737e-05,5.000000000000000240e-05,6.000000000000000000e+00,1.000000000000000000e+01
2.853000000000000000e+04,-5.000000000000000240e-05,2.000000000000000164e-05,2.000000000000000164e-05,-2.000000000000000164e-05,1.899999999999999834e-04,2.799999999999999755e-04,2.500000000000000052e-04,-5.800000000000000034e-04,6.000000000000000000e+00,1.000000000000000000e+01
2.853100000000000000e+04,-2.999999999999999737e-05,-5.999999999999999474e-05,-2.999999999999999737e-05,-5.999999999999999474e-05,1.899999999999999834e-04,4.299999999999999894e-04,8.000000000000000654e-05,2.000000000000000164e-05,6.000000000000000000e+00,1.000000000000000000e+01
2.853200000000000000e+04,-2.999999999999999737e-05,-5.999999999999999474e-05,-2.999999999999999737e-05,-5.999999999999999474e-05,1.899999999999999834e-04,4.299999999999999894e-04,8.000000000000000654e-05,2.000000000000000164e-05,6.000000000000000000e+00,1.000000000000000000e+01
2.853300000000000000e+04,-2.999999999999999737e-05,-5.999999999999999474e-05,-2.999999999999999737e-05,-5.999999999999999474e-05,1.899999999999999834e-04,4.299999999999999894e-04,8.000000000000000654e-05,2.000000000000000164e-05,6.000000000000000000e+00,1.000000000000000000e+01
2.853400000000000000e+04,-2.999999999999999737e-05,-5.999999999999999474e-05,-2.999999999999999737e-05,-5.999999999999999474e-05,1.899999999999999834e-04,4.299999999999999894e-04,8.000000000000000654e-05,2.000000000000000164e-05,6.000000000000000000e+00,1.000000000000000000e+01
2.853500000000000000e+04,-2.999999999999999737e-05,-5.999999999999999474e-05,-2.999999999999999737e-05,-5.999999999999999474e-05,1.899999999999999834e-04,4.299999999999999894e-04,8.000000000000000654e-05,2.000000000000000164e-05,6.000000000000000000e+00,1.000000000000000000e+01
2.853600000000000000e+04,-2.999999999999999737e-05,-5.999999999999999474e-05,-2.999999999999999737e-05,-5.999999999999999474e-05,1.899999999999999834e-04,4.299999999999999894e-04,8.000000000000000654e-05,2.000000000000000164e-05,6.000000000000000000e+00,1.000000000000000000e+01
2.853800000000000000e+04,-2.999999999999999737e-05,-5.999999999999999474e-05,-2.999999999999999737e-05,-5.999999999999999474e-05,1.899999999999999834e-04,4.299999999999999894e-04,8.000000000000000654e-05,2.000000000000000164e-05,6.000000000000000000e+00,1.000000000000000000e+01
2.853900000000000000e+04,-2.999999999999999737e-05,-5.999999999999999474e-05,-2.999999999999999737e-05,-5.999999999999999474e-05,1.899999999999999834e-04,4.299999999999999894e-04,8.000000000000000654e-05,2.000000000000000164e-05,6.000000000000000000e+00,1.000000000000000000e+01
2.854000000000000000e+04,-2.999999999999999737e-05,-5.999999999999999474e-05,-2.999999999999999737e-05,-5.999999999999999474e-05,1.899999999999999834e-04,4.299999999999999894e-04,8.000000000000000654e-05,2.000000000000000164e-05,6.000000000000000000e+00,1.000000000000000000e+01
2.854100000000000000e+04,-2.999999999999999737e-05,-5.999999999999999474e-05,-2.999999999999999737e-05,-5.999999999999999474e-05,1.899999999999999834e-04,4.299999999999999894e-04,8.000000000000000654e-05,2.000000000000000164e-05,6.000000000000000000e+00,1.000000000000000000e+01
2.854200000000000000e+04,-2.999999999999999737e-05,-5.999999999999999474e-05,-2.999999999999999737e-05,-5.999999999999999474e-05,1.899999999999999834e-04,4.299999999999999894e-04,8.000000000000000654e-05,2.000000000000000164e-05,6.000000000000000000e+00,1.000000000000000000e+01
2.854300000000000000e+04,-2.999999999999999737e-05,-5.999999999999999474e-05,-2.999999999999999737e-05,-5.999999999999999474e-05,1.899999999999999834e-04,4.299999999999999894e-04,8.000000000000000654e-05,2.000000000000000164e-05,6.000000000000000000e+00,1.000000000000000000e+01
2.854400000000000000e+04,-2.999999999999999737e-05,-5.999999999999999474e-05,-2.999999999999999737e-05,-5.999999999999999474e-05,1.899999999999999834e-04,4.299999999999999894e-04,8.000000000000000654e-05,2.000000000000000164e-05,6.000000000000000000e+00,1.000000000000000000e+01
2.854500000000000000e+04,-2.999999999999999737e-05,-5.999999999999999474e-05,-2.999999999999999737e-05,-5.999999999999999474e-05,1.899999999999999834e-04,4.299999999999999894e-04,8.000000000000000654e-05,2.000000000000000164e-05,6.000000000000000000e+00,1.000000000000000000e+01
2.854600000000000000e+04,-2.999999999999999737e-05,-5.999999999999999474e-05,-2.999999999999999737e-05,-5.999999999999999474e-05,1.899999999999999834e-04,4.299999999999999894e-04,8.000000000000000654e-05,2.000000000000000164e-05,6.000000000000000000e+00,1.000000000000000000e+01
2.854700000000000000e+04,-2.999999999999999737e-05,-5.999999999999999474e-05,-2.999999999999999737e-05,-5.999999999999999474e-05,1.899999999999999834e-04,4.299999999999999894e-04,8.000000000000000654e-05,2.000000000000000164e-05,6.000000000000000000e+00,1.000000000000000000e+01
2.854800000000000000e+04,-2.999999999999999737e-05,-5.999999999999999474e-05,-2.999999999999999737e-05,-5.999999999999999474e-05,1.899999999999999834e-04,4.299999999999999894e-04,8.000000000000000654e-05,2.000000000000000164e-05,6.000000000000000000e+00,1.000000000000000000e+01
2.854900000000000000e+04,-2.999999999999999737e-05,-5.999999999999999474e-05,-2.999999999999999737e-05,-5.999999999999999474e-05,1.899999999999999834e-04,4.299999999999999894e-04,8.000000000000000654e-05,2.000000000000000164e-05,6.000000000000000000e+00,1.000000000000000000e+01
2.855000000000000000e+04,-2.999999999999999737e-05,-5.999999999999999474e-05,-2.999999999999999737e-05,-5.999999999999999474e-05,1.899999999999999834e-04,4.299999999999999894e-04,8.000000000000000654e-05,2.000000000000000164e-05,6.000000000000000000e+00,1.000000000000000000e+01
2.855100000000000000e+04,-2.999999999999999737e-05,-5.999999999999999474e-05,-2.999999999999999737e-05,-5.999999999999999474e-05,1.899999999999999834e-04,4.299999999999999894e-04,8.000000000000000654e-05,2.000000000000000164e-05,6.000000000000000000e+00,1.000000000000000000e+01
2.855200000000000000e+04,-2.999999999999999737e-05,-5.999999999999999474e-05,-2.999999999999999737e-05,-5.999999999999999474e-05,1.899999999999999834e-04,4.299999999999999894e-04,8.000000000000000654e-05,2.000000000000000164e-05,6.000000000000000000e+00,1.000000000000000000e+01
2.855300000000000000e+04,5.000000000000000240e-05,-1.000000000000000082e-05,-4.000000000000000327e-05,1.000000000000000082e-05,4.700000000000000401e-04,-2.100000000000000087e-04,-9.000000000000000567e-05,-6.099999999999999737e-04,6.000000000000000000e+00,1.000000000000000000e+01
2.855400000000000000e+04,-1.000000000000000082e-05,1.000000000000000082e-05,4.000000000000000327e-05,5.000000000000000240e-05,-1.899999999999999834e-04,1.899999999999999834e-04,6.999999999999999387e-05,-3.299999999999999982e-04,6.000000000000000000e+00,1.000000000000000000e+01
2.855500000000000000e+04,-1.000000000000000082e-05,1.000000000000000082e-05,4.000000000000000327e-05,5.000000000000000240e-05,-1.899999999999999834e-04,1.899999999999999834e-04,6.999999999999999387e-05,-3.299999999999999982e-04,6.000000000000000000e+00,1.000000000000000000e+01
2.855600000000000000e+04,-1.000000000000000082e-05,1.000000000000000082e-05,4.000000000000000327e-05,5.000000000000000240e-05,-1.899999999999999834e-04,1.899999999999999834e-04,6.999999999999999387e-05,-3.299999999999999982e-04,6.000000000000000000e+00,1.000000000000000000e+01
2.855700000000000000e+04,-1.000000000000000082e-05,1.000000000000000082e-05,4.000000000000000327e-05,5.000000000000000240e-05,-1.899999999999999834e-04,1.899999999999999834e-04,6.999999999999999387e-05,-3.299999999999999982e-04,6.000000000000000000e+00,1.000000000000000000e+01
2.855800000000000000e+04,-1.000000000000000082e-05,1.000000000000000082e-05,4.000000000000000327e-05,5.000000000000000240e-05,-1.899999999999999834e-04,1.899999999999999834e-04,6.999999999999999387e-05,-3.299999999999999982e-04,6.000000000000000000e+00,1.000000000000000000e+01
2.855900000000000000e+04,-1.000000000000000082e-05,1.000000000000000082e-05,4.000000000000000327e-05,5.000000000000000240e-05,-1.899999999999999834e-04,1.899999999999999834e-04,6.999999999999999387e-05,-3.299999999999999982e-04,6.000000000000000000e+00,1.000000000000000000e+01
2.856000000000000000e+04,-1.000000000000000082e-05,1.000000000000000082e-05,4.000000000000000327e-05,5.000000000000000240e-05,-1.899999999999999834e-04,1.899999999999999834e-04,6.999999999999999387e-05,-3.299999999999999982e-04,6.000000000000000000e+00,1.000000000000000000e+01
2.856100000000000000e+04,-1.000000000000000082e-05,1.000000000000000082e-05,4.000000000000000327e-05,5.000000000000000240e-05,-1.899999999999999834e-04,1.899999999999999834e-04,6.999999999999999387e-05,-3.299999999999999982e-04,6.000000000000000000e+00,1.000000000000000000e+01
2.856200000000000000e+04,-1.000000000000000082e-05,1.000000000000000082e-05,4.000000000000000327e-05,5.000000000000000240e-05,-1.899999999999999834e-04,1.899999999999999834e-04,6.999999999999999387e-05,-3.299999999999999982e-04,6.000000000000000000e+00,1.000000000000000000e+01
2.856300000000000000e+04,-1.000000000000000082e-05,1.000000000000000082e-05,4.000000000000000327e-05,5.000000000000000240e-05,-1.899999999999999834e-04,1.899999999999999834e-04,6.999999999999999387e-05,-3.299999999999999982e-04,6.000000000000000000e+00,1.000000000000000000e+01
2.856400000000000000e+04,-1.000000000000000082e-05,1.000000000000000082e-05,4.000000000000000327e-05,5.000000000000000240e-05,-1.899999999999999834e-04,1.899999999999999834e-04,6.999999999999999387e-05,-3.299999999999999982e-04,6.000000000000000000e+00,1.000000000000000000e+01
2.856500000000000000e+04,-1.000000000000000082e-05,1.000000000000000082e-05,4.000000000000000327e-05,5.000000000000000240e-05,-1.899999999999999834e-04,1.899999999999999834e-04,6.999999999999999387e-05,-3.299999999999999982e-04,6.000000000000000000e+00,1.000000000000000000e+01
2.856600000000000000e+04,2.999999999999999737e-05,0.000000000000000000e+00,-2.999999999999999737e-05,-1.000000000000000082e-05,-5.999999999999999474e-05,4.000000000000000192e-04,9.000000000000000567e-05,2.500000000000000052e-04,6.000000000000000000e+00,1.000000000000000000e+01
2.856700000000000000e+04,2.999999999999999737e-05,0.000000000000000000e+00,-2.999999999999999737e-05,-1.000000000000000082e-05,-5.999999999999999474e-05,4.000000000000000192e-04,9.000000000000000567e-05,2.500000000000000052e-04,6.000000000000000000e+00,1.000000000000000000e+01
2.856800000000000000e+04,2.999999999999999737e-05,0.000000000000000000e+00,-2.999999999999999737e-05,-1.000000000000000082e-05,-5.999999999999999474e-05,4.000000000000000192e-04,9.000000000000000567e-05,2.500000000000000052e-04,6.000000000000000000e+00,1.000000000000000000e+01
2.856900000000000000e+04,2.999999999999999737e-05,0.000000000000000000e+00,-2.999999999999999737e-05,-1.000000000000000082e-05,-5.999999999999999474e-05,4.000000000000000192e-04,9.000000000000000567e-05,2.500000000000000052e-04,6.000000000000000000e+00,1.000000000000000000e+01
2.857000000000000000e+04,2.999999999999999737e-05,0.000000000000000000e+00,-2.999999999999999737e-05,-1.000000000000000082e-05,-5.999999999999999474e-05,4.000000000000000192e-04,9.000000000000000567e-05,2.500000000000000052e-04,6.000000000000000000e+00,1.000000000000000000e+01
2.857100000000000000e+04,2.999999999999999737e-05,0.000000000000000000e+00,-2.999999999999999737e-05,-1.000000000000000082e-05,-5.999999999999999474e-05,4.000000000000000192e-04,9.000000000000000567e-05,2.500000000000000052e-04,6.000000000000000000e+00,1.000000000000000000e+01
2.857200000000000000e+04,2.999999999999999737e-05,0.000000000000000000e+00,-2.999999999999999737e-05,-1.000000000000000082e-05,-5.999999999999999474e-05,4.000000000000000192e-04,9.000000000000000567e-05,2.500000000000000052e-04,6.000000000000000000e+00,1.000000000000000000e+01
2.857300000000000000e+04,0.000000000000000000e+00,2.999999999999999737e-05,5.000000000000000240e-05,0.000000000000000000e+00,-2.999999999999999737e-04,-7.399999999999999894e-04,-2.299999999999999799e-04,-1.499999999999999869e-04,6.000000000000000000e+00,1.000000000000000000e+01
2.857400000000000000e+04,0.000000000000000000e+00,2.999999999999999737e-05,5.000000000000000240e-05,0.000000000000000000e+00,-2.999999999999999737e-04,-7.399999999999999894e-04,-2.299999999999999799e-04,-1.499999999999999869e-04,6.000000000000000000e+00,1.000000000000000000e+01
2.857500000000000000e+04,0.000000000000000000e+00,2.999999999999999737e-05,5.000000000000000240e-05,0.000000000000000000e+00,-2.999999999999999737e-04,-7.399999999999999894e-04,-2.299999999999999799e-04,-1.499999999999999869e-04,6.000000000000000000e+00,1.000000000000000000e+01
2.857600000000000000e+04,0.000000000000000000e+00,2.999999999999999737e-05,5.000000000000000240e-05,0.000000000000000000e+00,-2.999999999999999737e-04,-7.399999999999999894e-04,-2.299999999999999799e-04,-1.499999999999999869e-04,6.000000000000000000e+00,1.000000000000000000e+01
2.857700000000000000e+04,0.000000000000000000e+00,2.999999999999999737e-05,5.000000000000000240e-05,0.000000000000000000e+00,-2.999999999999999737e-04,-7.399999999999999894e-04,-2.299999999999999799e-04,-1.499999999999999869e-04,6.000000000000000000e+00,1.000000000000000000e+01
2.857800000000000000e+04,0.000000000000000000e+00,2.999999999999999737e-05,5.000000000000000240e-05,0.000000000000000000e+00,-2.999999999999999737e-04,-7.399999999999999894e-04,-2.299999999999999799e-04,-1.499999999999999869e-04,6.000000000000000000e+00,1.000000000000000000e+01
2.857900000000000000e+04,0.000000000000000000e+00,2.999999999999999737e-05,5.000000000000000240e-05,0.000000000000000000e+00,-2.999999999999999737e-04,-7.399999999999999894e-04,-2.299999999999999799e-04,-1.499999999999999869e-04,6.000000000000000000e+00,1.000000000000000000e+01
2.858000000000000000e+04,0.000000000000000000e+00,2.999999999999999737e-05,5.000000000000000240e-05,0.000000000000000000e+00,-2.999999999999999737e-04,-7.399999999999999894e-04,-2.299999999999999799e-04,-1.499999999999999869e-04,6.000000000000000000e+00,1.000000000000000000e+01
2.858100000000000000e+04,0.000000000000000000e+00,2.999999999999999737e-05,5.000000000000000240e-05,0.000000000000000000e+00,-2.999999999999999737e-04,-7.399999999999999894e-04,-2.299999999999999799e-04,-1.499999999999999869e-04,6.000000000000000000e+00,1.000000000000000000e+01
2.858200000000000000e+04,0.000000000000000000e+00,2.999999999999999737e-05,5.000000000000000240e-05,0.000000000000000000e+00,-2.999999999999999737e-04,-7.399999999999999894e-04,-2.299999999999999799e-04,-1.499999999999999869e-04,6.000000000000000000e+00,1.000000000000000000e+01
2.858300000000000000e+04,0.000000000000000000e+00,2.999999999999999737e-05,5.000000000000000240e-05,0.000000000000000000e+00,-2.999999999999999737e-04,-7.399999999999999894e-04,-2.299999999999999799e-04,-1.499999999999999869e-04,6.000000000000000000e+00,1.000000000000000000e+01
2.858400000000000000e+04,0.000000000000000000e+00,2.999999999999999737e-05,5.000000000000000240e-05,0.000000000000000000e+00,-2.999999999999999737e-04,-7.399999999999999894e-04,-2.299999999999999799e-04,-1.499999999999999869e-04,6.000000000000000000e+00,1.000000000000000000e+01
2.858500000000000000e+04,0.000000000000000000e+00,2.999999999999999737e-05,5.000000000000000240e-05,0.000000000000000000e+00,-2.999999999999999737e-04,-7.399999999999999894e-04,-2.299999999999999799e-04,-1.499999999999999869e-04,6.000000000000000000e+00,1.000000000000000000e+01
2.858600000000000000e+04,0.000000000000000000e+00,2.999999999999999737e-05,5.000000000000000240e-05,0.000000000000000000e+00,-2.999999999999999737e-04,-7.399999999999999894e-04,-2.299999999999999799e-04,-1.499999999999999869e-04,6.000000000000000000e+00,1.000000000000000000e+01
2.858800000000000000e+04,0.000000000000000000e+00,2.999999999999999737e-05,5.000000000000000240e-05,0.000000000000000000e+00,-2.999999999999999737e-04,-7.399999999999999894e-04,-2.299999999999999799e-04,-1.499999999999999869e-04,6.000000000000000000e+00,1.000000000000000000e+01
2.858900000000000000e+04,-2.999999999999999737e-05,0.000000000000000000e+00,1.000000000000000082e-05,-4.000000000000000327e-05,-7.900000000000000121e-04,-4.700000000000000401e-04,-2.000000000000000164e-05,2.299999999999999799e-04,6.000000000000000000e+00,1.000000000000000000e+01
2.859000000000000000e+04,-2.999999999999999737e-05,0.000000000000000000e+00,1.000000000000000082e-05,-4.000000000000000327e-05,-7.900000000000000121e-04,-4.700000000000000401e-04,-2.000000000000000164e-05,2.299999999999999799e-04,6.000000000000000000e+00,1.000000000000000000e+01
2.859100000000000000e+04,2.000000000000000164e-05,0.000000000000000000e+00,0.000000000000000000e+00,4.000000000000000327e-05,3.699999999999999947e-04,1.100000000000000039e-04,1.100000000000000039e-04,-4.000000000000000327e-05,6.000000000000000000e+00,1.000000000000000000e+01
2.859200000000000000e+04,2.000000000000000164e-05,0.000000000000000000e+00,0.000000000000000000e+00,4.000000000000000327e-05,3.699999999999999947e-04,1.100000000000000039e-04,1.100000000000000039e-04,-4.000000000000000327e-05,6.000000000000000000e+00,1.000000000000000000e+01
2.859300000000000000e+04,2.000000000000000164e-05,0.000000000000000000e+00,0.000000000000000000e+00,4.000000000000000327e-05,3.699999999999999947e-04,1.100000000000000039e-04,1.100000000000000039e-04,-4.000000000000000327e-05,6.000000000000000000e+00,1.000000000000000000e+01
2.859400000000000000e+04,2.000000000000000164e-05,0.000000000000000000e+00,0.000000000000000000e+00,4.000000000000000327e-05,3.699999999999999947e-04,1.100000000000000039e-04,1.100000000000000039e-04,-4.000000000000000327e-05,6.000000000000000000e+00,1.000000000000000000e+01
2.859500000000000000e+04,2.000000000000000164e-05,0.000000000000000000e+00,0.000000000000000000e+00,4.000000000000000327e-05,3.699999999999999947e-04,1.100000000000000039e-04,1.100000000000000039e-04,-4.000000000000000327e-05,6.000000000000000000e+00,1.000000000000000000e+01
2.859600000000000000e+04,2.000000000000000164e-05,0.000000000000000000e+00,0.000000000000000000e+00,4.000000000000000327e-05,3.699999999999999947e-04,1.100000000000000039e-04,1.100000000000000039e-04,-4.000000000000000327e-05,6.000000000000000000e+00,1.000000000000000000e+01
2.859700000000000000e+04,2.000000000000000164e-05,0.000000000000000000e+00,0.000000000000000000e+00,4.000000000000000327e-05,3.699999999999999947e-04,1.100000000000000039e-04,1.100000000000000039e-04,-4.000000000000000327e-05,6.000000000000000000e+00,1.000000000000000000e+01
2.859800000000000000e+04,2.000000000000000164e-05,0.000000000000000000e+00,0.000000000000000000e+00,4.000000000000000327e-05,3.699999999999999947e-04,1.100000000000000039e-04,1.100000000000000039e-04,-4.000000000000000327e-05,6.000000000000000000e+00,1.000000000000000000e+01
2.859900000000000000e+04,2.000000000000000164e-05,0.000000000000000000e+00,0.000000000000000000e+00,4.000000000000000327e-05,3.699999999999999947e-04,1.100000000000000039e-04,1.100000000000000039e-04,-4.000000000000000327e-05,6.000000000000000000e+00,1.000000000000000000e+01
2.860000000000000000e+04,2.000000000000000164e-05,0.000000000000000000e+00,0.000000000000000000e+00,4.000000000000000327e-05,3.699999999999999947e-04,1.100000000000000039e-04,1.100000000000000039e-04,-4.000000000000000327e-05,6.000000000000000000e+00,1.000000000000000000e+01
2.860100000000000000e+04,2.000000000000000164e-05,0.000000000000000000e+00,0.000000000000000000e+00,4.000000000000000327e-05,3.699999999999999947e-04,1.100000000000000039e-04,1.100000000000000039e-04,-4.000000000000000327e-05,6.000000000000000000e+00,1.000000000000000000e+01
2.860200000000000000e+04,2.000000000000000164e-05,0.000000000000000000e+00,0.000000000000000000e+00,4.000000000000000327e-05,3.699999999999999947e-04,1.100000000000000039e-04,1.100000000000000039e-04,-4.000000000000000327e-05,6.000000000000000000e+00,1.000000000000000000e+01
2.860300000000000000e+04,2.000000000000000164e-05,0.000000000000000000e+00,0.000000000000000000e+00,4.000000000000000327e-05,3.699999999999999947e-04,1.100000000000000039e-04,1.100000000000000039e-04,-4.000000000000000327e-05,6.000000000000000000e+00,1.000000000000000000e+01
2.860400000000000000e+04,2.000000000000000164e-05,0.000000000000000000e+00,0.000000000000000000e+00,4.000000000000000327e-05,3.699999999999999947e-04,1.100000000000000039e-04,1.100000000000000039e-04,-4.000000000000000327e-05,6.000000000000000000e+00,1.000000000000000000e+01
2.860500000000000000e+04,2.000000000000000164e-05,0.000000000000000000e+00,0.000000000000000000e+00,4.000000000000000327e-05,3.699999999999999947e-04,1.100000000000000039e-04,1.100000000000000039e-04,-4.000000000000000327e-05,6.000000000000000000e+00,1.000000000000000000e+01
2.860600000000000000e+04,2.000000000000000164e-05,0.000000000000000000e+00,0.000000000000000000e+00,4.000000000000000327e-05,3.699999999999999947e-04,1.100000000000000039e-04,1.100000000000000039e-04,-4.000000000000000327e-05,6.000000000000000000e+00,1.000000000000000000e+01
2.860700000000000000e+04,2.000000000000000164e-05,0.000000000000000000e+00,0.000000000000000000e+00,4.000000000000000327e-05,3.699999999999999947e-04,1.100000000000000039e-04,1.100000000000000039e-04,-4.000000000000000327e-05,6.000000000000000000e+00,1.000000000000000000e+01
2.860800000000000000e+04,2.000000000000000164e-05,0.000000000000000000e+00,0.000000000000000000e+00,4.000000000000000327e-05,3.699999999999999947e-04,1.100000000000000039e-04,1.100000000000000039e-04,-4.000000000000000327e-05,6.000000000000000000e+00,1.000000000000000000e+01
2.860900000000000000e+04,2.000000000000000164e-05,0.000000000000000000e+00,0.000000000000000000e+00,4.000000000000000327e-05,3.699999999999999947e-04,1.100000000000000039e-04,1.100000000000000039e-04,-4.000000000000000327e-05,6.000000000000000000e+00,1.000000000000000000e+01
2.861000000000000000e+04,2.000000000000000164e-05,0.000000000000000000e+00,0.000000000000000000e+00,4.000000000000000327e-05,3.699999999999999947e-04,1.100000000000000039e-04,1.100000000000000039e-04,-4.000000000000000327e-05,6.000000000000000000e+00,1.000000000000000000e+01
2.861100000000000000e+04,2.000000000000000164e-05,0.000000000000000000e+00,0.000000000000000000e+00,4.000000000000000327e-05,3.699999999999999947e-04,1.100000000000000039e-04,1.100000000000000039e-04,-4.000000000000000327e-05,6.000000000000000000e+00,1.000000000000000000e+01
2.861200000000000000e+04,-1.000000000000000082e-05,-5.000000000000000240e-05,-9.000000000000000567e-05,-1.100000000000000039e-04,-1.600000000000000131e-04,4.899999999999999842e-04,6.999999999999999387e-05,4.700000000000000401e-04,6.000000000000000000e+00,1.000000000000000000e+01
2.861300000000000000e+04,-1.000000000000000082e-05,-5.000000000000000240e-05,-9.000000000000000567e-05,-1.100000000000000039e-04,-1.600000000000000131e-04,4.899999999999999842e-04,6.999999999999999387e-05,4.700000000000000401e-04,6.000000000000000000e+00,1.000000000000000000e+01
2.861400000000000000e+04,-1.000000000000000082e-05,-5.000000000000000240e-05,-9.000000000000000567e-05,-1.100000000000000039e-04,-1.600000000000000131e-04,4.899999999999999842e-04,6.999999999999999387e-05,4.700000000000000401e-04,6.000000000000000000e+00,1.000000000000000000e+01
2.861500000000000000e+04,-1.000000000000000082e-05,-5.000000000000000240e-05,-9.000000000000000567e-05,-1.100000000000000039e-04,-1.600000000000000131e-04,4.899999999999999842e-04,6.999999999999999387e-05,4.700000000000000401e-04,6.000000000000000000e+00,1.000000000000000000e+01
2.861600000000000000e+04,-1.000000000000000082e-05,-5.000000000000000240e-05,-9.000000000000000567e-05,-1.100000000000000039e-04,-1.600000000000000131e-04,4.899999999999999842e-04,6.999999999999999387e-05,4.700000000000000401e-04,6.000000000000000000e+00,1.000000000000000000e+01
2.861700000000000000e+04,-1.000000000000000082e-05,-5.000000000000000240e-05,-9.000000000000000567e-05,-1.100000000000000039e-04,-1.600000000000000131e-04,4.899999999999999842e-04,6.999999999999999387e-05,4.700000000000000401e-04,6.000000000000000000e+00,1.000000000000000000e+01
2.861800000000000000e+04,-1.000000000000000082e-05,-5.000000000000000240e-05,-9.000000000000000567e-05,-1.100000000000000039e-04,-1.600000000000000131e-04,4.899999999999999842e-04,6.999999999999999387e-05,4.700000000000000401e-04,6.000000000000000000e+00,1.000000000000000000e+01
2.861900000000000000e+04,-2.999999999999999737e-05,0.000000000000000000e+00,0.000000000000000000e+00,-2.000000000000000164e-05,3.799999999999999667e-04,3.200000000000000262e-04,-5.000000000000000240e-05,-8.000000000000000383e-04,6.000000000000000000e+00,1.000000000000000000e+01
2.862000000000000000e+04,-2.999999999999999737e-05,0.000000000000000000e+00,0.000000000000000000e+00,-2.000000000000000164e-05,3.799999999999999667e-04,3.200000000000000262e-04,-5.000000000000000240e-05,-8.000000000000000383e-04,6.000000000000000000e+00,1.000000000000000000e+01
2.862100000000000000e+04,-2.999999999999999737e-05,0.000000000000000000e+00,0.000000000000000000e+00,-2.000000000000000164e-05,3.799999999999999667e-04,3.200000000000000262e-04,-5.000000000000000240e-05,-8.000000000000000383e-04,6.000000000000000000e+00,1.000000000000000000e+01
2.862200000000000000e+04,-2.999999999999999737e-05,0.000000000000000000e+00,0.000000000000000000e+00,-2.000000000000000164e-05,3.799999999999999667e-04,3.200000000000000262e-04,-5.000000000000000240e-05,-8.000000000000000383e-04,6.000000000000000000e+00,1.000000000000000000e+01
2.862300000000000000e+04,-2.999999999999999737e-05,0.000000000000000000e+00,0.000000000000000000e+00,-2.000000000000000164e-05,3.799999999999999667e-04,3.200000000000000262e-04,-5.000000000000000240e-05,-8.000000000000000383e-04,6.000000000000000000e+00,1.000000000000000000e+01
2.862400000000000000e+04,-2.999999999999999737e-05,0.000000000000000000e+00,0.000000000000000000e+00,-2.000000000000000164e-05,3.799999999999999667e-04,3.200000000000000262e-04,-5.000000000000000240e-05,-8.000000000000000383e-04,6.000000000000000000e+00,1.000000000000000000e+01
2.862500000000000000e+04,-2.000000000000000164e-05,-1.000000000000000082e-05,2.999999999999999737e-05,2.000000000000000096e-04,3.200000000000000262e-04,-7.299999999999999632e-04,0.000000000000000000e+00,-9.000000000000000567e-05,6.000000000000000000e+00,1.000000000000000000e+01
2.862600000000000000e+04,0.000000000000000000e+00,0.000000000000000000e+00,1.000000000000000082e-05,2.999999999999999737e-05,4.000000000000000327e-05,8.000000000000000654e-05,-1.100000000000000039e-04,4.200000000000000174e-04,6.000000000000000000e+00,1.000000000000000000e+01
2.862700000000000000e+04,0.000000000000000000e+00,0.000000000000000000e+00,1.000000000000000082e-05,2.999999999999999737e-05,4.000000000000000327e-05,8.000000000000000654e-05,-1.100000000000000039e-04,4.200000000000000174e-04,6.000000000000000000e+00,1.000000000000000000e+01
2.862800000000000000e+04,0.000000000000000000e+00,0.000000000000000000e+00,1.000000000000000082e-05,2.999999999999999737e-05,4.000000000000000327e-05,8.000000000000000654e-05,-1.100000000000000039e-04,4.200000000000000174e-04,6.000000000000000000e+00,1.000000000000000000e+01
2.862900000000000000e+04,0.000000000000000000e+00,0.000000000000000000e+00,1.000000000000000082e-05,2.999999999999999737e-05,4.000000000000000327e-05,8.000000000000000654e-05,-1.100000000000000039e-04,4.200000000000000174e-04,6.000000000000000000e+00,1.000000000000000000e+01
2.863000000000000000e+04,0.000000000000000000e+00,0.000000000000000000e+00,1.000000000000000082e-05,2.999999999999999737e-05,4.000000000000000327e-05,8.000000000000000654e-05,-1.100000000000000039e-04,4.200000000000000174e-04,6.000000000000000000e+00,1.000000000000000000e+01
2.863100000000000000e+04,0.000000000000000000e+00,0.000000000000000000e+00,1.000000000000000082e-05,2.999999999999999737e-05,4.000000000000000327e-05,8.000000000000000654e-05,-1.100000000000000039e-04,4.200000000000000174e-04,6.000000000000000000e+00,1.000000000000000000e+01
2.863200000000000000e+04,0.000000000000000000e+00,0.000000000000000000e+00,1.000000000000000082e-05,2.999999999999999737e-05,4.000000000000000327e-05,8.000000000000000654e-05,-1.100000000000000039e-04,4.200000000000000174e-04,6.000000000000000000e+00,1.000000000000000000e+01
2.863300000000000000e+04,0.000000000000000000e+00,0.000000000000000000e+00,1.000000000000000082e-05,2.999999999999999737e-05,4.000000000000000327e-05,8.000000000000000654e-05,-1.100000000000000039e-04,4.200000000000000174e-04,6.000000000000000000e+00,1.000000000000000000e+01
2.863400000000000000e+04,0.000000000000000000e+00,0.000000000000000000e+00,1.000000000000000082e-05,2.999999999999999737e-05,4.000000000000000327e-05,8.000000000000000654e-05,-1.100000000000000039e-04,4.200000000000000174e-04,6.000000000000000000e+00,1.000000000000000000e+01
2.863500000000000000e+04,-1.000000000000000082e-05,-4.000000000000000327e-05,-5.999999999999999474e-05,-5.999999999999999474e-05,2.999999999999999737e-05,-1.600000000000000131e-04,5.000000000000000240e-05,1.100000000000000039e-04,6.000000000000000000e+00,1.000000000000000000e+01
2.863600000000000000e+04,-1.000000000000000082e-05,-4.000000000000000327e-05,-5.999999999999999474e-05,-5.999999999999999474e-05,2.999999999999999737e-05,-1.600000000000000131e-04,5.000000000000000240e-05,1.100000000000000039e-04,6.000000000000000000e+00,1.000000000000000000e+01
2.863800000000000000e+04,-1.000000000000000082e-05,-4.000000000000000327e-05,-5.999999999999999474e-05,-5.999999999999999474e-05,2.999999999999999737e-05,-1.600000000000000131e-04,5.000000000000000240e-05,1.100000000000000039e-04,6.000000000000000000e+00,1.000000000000000000e+01
2.863900000000000000e+04,-1.000000000000000082e-05,-4.000000000000000327e-05,-5.999999999999999474e-05,-5.999999999999999474e-05,2.999999999999999737e-05,-1.600000000000000131e-04,5.000000000000000240e-05,1.100000000000000039e-04,6.000000000000000000e+00,1.000000000000000000e+01
2.864000000000000000e+04,-1.000000000000000082e-05,-4.000000000000000327e-05,-5.999999999999999474e-05,-5.999999999999999474e-05,2.999999999999999737e-05,-1.600000000000000131e-04,5.000000000000000240e-05,1.100000000000000039e-04,6.000000000000000000e+00,1.000000000000000000e+01
2.864100000000000000e+04,-1.000000000000000082e-05,-4.000000000000000327e-05,-5.999999999999999474e-05,-5.999999999999999474e-05,2.999999999999999737e-05,-1.600000000000000131e-04,5.000000000000000240e-05,1.100000000000000039e-04,6.000000000000000000e+00,1.000000000000000000e+01
2.864200000000000000e+04,-1.000000000000000082e-05,-4.000000000000000327e-05,-5.999999999999999474e-05,-5.999999999999999474e-05,2.999999999999999737e-05,-1.600000000000000131e-04,5.000000000000000240e-05,1.100000000000000039e-04,6.000000000000000000e+00,1.000000000000000000e+01
2.864300000000000000e+04,-1.000000000000000082e-05,-4.000000000000000327e-05,-5.999999999999999474e-05,-5.999999999999999474e-05,2.999999999999999737e-05,-1.600000000000000131e-04,5.000000000000000240e-05,1.100000000000000039e-04,6.000000000000000000e+00,1.000000000000000000e+01
2.864400000000000000e+04,-1.000000000000000082e-05,-4.000000000000000327e-05,-5.999999999999999474e-05,-5.999999999999999474e-05,2.999999999999999737e-05,-1.600000000000000131e-04,5.000000000000000240e-05,1.100000000000000039e-04,6.000000000000000000e+00,1.000000000000000000e+01
2.864500000000000000e+04,-1.000000000000000082e-05,-4.000000000000000327e-05,-5.999999999999999474e-05,-5.999999999999999474e-05,2.999999999999999737e-05,-1.600000000000000131e-04,5.000000000000000240e-05,1.100000000000000039e-04,6.000000000000000000e+00,1.000000000000000000e+01
2.864600000000000000e+04,-1.000000000000000082e-05,-4.000000000000000327e-05,-5.999999999999999474e-05,-5.999999999999999474e-05,2.999999999999999737e-05,-1.600000000000000131e-04,5.000000000000000240e-05,1.100000000000000039e-04,6.000000000000000000e+00,1.000000000000000000e+01
2.864700000000000000e+04,-1.000000000000000082e-05,-4.000000000000000327e-05,-5.999999999999999474e-05,-5.999999999999999474e-05,2.999999999999999737e-05,-1.600000000000000131e-04,5.000000000000000240e-05,1.100000000000000039e-04,6.000000000000000000e+00,1.000000000000000000e+01
2.864800000000000000e+04,-1.000000000000000082e-05,-4.000000000000000327e-05,-5.999999999999999474e-05,-5.999999999999999474e-05,2.999999999999999737e-05,-1.600000000000000131e-04,5.000000000000000240e-05,1.100000000000000039e-04,6.000000000000000000e+00,1.000000000000000000e+01
2.864900000000000000e+04,-4.000000000000000327e-05,-5.000000000000000240e-05,-4.000000000000000327e-05,-5.000000000000000240e-05,-3.600000000000000227e-04,-8.000000000000000654e-05,0.000000000000000000e+00,-1.100000000000000039e-04,6.000000000000000000e+00,1.000000000000000000e+01
2.865000000000000000e+04,-4.000000000000000327e-05,-5.000000000000000240e-05,-4.000000000000000327e-05,-5.000000000000000240e-05,-3.600000000000000227e-04,-8.000000000000000654e-05,0.000000000000000000e+00,-1.100000000000000039e-04,6.000000000000000000e+00,1.000000000000000000e+01
2.865100000000000000e+04,1.000000000000000082e-05,4.000000000000000327e-05,5.000000000000000240e-05,2.000000000000000096e-04,8.400000000000000348e-04,5.000000000000000240e-05,-6.999999999999999387e-05,-3.899999999999999929e-04,6.000000000000000000e+00,1.000000000000000000e+01
2.865200000000000000e+04,1.000000000000000082e-05,4.000000000000000327e-05,5.000000000000000240e-05,2.000000000000000096e-04,8.400000000000000348e-04,5.000000000000000240e-05,-6.999999999999999387e-05,-3.899999999999999929e-04,6.000000000000000000e+00,1.000000000000000000e+01
2.865300000000000000e+04,1.000000000000000082e-05,4.000000000000000327e-05,5.000000000000000240e-05,2.000000000000000096e-04,8.400000000000000348e-04,5.000000000000000240e-05,-6.999999999999999387e-05,-3.899999999999999929e-04,6.000000000000000000e+00,1.000000000000000000e+01
2.865400000000000000e+04,1.000000000000000082e-05,4.000000000000000327e-05,5.000000000000000240e-05,2.000000000000000096e-04,8.400000000000000348e-04,5.000000000000000240e-05,-6.999999999999999387e-05,-3.899999999999999929e-04,6.000000000000000000e+00,1.000000000000000000e+01
2.865500000000000000e+04,1.000000000000000082e-05,4.000000000000000327e-05,5.000000000000000240e-05,2.000000000000000096e-04,8.400000000000000348e-04,5.000000000000000240e-05,-6.999999999999999387e-05,-3.899999999999999929e-04,6.000000000000000000e+00,1.000000000000000000e+01
2.865600000000000000e+04,1.000000000000000082e-05,4.000000000000000327e-05,5.000000000000000240e-05,2.000000000000000096e-04,8.400000000000000348e-04,5.000000000000000240e-05,-6.999999999999999387e-05,-3.899999999999999929e-04,6.000000000000000000e+00,1.000000000000000000e+01
2.865700000000000000e+04,1.000000000000000082e-05,4.000000000000000327e-05,5.000000000000000240e-05,2.000000000000000096e-04,8.400000000000000348e-04,5.000000000000000240e-05,-6.999999999999999387e-05,-3.899999999999999929e-04,6.000000000000000000e+00,1.000000000000000000e+01
2.865800000000000000e+04,1.000000000000000082e-05,4.000000000000000327e-05,5.000000000000000240e-05,2.000000000000000096e-04,8.400000000000000348e-04,5.000000000000000240e-05,-6.999999999999999387e-05,-3.899999999999999929e-04,6.000000000000000000e+00,1.000000000000000000e+01
2.865900000000000000e+04,1.000000000000000082e-05,4.000000000000000327e-05,5.000000000000000240e-05,2.000000000000000096e-04,8.400000000000000348e-04,5.000000000000000240e-05,-6.999999999999999387e-05,-3.899999999999999929e-04,6.000000000000000000e+00,1.000000000000000000e+01
2.866000000000000000e+04,1.000000000000000082e-05,4.000000000000000327e-05,5.000000000000000240e-05,2.000000000000000096e-04,8.400000000000000348e-04,5.000000000000000240e-05,-6.999999999999999387e-05,-3.899999999999999929e-04,6.000000000000000000e+00,1.000000000000000000e+01
2.866100000000000000e+04,1.000000000000000082e-05,4.000000000000000327e-05,5.000000000000000240e-05,2.000000000000000096e-04,8.400000000000000348e-04,5.000000000000000240e-05,-6.999999999999999387e-05,-3.899999999999999929e-04,6.000000000000000000e+00,1.000000000000000000e+01
2.866200000000000000e+04,1.000000000000000082e-05,4.000000000000000327e-05,5.000000000000000240e-05,2.000000000000000096e-04,8.400000000000000348e-04,5.000000000000000240e-05,-6.999999999999999387e-05,-3.899999999999999929e-04,6.000000000000000000e+00,1.000000000000000000e+01
2.866300000000000000e+04,1.000000000000000082e-05,4.000000000000000327e-05,5.000000000000000240e-05,2.000000000000000096e-04,8.400000000000000348e-04,5.000000000000000240e-05,-6.999999999999999387e-05,-3.899999999999999929e-04,6.000000000000000000e+00,1.000000000000000000e+01
2.866400000000000000e+04,1.000000000000000082e-05,4.000000000000000327e-05,5.000000000000000240e-05,2.000000000000000096e-04,8.400000000000000348e-04,5.000000000000000240e-05,-6.999999999999999387e-05,-3.899999999999999929e-04,6.000000000000000000e+00,1.000000000000000000e+01
2.866500000000000000e+04,1.000000000000000082e-05,4.000000000000000327e-05,5.000000000000000240e-05,2.000000000000000096e-04,8.400000000000000348e-04,5.000000000000000240e-05,-6.999999999999999387e-05,-3.899999999999999929e-04,6.000000000000000000e+00,1.000000000000000000e+01
2.866600000000000000e+04,1.000000000000000082e-05,4.000000000000000327e-05,5.000000000000000240e-05,2.000000000000000096e-04,8.400000000000000348e-04,5.000000000000000240e-05,-6.999999999999999387e-05,-3.899999999999999929e-04,6.000000000000000000e+00,1.000000000000000000e+01
2.866700000000000000e+04,1.000000000000000082e-05,4.000000000000000327e-05,5.000000000000000240e-05,2.000000000000000096e-04,8.400000000000000348e-04,5.000000000000000240e-05,-6.999999999999999387e-05,-3.899999999999999929e-04,6.000000000000000000e+00,1.000000000000000000e+01
2.866800000000000000e+04,1.000000000000000082e-05,4.000000000000000327e-05,5.000000000000000240e-05,2.000000000000000096e-04,8.400000000000000348e-04,5.000000000000000240e-05,-6.999999999999999387e-05,-3.899999999999999929e-04,6.000000000000000000e+00,1.000000000000000000e+01
2.866900000000000000e+04,1.000000000000000082e-05,4.000000000000000327e-05,5.000000000000000240e-05,2.000000000000000096e-04,8.400000000000000348e-04,5.000000000000000240e-05,-6.999999999999999387e-05,-3.899999999999999929e-04,6.000000000000000000e+00,1.000000000000000000e+01
2.867000000000000000e+04,1.000000000000000082e-05,4.000000000000000327e-05,5.000000000000000240e-05,2.000000000000000096e-04,8.400000000000000348e-04,5.000000000000000240e-05,-6.999999999999999387e-05,-3.899999999999999929e-04,6.000000000000000000e+00,1.000000000000000000e+01
2.867100000000000000e+04,1.000000000000000082e-05,4.000000000000000327e-05,5.000000000000000240e-05,2.000000000000000096e-04,8.400000000000000348e-04,5.000000000000000240e-05,-6.999999999999999387e-05,-3.899999999999999929e-04,6.000000000000000000e+00,1.000000000000000000e+01
2.867200000000000000e+04,-5.999999999999999474e-05,-2.999999999999999737e-05,-4.000000000000000327e-05,-2.000000000000000164e-05,2.799999999999999755e-04,1.499999999999999869e-04,9.000000000000000567e-05,1.199999999999999895e-04,6.000000000000000000e+00,1.000000000000000000e+01
2.867300000000000000e+04,0.000000000000000000e+00,0.000000000000000000e+00,0.000000000000000000e+00,-8.000000000000000654e-05,-2.999999999999999737e-04,-2.799999999999999755e-04,-5.999999999999999474e-05,2.000000000000000164e-05,6.000000000000000000e+00,1.000000000000000000e+01
2.867400000000000000e+04,-8.000000000000000654e-05,-1.399999999999999877e-04,-1.399999999999999877e-04,-1.800000000000000113e-04,-4.299999999999999894e-04,2.000000000000000164e-05,1.000000000000000048e-04,2.100000000000000087e-04,6.000000000000000000e+00,1.000000000000000000e+01
2.867500000000000000e+04,-8.000000000000000654e-05,-1.399999999999999877e-04,-1.399999999999999877e-04,-1.800000000000000113e-04,-4.299999999999999894e-04,2.000000000000000164e-05,1.000000000000000048e-04,2.100000000000000087e-04,6.000000000000000000e+00,1.000000000000000000e+01
2.867600000000000000e+04,-8.000000000000000654e-05,-1.399999999999999877e-04,-1.399999999999999877e-04,-1.800000000000000113e-04,-4.299999999999999894e-04,2.000000000000000164e-05,1.000000000000000048e-04,2.100000000000000087e-04,6.000000000000000000e+00,1.000000000000000000e+01
2.867700000000000000e+04,-8.000000000000000654e-05,-1.399999999999999877e-04,-1.399999999999999877e-04,-1.800000000000000113e-04,-4.299999999999999894e-04,2.000000000000000164e-05,1.000000000000000048e-04,2.100000000000000087e-04,6.000000000000000000e+00,1.000000000000000000e+01
2.867800000000000000e+04,-8.000000000000000654e-05,-1.399999999999999877e-04,-1.399999999999999877e-04,-1.800000000000000113e-04,-4.299999999999999894e-04,2.000000000000000164e-05,1.000000000000000048e-04,2.100000000000000087e-04,6.000000000000000000e+00,1.000000000000000000e+01
2.867900000000000000e+04,-8.000000000000000654e-05,-1.399999999999999877e-04,-1.399999999999999877e-04,-1.800000000000000113e-04,-4.299999999999999894e-04,2.000000000000000164e-05,1.000000000000000048e-04,2.100000000000000087e-04,6.000000000000000000e+00,1.000000000000000000e+01
2.868000000000000000e+04,-8.000000000000000654e-05,-1.399999999999999877e-04,-1.399999999999999877e-04,-1.800000000000000113e-04,-4.299999999999999894e-04,2.000000000000000164e-05,1.000000000000000048e-04,2.100000000000000087e-04,6.000000000000000000e+00,1.000000000000000000e+01
2.868100000000000000e+04,-8.000000000000000654e-05,-1.399999999999999877e-04,-1.399999999999999877e-04,-1.800000000000000113e-04,-4.299999999999999894e-04,2.000000000000000164e-05,1.000000000000000048e-04,2.100000000000000087e-04,6.000000000000000000e+00,1.000000000000000000e+01
2.868200000000000000e+04,-8.000000000000000654e-05,-1.399999999999999877e-04,-1.399999999999999877e-04,-1.800000000000000113e-04,-4.299999999999999894e-04,2.000000000000000164e-05,1.000000000000000048e-04,2.100000000000000087e-04,6.000000000000000000e+00,1.000000000000000000e+01
2.868300000000000000e+04,-8.000000000000000654e-05,-1.399999999999999877e-04,-1.399999999999999877e-04,-1.800000000000000113e-04,-4.299999999999999894e-04,2.000000000000000164e-05,1.000000000000000048e-04,2.100000000000000087e-04,6.000000000000000000e+00,1.000000000000000000e+01
2.868400000000000000e+04,-8.000000000000000654e-05,-1.399999999999999877e-04,-1.399999999999999877e-04,-1.800000000000000113e-04,-4.299999999999999894e-04,2.000000000000000164e-05,1.000000000000000048e-04,2.100000000000000087e-04,6.000000000000000000e+00,1.000000000000000000e+01
2.868500000000000000e+04,-8.000000000000000654e-05,-1.399999999999999877e-04,-1.399999999999999877e-04,-1.800000000000000113e-04,-4.299999999999999894e-04,2.000000000000000164e-05,1.000000000000000048e-04,2.100000000000000087e-04,6.000000000000000000e+00,1.000000000000000000e+01
2.868700000000000000e+04,2.999999999999999737e-05,6.999999999999999387e-05,6.999999999999999387e-05,5.000000000000000240e-05,-2.000000000000000096e-04,-1.000000000000000082e-05,-1.100000000000000039e-04,-2.700000000000000035e-04,6.000000000000000000e+00,1.000000000000000000e+01
2.868900000000000000e+04,2.999999999999999737e-05,6.999999999999999387e-05,6.999999999999999387e-05,5.000000000000000240e-05,-2.000000000000000096e-04,-1.000000000000000082e-05,-1.100000000000000039e-04,-2.700000000000000035e-04,6.000000000000000000e+00,1.000000000000000000e+01
2.869000000000000000e+04,2.999999999999999737e-05,6.999999999999999387e-05,6.999999999999999387e-05,5.000000000000000240e-05,-2.000000000000000096e-04,-1.000000000000000082e-05,-1.100000000000000039e-04,-2.700000000000000035e-04,6.000000000000000000e+00,1.000000000000000000e+01
2.869100000000000000e+04,2.999999999999999737e-05,6.999999999999999387e-05,6.999999999999999387e-05,5.000000000000000240e-05,-2.000000000000000096e-04,-1.000000000000000082e-05,-1.100000000000000039e-04,-2.700000000000000035e-04,6.000000000000000000e+00,1.000000000000000000e+01
2.869200000000000000e+04,2.999999999999999737e-05,6.999999999999999387e-05,6.999999999999999387e-05,5.000000000000000240e-05,-2.000000000000000096e-04,-1.000000000000000082e-05,-1.100000000000000039e-04,-2.700000000000000035e-04,6.000000000000000000e+00,1.000000000000000000e+01
2.869300000000000000e+04,2.999999999999999737e-05,6.999999999999999387e-05,6.999999999999999387e-05,5.000000000000000240e-05,-2.000000000000000096e-04,-1.000000000000000082e-05,-1.100000000000000039e-04,-2.700000000000000035e-04,6.000000000000000000e+00,1.000000000000000000e+01
2.869400000000000000e+04,2.999999999999999737e-05,6.999999999999999387e-05,6.999999999999999387e-05,5.000000000000000240e-05,-2.000000000000000096e-04,-1.000000000000000082e-05,-1.100000000000000039e-04,-2.700000000000000035e-04,6.000000000000000000e+00,1.000000000000000000e+01
2.869500000000000000e+04,2.999999999999999737e-05,6.999999999999999387e-05,6.999999999999999387e-05,5.000000000000000240e-05,-2.000000000000000096e-04,-1.000000000000000082e-05,-1.100000000000000039e-04,-2.700000000000000035e-04,6.000000000000000000e+00,1.000000000000000000e+01
2.869600000000000000e+04,2.999999999999999737e-05,6.999999999999999387e-05,6.999999999999999387e-05,5.000000000000000240e-05,-2.000000000000000096e-04,-1.000000000000000082e-05,-1.100000000000000039e-04,-2.700000000000000035e-04,6.000000000000000000e+00,1.000000000000000000e+01
2.869700000000000000e+04,2.999999999999999737e-05,6.999999999999999387e-05,6.999999999999999387e-05,5.000000000000000240e-05,-2.000000000000000096e-04,-1.000000000000000082e-05,-1.100000000000000039e-04,-2.700000000000000035e-04,6.000000000000000000e+00,1.000000000000000000e+01
2.869800000000000000e+04,2.999999999999999737e-05,6.999999999999999387e-05,6.999999999999999387e-05,5.000000000000000240e-05,-2.000000000000000096e-04,-1.000000000000000082e-05,-1.100000000000000039e-04,-2.700000000000000035e-04,6.000000000000000000e+00,1.000000000000000000e+01
2.869900000000000000e+04,2.999999999999999737e-05,6.999999999999999387e-05,6.999999999999999387e-05,5.000000000000000240e-05,-2.000000000000000096e-04,-1.000000000000000082e-05,-1.100000000000000039e-04,-2.700000000000000035e-04,6.000000000000000000e+00,1.000000000000000000e+01
2.870000000000000000e+04,2.999999999999999737e-05,6.999999999999999387e-05,6.999999999999999387e-05,5.000000000000000240e-05,-2.000000000000000096e-04,-1.000000000000000082e-05,-1.100000000000000039e-04,-2.700000000000000035e-04,6.000000000000000000e+00,1.000000000000000000e+01
2.870100000000000000e+04,2.999999999999999737e-05,6.999999999999999387e-05,6.999999999999999387e-05,5.000000000000000240e-05,-2.000000000000000096e-04,-1.000000000000000082e-05,-1.100000000000000039e-04,-2.700000000000000035e-04,6.000000000000000000e+00,1.000000000000000000e+01
2.870200000000000000e+04,-1.800000000000000113e-04,-5.999999999999999474e-05,-6.999999999999999387e-05,-1.399999999999999877e-04,-3.600000000000000227e-04,-2.700000000000000035e-04,-8.000000000000000654e-05,-3.200000000000000262e-04,6.000000000000000000e+00,1.000000000000000000e+01
2.870300000000000000e+04,-1.800000000000000113e-04,-5.999999999999999474e-05,-6.999999999999999387e-05,-1.399999999999999877e-04,-3.600000000000000227e-04,-2.700000000000000035e-04,-8.000000000000000654e-05,-3.200000000000000262e-04,6.000000000000000000e+00,1.000000000000000000e+01
2.870400000000000000e+04,-1.800000000000000113e-04,-5.999999999999999474e-05,-6.999999999999999387e-05,-1.399999999999999877e-04,-3.600000000000000227e-04,-2.700000000000000035e-04,-8.000000000000000654e-05,-3.200000000000000262e-04,6.000000000000000000e+00,1.000000000000000000e+01
2.870500000000000000e+04,-1.800000000000000113e-04,-5.999999999999999474e-05,-6.999999999999999387e-05,-1.399999999999999877e-04,-3.600000000000000227e-04,-2.700000000000000035e-04,-8.000000000000000654e-05,-3.200000000000000262e-04,6.000000000000000000e+00,1.000000000000000000e+01
2.870600000000000000e+04,-1.800000000000000113e-04,-5.999999999999999474e-05,-6.999999999999999387e-05,-1.399999999999999877e-04,-3.600000000000000227e-04,-2.700000000000000035e-04,-8.000000000000000654e-05,-3.200000000000000262e-04,6.000000000000000000e+00,1.000000000000000000e+01
2.870700000000000000e+04,-1.800000000000000113e-04,-5.999999999999999474e-05,-6.999999999999999387e-05,-1.399999999999999877e-04,-3.600000000000000227e-04,-2.700000000000000035e-04,-8.000000000000000654e-05,-3.200000000000000262e-04,6.000000000000000000e+00,1.000000000000000000e+01
2.870800000000000000e+04,-1.800000000000000113e-04,-5.999999999999999474e-05,-6.999999999999999387e-05,-1.399999999999999877e-04,-3.600000000000000227e-04,-2.700000000000000035e-04,-8.000000000000000654e-05,-3.200000000000000262e-04,6.000000000000000000e+00,1.000000000000000000e+01
2.870900000000000000e+04,-4.000000000000000327e-05,-6.999999999999999387e-05,-5.999999999999999474e-05,-1.199999999999999895e-04,-1.699999999999999851e-04,2.900000000000000017e-04,1.300000000000000157e-04,1.300000000000000157e-04,6.000000000000000000e+00,1.000000000000000000e+01
2.871000000000000000e+04,-4.000000000000000327e-05,-6.999999999999999387e-05,-5.999999999999999474e-05,-1.199999999999999895e-04,-1.699999999999999851e-04,2.900000000000000017e-04,1.300000000000000157e-04,1.300000000000000157e-04,6.000000000000000000e+00,1.000000000000000000e+01
2.871100000000000000e+04,6.999999999999999387e-05,2.999999999999999737e-05,2.000000000000000164e-05,4.000000000000000327e-05,-6.999999999999999387e-05,7.799999999999999859e-04,2.299999999999999799e-04,5.099999999999999282e-04,6.000000000000000000e+00,1.000000000000000000e+01
2.871200000000000000e+04,6.999999999999999387e-05,2.999999999999999737e-05,2.000000000000000164e-05,4.000000000000000327e-05,-6.999999999999999387e-05,7.799999999999999859e-04,2.299999999999999799e-04,5.099999999999999282e-04,6.000000000000000000e+00,1.000000000000000000e+01
2.871300000000000000e+04,6.999999999999999387e-05,2.999999999999999737e-05,2.000000000000000164e-05,4.000000000000000327e-05,-6.999999999999999387e-05,7.799999999999999859e-04,2.299999999999999799e-04,5.099999999999999282e-04,6.000000000000000000e+00,1.000000000000000000e+01
2.871400000000000000e+04,6.999999999999999387e-05,2.999999999999999737e-05,2.000000000000000164e-05,4.000000000000000327e-05,-6.999999999999999387e-05,7.799999999999999859e-04,2.299999999999999799e-04,5.099999999999999282e-04,6.000000000000000000e+00,1.000000000000000000e+01
2.871500000000000000e+04,6.999999999999999387e-05,2.999999999999999737e-05,2.000000000000000164e-05,4.000000000000000327e-05,-6.999999999999999387e-05,7.799999999999999859e-04,2.299999999999999799e-04,5.099999999999999282e-04,6.000000000000000000e+00,1.000000000000000000e+01
2.871600000000000000e+04,6.999999999999999387e-05,2.999999999999999737e-05,2.000000000000000164e-05,4.000000000000000327e-05,-6.999999999999999387e-05,7.799999999999999859e-04,2.299999999999999799e-04,5.099999999999999282e-04,6.000000000000000000e+00,1.000000000000000000e+01
2.871700000000000000e+04,6.999999999999999387e-05,2.999999999999999737e-05,2.000000000000000164e-05,4.000000000000000327e-05,-6.999999999999999387e-05,7.799999999999999859e-04,2.299999999999999799e-04,5.099999999999999282e-04,6.000000000000000000e+00,1.000000000000000000e+01
2.871800000000000000e+04,6.999999999999999387e-05,2.999999999999999737e-05,2.000000000000000164e-05,4.000000000000000327e-05,-6.999999999999999387e-05,7.799999999999999859e-04,2.299999999999999799e-04,5.099999999999999282e-04,6.000000000000000000e+00,1.000000000000000000e+01
2.871900000000000000e+04,6.999999999999999387e-05,2.999999999999999737e-05,2.000000000000000164e-05,4.000000000000000327e-05,-6.999999999999999387e-05,7.799999999999999859e-04,2.299999999999999799e-04,5.099999999999999282e-04,6.000000000000000000e+00,1.000000000000000000e+01
2.872000000000000000e+04,6.999999999999999387e-05,2.999999999999999737e-05,2.000000000000000164e-05,4.000000000000000327e-05,-6.999999999999999387e-05,7.799999999999999859e-04,2.299999999999999799e-04,5.099999999999999282e-04,6.000000000000000000e+00,1.000000000000000000e+01
2.872100000000000000e+04,6.999999999999999387e-05,2.999999999999999737e-05,2.000000000000000164e-05,4.000000000000000327e-05,-6.999999999999999387e-05,7.799999999999999859e-04,2.299999999999999799e-04,5.099999999999999282e-04,6.000000000000000000e+00,1.000000000000000000e+01
2.872200000000000000e+04,6.999999999999999387e-05,2.999999999999999737e-05,2.000000000000000164e-05,4.000000000000000327e-05,-6.999999999999999387e-05,7.799999999999999859e-04,2.299999999999999799e-04,5.099999999999999282e-04,6.000000000000000000e+00,1.000000000000000000e+01
2.872300000000000000e+04,6.999999999999999387e-05,2.999999999999999737e-05,2.000000000000000164e-05,4.000000000000000327e-05,-6.999999999999999387e-05,7.799999999999999859e-04,2.299999999999999799e-04,5.099999999999999282e-04,6.000000000000000000e+00,1.000000000000000000e+01
2.872400000000000000e+04,6.999999999999999387e-05,2.999999999999999737e-05,2.000000000000000164e-05,4.000000000000000327e-05,-6.999999999999999387e-05,7.799999999999999859e-04,2.299999999999999799e-04,5.099999999999999282e-04,6.000000000000000000e+00,1.000000000000000000e+01
2.872500000000000000e+04,6.999999999999999387e-05,2.999999999999999737e-05,2.000000000000000164e-05,4.000000000000000327e-05,-6.999999999999999387e-05,7.799999999999999859e-04,2.299999999999999799e-04,5.099999999999999282e-04,6.000000000000000000e+00,1.000000000000000000e+01
2.872600000000000000e+04,6.999999999999999387e-05,2.999999999999999737e-05,2.000000000000000164e-05,4.000000000000000327e-05,-6.999999999999999387e-05,7.799999999999999859e-04,2.299999999999999799e-04,5.099999999999999282e-04,6.000000000000000000e+00,1.000000000000000000e+01
2.872700000000000000e+04,6.999999999999999387e-05,2.999999999999999737e-05,2.000000000000000164e-05,4.000000000000000327e-05,-6.999999999999999387e-05,7.799999999999999859e-04,2.299999999999999799e-04,5.099999999999999282e-04,6.000000000000000000e+00,1.000000000000000000e+01
2.872800000000000000e+04,6.999999999999999387e-05,2.999999999999999737e-05,2.000000000000000164e-05,4.000000000000000327e-05,-6.999999999999999387e-05,7.799999999999999859e-04,2.299999999999999799e-04,5.099999999999999282e-04,6.000000000000000000e+00,1.000000000000000000e+01
2.872900000000000000e+04,6.999999999999999387e-05,2.999999999999999737e-05,2.000000000000000164e-05,4.000000000000000327e-05,-6.999999999999999387e-05,7.799999999999999859e-04,2.299999999999999799e-04,5.099999999999999282e-04,6.000000000000000000e+00,1.000000000000000000e+01
2.873000000000000000e+04,6.999999999999999387e-05,2.999999999999999737e-05,2.000000000000000164e-05,4.000000000000000327e-05,-6.999999999999999387e-05,7.799999999999999859e-04,2.299999999999999799e-04,5.099999999999999282e-04,6.000000000000000000e+00,1.000000000000000000e+01
2.873100000000000000e+04,6.999999999999999387e-05,2.999999999999999737e-05,2.000000000000000164e-05,4.000000000000000327e-05,-6.999999999999999387e-05,7.799999999999999859e-04,2.299999999999999799e-04,5.099999999999999282e-04,6.000000000000000000e+00,1.000000000000000000e+01
2.873200000000000000e+04,6.999999999999999387e-05,2.999999999999999737e-05,2.000000000000000164e-05,4.000000000000000327e-05,-6.999999999999999387e-05,7.799999999999999859e-04,2.299999999999999799e-04,5.099999999999999282e-04,6.000000000000000000e+00,1.000000000000000000e+01
2.873300000000000000e+04,6.999999999999999387e-05,2.999999999999999737e-05,2.000000000000000164e-05,4.000000000000000327e-05,-6.999999999999999387e-05,7.799999999999999859e-04,2.299999999999999799e-04,5.099999999999999282e-04,6.000000000000000000e+00,1.000000000000000000e+01
