6.267100000000000000e+04,6.999999999999999387e-05,1.000000000000000082e-05,2.000000000000000164e-05,5.000000000000000240e-05,6.799999999999999404e-04,-5.699999999999999772e-04,4.000000000000000327e-05,-1.600000000000000131e-04,6.000000000000000000e+00,2.300000000000000000e+01
6.267200000000000000e+04,6.999999999999999387e-05,1.000000000000000082e-05,2.000000000000000164e-05,5.000000000000000240e-05,6.799999999999999404e-04,-5.699999999999999772e-04,4.000000000000000327e-05,-1.600000000000000131e-04,6.000000000000000000e+00,2.300000000000000000e+01
6.267300000000000000e+04,6.999999999999999387e-05,1.000000000000000082e-05,2.000000000000000164e-05,5.000000000000000240e-05,6.799999999999999404e-04,-5.699999999999999772e-04,4.000000000000000327e-05,-1.600000000000000131e-04,6.000000000000000000e+00,2.300000000000000000e+01
6.267400000000000000e+04,6.999999999999999387e-05,1.000000000000000082e-05,2.000000000000000164e-05,5.000000000000000240e-05,6.799999999999999404e-04,-5.699999999999999772e-04,4.000000000000000327e-05,-1.600000000000000131e-04,6.000000000000000000e+00,2.300000000000000000e+01
6.267500000000000000e+04,6.999999999999999387e-05,1.000000000000000082e-05,2.000000000000000164e-05,5.000000000000000240e-05,6.799999999999999404e-04,-5.699999999999999772e-04,4.000000000000000327e-05,-1.600000000000000131e-04,6.000000000000000000e+00,2.300000000000000000e+01
6.267600000000000000e+04,6.999999999999999387e-05,1.000000000000000082e-05,2.000000000000000164e-05,5.000000000000000240e-05,6.799999999999999404e-04,-5.699999999999999772e-04,4.000000000000000327e-05,-1.600000000000000131e-04,6.000000000000000000e+00,2.300000000000000000e+01
6.267700000000000000e+04,6.999999999999999387e-05,1.000000000000000082e-05,2.000000000000000164e-05,5.000000000000000240e-05,6.799999999999999404e-04,-5.699999999999999772e-04,4.000000000000000327e-05,-1.600000000000000131e-04,6.000000000000000000e+00,2.300000000000000000e+01
6.267800000000000000e+04,6.999999999999999387e-05,1.000000000000000082e-05,2.000000000000000164e-05,5.000000000000000240e-05,6.799999999999999404e-04,-5.699999999999999772e-04,4.000000000000000327e-05,-1.600000000000000131e-04,6.000000000000000000e+00,2.300000000000000000e+01
6.267900000000000000e+04,5.000000000000000240e-05,2.999999999999999737e-05,5.000000000000000240e-05,-2.999999999999999737e-05,-3.799999999999999667e-04,-1.000000000000000082e-05,-2.999999999999999737e-05,1.899999999999999834e-04,6.000000000000000000e+00,2.300000000000000000e+01
6.268000000000000000e+04,-1.199999999999999895e-04,-2.000000000000000164e-05,-2.999999999999999737e-05,-2.000000000000000164e-05,2.600000000000000314e-04,3.200000000000000262e-04,-1.000000000000000082e-05,-5.999999999999999474e-05,6.000000000000000000e+00,2.300000000000000000e+01
6.268100000000000000e+04,-2.999999999999999737e-05,-5.000000000000000240e-05,-4.000000000000000327e-05,-4.000000000000000327e-05,-2.500000000000000052e-04,1.800000000000000113e-04,2.000000000000000164e-05,-2.600000000000000314e-04,6.000000000000000000e+00,2.300000000000000000e+01
6.268200000000000000e+04,-2.999999999999999737e-05,-5.000000000000000240e-05,-4.000000000000000327e-05,-4.000000000000000327e-05,-2.500000000000000052e-04,1.800000000000000113e-04,2.000000000000000164e-05,-2.600000000000000314e-04,6.000000000000000000e+00,2.300000000000000000e+01
6.268300000000000000e+04,-2.999999999999999737e-05,-5.000000000000000240e-05,-4.000000000000000327e-05,-4.000000000000000327e-05,-2.500000000000000052e-04,1.800000000000000113e-04,2.000000000000000164e-05,-2.600000000000000314e-04,6.000000000000000000e+00,2.300000000000000000e+01
6.268400000000000000e+04,-2.999999999999999737e-05,-5.000000000000000240e-05,-4.000000000000000327e-05,-4.000000000000000327e-05,-2.500000000000000052e-04,1.800000000000000113e-04,2.000000000000000164e-05,-2.600000000000000314e-04,6.000000000000000000e+00,2.300000000000000000e+01
6.268500000000000000e+04,-2.999999999999999737e-05,-5.000000000000000240e-05,-4.000000000000000327e-05,-4.000000000000000327e-05,-2.500000000000000052e-04,1.800000000000000113e-04,2.000000000000000164e-05,-2.600000000000000314e-04,6.000000000000000000e+00,2.300000000000000000e+01
6.268600000000000000e+04,-2.999999999999999737e-05,-5.000000000000000240e-05,-4.000000000000000327e-05,-4.000000000000000327e-05,-2.500000000000000052e-04,1.800000000000000113e-04,2.000000000000000164e-05,-2.600000000000000314e-04,6.000000000000000000e+00,2.300000000000000000e+01
6.268900000000000000e+04,-2.999999999999999737e-05,-5.000000000000000240e-05,-4.000000000000000327e-05,-4.000000000000000327e-05,-2.500000000000000052e-04,1.800000000000000113e-04,2.000000000000000164e-05,-2.600000000000000314e-04,6.000000000000000000e+00,2.300000000000000000e+01
6.269000000000000000e+04,-2.999999999999999737e-05,-5.000000000000000240e-05,-4.000000000000000327e-05,-4.000000000000000327e-05,-2.500000000000000052e-04,1.800000000000000113e-04,2.000000000000000164e-05,-2.600000000000000314e-04,6.000000000000000000e+00,2.300000000000000000e+01
6.269100000000000000e+04,-2.999999999999999737e-05,-5.000000000000000240e-05,-4.000000000000000327e-05,-4.000000000000000327e-05,-2.500000000000000052e-04,1.800000000000000113e-04,2.000000000000000164e-05,-2.600000000000000314e-04,6.000000000000000000e+00,2.300000000000000000e+01
6.269200000000000000e+04,-2.999999999999999737e-05,-5.000000000000000240e-05,-4.000000000000000327e-05,-4.000000000000000327e-05,-2.500000000000000052e-04,1.800000000000000113e-04,2.000000000000000164e-05,-2.600000000000000314e-04,6.000000000000000000e+00,2.300000000000000000e+01
6.269300000000000000e+04,-2.999999999999999737e-05,-5.000000000000000240e-05,-4.000000000000000327e-05,-4.000000000000000327e-05,-2.500000000000000052e-04,1.800000000000000113e-04,2.000000000000000164e-05,-2.600000000000000314e-04,6.000000000000000000e+00,2.300000000000000000e+01
6.269400000000000000e+04,-2.999999999999999737e-05,-5.000000000000000240e-05,-4.000000000000000327e-05,-4.000000000000000327e-05,-2.500000000000000052e-04,1.800000000000000113e-04,2.000000000000000164e-05,-2.600000000000000314e-04,6.000000000000000000e+00,2.300000000000000000e+01
6.269500000000000000e+04,-2.999999999999999737e-05,-5.000000000000000240e-05,-4.000000000000000327e-05,-4.000000000000000327e-05,-2.500000000000000052e-04,1.800000000000000113e-04,2.000000000000000164e-05,-2.600000000000000314e-04,6.000000000000000000e+00,2.300000000000000000e+01
6.269600000000000000e+04,-2.999999999999999737e-05,-5.000000000000000240e-05,-4.000000000000000327e-05,-4.000000000000000327e-05,-2.500000000000000052e-04,1.800000000000000113e-04,2.000000000000000164e-05,-2.600000000000000314e-04,6.000000000000000000e+00,2.300000000000000000e+01
6.269700000000000000e+04,-2.999999999999999737e-05,-5.000000000000000240e-05,-4.000000000000000327e-05,-4.000000000000000327e-05,-2.500000000000000052e-04,1.800000000000000113e-04,2.000000000000000164e-05,-2.600000000000000314e-04,6.000000000000000000e+00,2.300000000000000000e+01
6.269800000000000000e+04,-2.999999999999999737e-05,-5.000000000000000240e-05,-4.000000000000000327e-05,-4.000000000000000327e-05,-2.500000000000000052e-04,1.800000000000000113e-04,2.000000000000000164e-05,-2.600000000000000314e-04,6.000000000000000000e+00,2.300000000000000000e+01
6.269900000000000000e+04,-2.999999999999999737e-05,-5.000000000000000240e-05,-4.000000000000000327e-05,-4.000000000000000327e-05,-2.500000000000000052e-04,1.800000000000000113e-04,2.000000000000000164e-05,-2.600000000000000314e-04,6.000000000000000000e+00,2.300000000000000000e+01
6.270000000000000000e+04,-2.999999999999999737e-05,-5.000000000000000240e-05,-4.000000000000000327e-05,-4.000000000000000327e-05,-2.500000000000000052e-04,1.800000000000000113e-04,2.000000000000000164e-05,-2.600000000000000314e-04,6.000000000000000000e+00,2.300000000000000000e+01
6.270100000000000000e+04,-2.999999999999999737e-05,4.000000000000000327e-05,2.000000000000000164e-05,-2.000000000000000164e-05,3.099999999999999999e-04,-3.399999999999999702e-04,-2.200000000000000078e-04,1.000000000000000082e-05,6.000000000000000000e+00,2.300000000000000000e+01
6.270200000000000000e+04,0.000000000000000000e+00,1.000000000000000082e-05,5.000000000000000240e-05,2.000000000000000164e-05,1.300000000000000157e-04,1.000000000000000082e-05,2.000000000000000164e-05,2.000000000000000164e-05,6.000000000000000000e+00,2.300000000000000000e+01
6.270300000000000000e+04,2.000000000000000096e-04,2.999999999999999737e-05,5.000000000000000240e-05,5.999999999999999474e-05,-9.000000000000000567e-05,-2.299999999999999799e-04,-1.399999999999999877e-04,-5.999999999999999474e-05,6.000000000000000000e+00,2.300000000000000000e+01
6.270400000000000000e+04,2.000000000000000096e-04,2.999999999999999737e-05,5.000000000000000240e-05,5.999999999999999474e-05,-9.000000000000000567e-05,-2.299999999999999799e-04,-1.399999999999999877e-04,-5.999999999999999474e-05,6.000000000000000000e+00,2.300000000000000000e+01
6.270500000000000000e+04,2.000000000000000096e-04,2.999999999999999737e-05,5.000000000000000240e-05,5.999999999999999474e-05,-9.000000000000000567e-05,-2.299999999999999799e-04,-1.399999999999999877e-04,-5.999999999999999474e-05,6.000000000000000000e+00,2.300000000000000000e+01
6.270600000000000000e+04,2.000000000000000096e-04,2.999999999999999737e-05,5.000000000000000240e-05,5.999999999999999474e-05,-9.000000000000000567e-05,-2.299999999999999799e-04,-1.399999999999999877e-04,-5.999999999999999474e-05,6.000000000000000000e+00,2.300000000000000000e+01
6.270700000000000000e+04,2.000000000000000096e-04,2.999999999999999737e-05,5.000000000000000240e-05,5.999999999999999474e-05,-9.000000000000000567e-05,-2.299999999999999799e-04,-1.399999999999999877e-04,-5.999999999999999474e-05,6.000000000000000000e+00,2.300000000000000000e+01
6.270800000000000000e+04,2.000000000000000096e-04,2.999999999999999737e-05,5.000000000000000240e-05,5.999999999999999474e-05,-9.000000000000000567e-05,-2.299999999999999799e-04,-1.399999999999999877e-04,-5.999999999999999474e-05,6.000000000000000000e+00,2.300000000000000000e+01
6.270900000000000000e+04,2.000000000000000096e-04,2.999999999999999737e-05,5.000000000000000240e-05,5.999999999999999474e-05,-9.000000000000000567e-05,-2.299999999999999799e-04,-1.399999999999999877e-04,-5.999999999999999474e-05,6.000000000000000000e+00,2.300000000000000000e+01
6.271000000000000000e+04,2.000000000000000096e-04,2.999999999999999737e-05,5.000000000000000240e-05,5.999999999999999474e-05,-9.000000000000000567e-05,-2.299999999999999799e-04,-1.399999999999999877e-04,-5.999999999999999474e-05,6.000000000000000000e+00,2.300000000000000000e+01
6.271100000000000000e+04,2.000000000000000096e-04,2.999999999999999737e-05,5.000000000000000240e-05,5.999999999999999474e-05,-9.000000000000000567e-05,-2.299999999999999799e-04,-1.399999999999999877e-04,-5.999999999999999474e-05,6.000000000000000000e+00,2.300000000000000000e+01
6.271200000000000000e+04,2.000000000000000096e-04,2.999999999999999737e-05,5.000000000000000240e-05,5.999999999999999474e-05,-9.000000000000000567e-05,-2.299999999999999799e-04,-1.399999999999999877e-04,-5.999999999999999474e-05,6.000000000000000000e+00,2.300000000000000000e+01
6.271300000000000000e+04,2.000000000000000096e-04,2.999999999999999737e-05,5.000000000000000240e-05,5.999999999999999474e-05,-9.000000000000000567e-05,-2.299999999999999799e-04,-1.399999999999999877e-04,-5.999999999999999474e-05,6.000000000000000000e+00,2.300000000000000000e+01
6.271400000000000000e+04,2.000000000000000096e-04,2.999999999999999737e-05,5.000000000000000240e-05,5.999999999999999474e-05,-9.000000000000000567e-05,-2.299999999999999799e-04,-1.399999999999999877e-04,-5.999999999999999474e-05,6.000000000000000000e+00,2.300000000000000000e+01
6.271500000000000000e+04,2.000000000000000096e-04,2.999999999999999737e-05,5.000000000000000240e-05,5.999999999999999474e-05,-9.000000000000000567e-05,-2.299999999999999799e-04,-1.399999999999999877e-04,-5.999999999999999474e-05,6.000000000000000000e+00,2.300000000000000000e+01
6.271600000000000000e+04,-8.000000000000000654e-05,5.000000000000000240e-05,1.000000000000000082e-05,-4.000000000000000327e-05,-6.999999999999999387e-05,4.200000000000000174e-04,-1.300000000000000157e-04,-1.800000000000000113e-04,6.000000000000000000e+00,2.300000000000000000e+01
6.271700000000000000e+04,-8.000000000000000654e-05,5.000000000000000240e-05,1.000000000000000082e-05,-4.000000000000000327e-05,-6.999999999999999387e-05,4.200000000000000174e-04,-1.300000000000000157e-04,-1.800000000000000113e-04,6.000000000000000000e+00,2.300000000000000000e+01
6.271800000000000000e+04,-8.000000000000000654e-05,5.000000000000000240e-05,1.000000000000000082e-05,-4.000000000000000327e-05,-6.999999999999999387e-05,4.200000000000000174e-04,-1.300000000000000157e-04,-1.800000000000000113e-04,6.000000000000000000e+00,2.300000000000000000e+01
6.271900000000000000e+04,-8.000000000000000654e-05,5.000000000000000240e-05,1.000000000000000082e-05,-4.000000000000000327e-05,-6.999999999999999387e-05,4.200000000000000174e-04,-1.300000000000000157e-04,-1.800000000000000113e-04,6.000000000000000000e+00,2.300000000000000000e+01
6.272000000000000000e+04,-8.000000000000000654e-05,5.000000000000000240e-05,1.000000000000000082e-05,-4.000000000000000327e-05,-6.999999999999999387e-05,4.200000000000000174e-04,-1.300000000000000157e-04,-1.800000000000000113e-04,6.000000000000000000e+00,2.300000000000000000e+01
6.272100000000000000e+04,-8.000000000000000654e-05,5.000000000000000240e-05,1.000000000000000082e-05,-4.000000000000000327e-05,-6.999999999999999387e-05,4.200000000000000174e-04,-1.300000000000000157e-04,-1.800000000000000113e-04,6.000000000000000000e+00,2.300000000000000000e+01
6.272200000000000000e+04,-8.000000000000000654e-05,5.000000000000000240e-05,1.000000000000000082e-05,-4.000000000000000327e-05,-6.999999999999999387e-05,4.200000000000000174e-04,-1.300000000000000157e-04,-1.800000000000000113e-04,6.000000000000000000e+00,2.300000000000000000e+01
6.272300000000000000e+04,-1.000000000000000082e-05,-4.000000000000000327e-05,-2.000000000000000164e-05,-2.999999999999999737e-05,1.000000000000000048e-04,7.599999999999999334e-04,1.100000000000000039e-04,5.999999999999999474e-05,6.000000000000000000e+00,2.300000000000000000e+01
6.272400000000000000e+04,-1.000000000000000082e-05,-4.000000000000000327e-05,-2.000000000000000164e-05,-2.999999999999999737e-05,1.000000000000000048e-04,7.599999999999999334e-04,1.100000000000000039e-04,5.999999999999999474e-05,6.000000000000000000e+00,2.300000000000000000e+01
6.272500000000000000e+04,-1.000000000000000082e-05,-4.000000000000000327e-05,-2.000000000000000164e-05,-2.999999999999999737e-05,1.000000000000000048e-04,7.599999999999999334e-04,1.100000000000000039e-04,5.999999999999999474e-05,6.000000000000000000e+00,2.300000000000000000e+01
6.272600000000000000e+04,-1.000000000000000082e-05,-4.000000000000000327e-05,-2.000000000000000164e-05,-2.999999999999999737e-05,1.000000000000000048e-04,7.599999999999999334e-04,1.100000000000000039e-04,5.999999999999999474e-05,6.000000000000000000e+00,2.300000000000000000e+01
6.272700000000000000e+04,-1.000000000000000082e-05,-4.000000000000000327e-05,-2.000000000000000164e-05,-2.999999999999999737e-05,1.000000000000000048e-04,7.599999999999999334e-04,1.100000000000000039e-04,5.999999999999999474e-05,6.000000000000000000e+00,2.300000000000000000e+01
6.272900000000000000e+04,-1.000000000000000082e-05,-4.000000000000000327e-05,-2.000000000000000164e-05,-2.999999999999999737e-05,1.000000000000000048e-04,7.599999999999999334e-04,1.100000000000000039e-04,5.999999999999999474e-05,6.000000000000000000e+00,2.300000000000000000e+01
6.273000000000000000e+04,-1.000000000000000082e-05,-4.000000000000000327e-05,-2.000000000000000164e-05,-2.999999999999999737e-05,1.000000000000000048e-04,7.599999999999999334e-04,1.100000000000000039e-04,5.999999999999999474e-05,6.000000000000000000e+00,2.300000000000000000e+01
6.273100000000000000e+04,-1.000000000000000082e-05,-4.000000000000000327e-05,-2.000000000000000164e-05,-2.999999999999999737e-05,1.000000000000000048e-04,7.599999999999999334e-04,1.100000000000000039e-04,5.999999999999999474e-05,6.000000000000000000e+00,2.300000000000000000e+01
6.273200000000000000e+04,-1.000000000000000082e-05,-4.000000000000000327e-05,-2.000000000000000164e-05,-2.999999999999999737e-05,1.000000000000000048e-04,7.599999999999999334e-04,1.100000000000000039e-04,5.999999999999999474e-05,6.000000000000000000e+00,2.300000000000000000e+01
6.273300000000000000e+04,-1.000000000000000082e-05,-4.000000000000000327e-05,-2.000000000000000164e-05,-2.999999999999999737e-05,1.000000000000000048e-04,7.599999999999999334e-04,1.100000000000000039e-04,5.999999999999999474e-05,6.000000000000000000e+00,2.300000000000000000e+01
6.273400000000000000e+04,-1.000000000000000082e-05,-4.000000000000000327e-05,-2.000000000000000164e-05,-2.999999999999999737e-05,1.000000000000000048e-04,7.599999999999999334e-04,1.100000000000000039e-04,5.999999999999999474e-05,6.000000000000000000e+00,2.300000000000000000e+01
6.273500000000000000e+04,-1.000000000000000082e-05,-4.000000000000000327e-05,-2.000000000000000164e-05,-2.999999999999999737e-05,1.000000000000000048e-04,7.599999999999999334e-04,1.100000000000000039e-04,5.999999999999999474e-05,6.000000000000000000e+00,2.300000000000000000e+01
6.273600000000000000e+04,-1.000000000000000082e-05,-4.000000000000000327e-05,-2.000000000000000164e-05,-2.999999999999999737e-05,1.000000000000000048e-04,7.599999999999999334e-04,1.100000000000000039e-04,5.999999999999999474e-05,6.000000000000000000e+00,2.300000000000000000e+01
6.273800000000000000e+04,-1.000000000000000082e-05,-4.000000000000000327e-05,-2.000000000000000164e-05,-2.999999999999999737e-05,1.000000000000000048e-04,7.599999999999999334e-04,1.100000000000000039e-04,5.999999999999999474e-05,6.000000000000000000e+00,2.300000000000000000e+01
6.273900000000000000e+04,2.000000000000000164e-05,2.000000000000000164e-05,5.000000000000000240e-05,-2.999999999999999737e-05,-1.199999999999999895e-04,-4.799999999999999580e-04,-1.600000000000000131e-04,-2.200000000000000078e-04,6.000000000000000000e+00,2.300000000000000000e+01
6.274000000000000000e+04,2.000000000000000164e-05,6.999999999999999387e-05,5.999999999999999474e-05,6.999999999999999387e-05,2.299999999999999799e-04,5.900000000000000296e-04,5.000000000000000240e-05,-1.399999999999999877e-04,6.000000000000000000e+00,2.300000000000000000e+01
6.274100000000000000e+04,5.000000000000000240e-05,-4.000000000000000327e-05,-1.000000000000000082e-05,-5.000000000000000240e-05,-4.299999999999999894e-04,4.299999999999999894e-04,1.100000000000000039e-04,2.799999999999999755e-04,6.000000000000000000e+00,2.300000000000000000e+01
6.274200000000000000e+04,5.000000000000000240e-05,-4.000000000000000327e-05,-1.000000000000000082e-05,-5.000000000000000240e-05,-4.299999999999999894e-04,4.299999999999999894e-04,1.100000000000000039e-04,2.799999999999999755e-04,6.000000000000000000e+00,2.300000000000000000e+01
6.274300000000000000e+04,5.000000000000000240e-05,-4.000000000000000327e-05,-1.000000000000000082e-05,-5.000000000000000240e-05,-4.299999999999999894e-04,4.299999999999999894e-04,1.100000000000000039e-04,2.799999999999999755e-04,6.000000000000000000e+00,2.300000000000000000e+01
6.274400000000000000e+04,5.000000000000000240e-05,-4.000000000000000327e-05,-1.000000000000000082e-05,-5.000000000000000240e-05,-4.299999999999999894e-04,4.299999999999999894e-04,1.100000000000000039e-04,2.799999999999999755e-04,6.000000000000000000e+00,2.300000000000000000e+01
6.274500000000000000e+04,5.000000000000000240e-05,-4.000000000000000327e-05,-1.000000000000000082e-05,-5.000000000000000240e-05,-4.299999999999999894e-04,4.299999999999999894e-04,1.100000000000000039e-04,2.799999999999999755e-04,6.000000000000000000e+00,2.300000000000000000e+01
6.274600000000000000e+04,5.000000000000000240e-05,-4.000000000000000327e-05,-1.000000000000000082e-05,-5.000000000000000240e-05,-4.299999999999999894e-04,4.299999999999999894e-04,1.100000000000000039e-04,2.799999999999999755e-04,6.000000000000000000e+00,2.300000000000000000e+01
6.274700000000000000e+04,5.000000000000000240e-05,-4.000000000000000327e-05,-1.000000000000000082e-05,-5.000000000000000240e-05,-4.299999999999999894e-04,4.299999999999999894e-04,1.100000000000000039e-04,2.799999999999999755e-04,6.000000000000000000e+00,2.300000000000000000e+01
6.274800000000000000e+04,5.000000000000000240e-05,-4.000000000000000327e-05,-1.000000000000000082e-05,-5.000000000000000240e-05,-4.299999999999999894e-04,4.299999999999999894e-04,1.100000000000000039e-04,2.799999999999999755e-04,6.000000000000000000e+00,2.300000000000000000e+01
6.274900000000000000e+04,5.000000000000000240e-05,-4.000000000000000327e-05,-1.000000000000000082e-05,-5.000000000000000240e-05,-4.299999999999999894e-04,4.299999999999999894e-04,1.100000000000000039e-04,2.799999999999999755e-04,6.000000000000000000e+00,2.300000000000000000e+01
6.275000000000000000e+04,5.000000000000000240e-05,-4.000000000000000327e-05,-1.000000000000000082e-05,-5.000000000000000240e-05,-4.299999999999999894e-04,4.299999999999999894e-04,1.100000000000000039e-04,2.799999999999999755e-04,6.000000000000000000e+00,2.300000000000000000e+01
6.275100000000000000e+04,5.000000000000000240e-05,-4.000000000000000327e-05,-1.000000000000000082e-05,-5.000000000000000240e-05,-4.299999999999999894e-04,4.299999999999999894e-04,1.100000000000000039e-04,2.799999999999999755e-04,6.000000000000000000e+00,2.300000000000000000e+01
6.275200000000000000e+04,5.000000000000000240e-05,-4.000000000000000327e-05,-1.000000000000000082e-05,-5.000000000000000240e-05,-4.299999999999999894e-04,4.299999999999999894e-04,1.100000000000000039e-04,2.799999999999999755e-04,6.000000000000000000e+00,2.300000000000000000e+01
6.275300000000000000e+04,5.000000000000000240e-05,-4.000000000000000327e-05,-1.000000000000000082e-05,-5.000000000000000240e-05,-4.299999999999999894e-04,4.299999999999999894e-04,1.100000000000000039e-04,2.799999999999999755e-04,6.000000000000000000e+00,2.300000000000000000e+01
6.275400000000000000e+04,5.000000000000000240e-05,-4.000000000000000327e-05,-1.000000000000000082e-05,-5.000000000000000240e-05,-4.299999999999999894e-04,4.299999999999999894e-04,1.100000000000000039e-04,2.799999999999999755e-04,6.000000000000000000e+00,2.300000000000000000e+01
6.275500000000000000e+04,5.000000000000000240e-05,-4.000000000000000327e-05,-1.000000000000000082e-05,-5.000000000000000240e-05,-4.299999999999999894e-04,4.299999999999999894e-04,1.100000000000000039e-04,2.799999999999999755e-04,6.000000000000000000e+00,2.300000000000000000e+01
6.275600000000000000e+04,5.000000000000000240e-05,-4.000000000000000327e-05,-1.000000000000000082e-05,-5.000000000000000240e-05,-4.299999999999999894e-04,4.299999999999999894e-04,1.100000000000000039e-04,2.799999999999999755e-04,6.000000000000000000e+00,2.300000000000000000e+01
6.275700000000000000e+04,5.000000000000000240e-05,-4.000000000000000327e-05,-1.000000000000000082e-05,-5.000000000000000240e-05,-4.299999999999999894e-04,4.299999999999999894e-04,1.100000000000000039e-04,2.799999999999999755e-04,6.000000000000000000e+00,2.300000000000000000e+01
6.275800000000000000e+04,5.000000000000000240e-05,-4.000000000000000327e-05,-1.000000000000000082e-05,-5.000000000000000240e-05,-4.299999999999999894e-04,4.299999999999999894e-04,1.100000000000000039e-04,2.799999999999999755e-04,6.000000000000000000e+00,2.300000000000000000e+01
6.275900000000000000e+04,5.000000000000000240e-05,-4.000000000000000327e-05,-1.000000000000000082e-05,-5.000000000000000240e-05,-4.299999999999999894e-04,4.299999999999999894e-04,1.100000000000000039e-04,2.799999999999999755e-04,6.000000000000000000e+00,2.300000000000000000e+01
6.276000000000000000e+04,5.000000000000000240e-05,-4.000000000000000327e-05,-1.000000000000000082e-05,-5.000000000000000240e-05,-4.299999999999999894e-04,4.299999999999999894e-04,1.100000000000000039e-04,2.799999999999999755e-04,6.000000000000000000e+00,2.300000000000000000e+01
6.276100000000000000e+04,5.000000000000000240e-05,-4.000000000000000327e-05,-1.000000000000000082e-05,-5.000000000000000240e-05,-4.299999999999999894e-04,4.299999999999999894e-04,1.100000000000000039e-04,2.799999999999999755e-04,6.000000000000000000e+00,2.300000000000000000e+01
6.276200000000000000e+04,-1.000000000000000048e-04,-2.500000000000000052e-04,-1.300000000000000157e-04,-1.000000000000000082e-05,6.999999999999999387e-05,-2.900000000000000017e-04,4.000000000000000327e-05,-5.000000000000000240e-05,6.000000000000000000e+00,2.300000000000000000e+01
6.276300000000000000e+04,5.000000000000000240e-05,-5.999999999999999474e-05,-2.000000000000000164e-05,1.000000000000000082e-05,2.900000000000000017e-04,2.500000000000000052e-04,2.000000000000000164e-05,3.799999999999999667e-04,6.000000000000000000e+00,2.300000000000000000e+01
6.276400000000000000e+04,5.000000000000000240e-05,-5.999999999999999474e-05,-2.000000000000000164e-05,1.000000000000000082e-05,2.900000000000000017e-04,2.500000000000000052e-04,2.000000000000000164e-05,3.799999999999999667e-04,6.000000000000000000e+00,2.300000000000000000e+01
6.276500000000000000e+04,5.000000000000000240e-05,-5.999999999999999474e-05,-2.000000000000000164e-05,1.000000000000000082e-05,2.900000000000000017e-04,2.500000000000000052e-04,2.000000000000000164e-05,3.799999999999999667e-04,6.000000000000000000e+00,2.300000000000000000e+01
6.276600000000000000e+04,5.000000000000000240e-05,-5.999999999999999474e-05,-2.000000000000000164e-05,1.000000000000000082e-05,2.900000000000000017e-04,2.500000000000000052e-04,2.000000000000000164e-05,3.799999999999999667e-04,6.000000000000000000e+00,2.300000000000000000e+01
6.276700000000000000e+04,5.000000000000000240e-05,-5.999999999999999474e-05,-2.000000000000000164e-05,1.000000000000000082e-05,2.900000000000000017e-04,2.500000000000000052e-04,2.000000000000000164e-05,3.799999999999999667e-04,6.000000000000000000e+00,2.300000000000000000e+01
6.276800000000000000e+04,5.000000000000000240e-05,-5.999999999999999474e-05,-2.000000000000000164e-05,1.000000000000000082e-05,2.900000000000000017e-04,2.500000000000000052e-04,2.000000000000000164e-05,3.799999999999999667e-04,6.000000000000000000e+00,2.300000000000000000e+01
6.276900000000000000e+04,5.000000000000000240e-05,-5.999999999999999474e-05,-2.000000000000000164e-05,1.000000000000000082e-05,2.900000000000000017e-04,2.500000000000000052e-04,2.000000000000000164e-05,3.799999999999999667e-04,6.000000000000000000e+00,2.300000000000000000e+01
6.277000000000000000e+04,5.000000000000000240e-05,-5.999999999999999474e-05,-2.000000000000000164e-05,1.000000000000000082e-05,2.900000000000000017e-04,2.500000000000000052e-04,2.000000000000000164e-05,3.799999999999999667e-04,6.000000000000000000e+00,2.300000000000000000e+01
6.277100000000000000e+04,5.000000000000000240e-05,-5.999999999999999474e-05,-2.000000000000000164e-05,1.000000000000000082e-05,2.900000000000000017e-04,2.500000000000000052e-04,2.000000000000000164e-05,3.799999999999999667e-04,6.000000000000000000e+00,2.300000000000000000e+01
6.277200000000000000e+04,5.000000000000000240e-05,-5.999999999999999474e-05,-2.000000000000000164e-05,1.000000000000000082e-05,2.900000000000000017e-04,2.500000000000000052e-04,2.000000000000000164e-05,3.799999999999999667e-04,6.000000000000000000e+00,2.300000000000000000e+01
6.277300000000000000e+04,5.000000000000000240e-05,-5.999999999999999474e-05,-2.000000000000000164e-05,1.000000000000000082e-05,2.900000000000000017e-04,2.500000000000000052e-04,2.000000000000000164e-05,3.799999999999999667e-04,6.000000000000000000e+00,2.300000000000000000e+01
6.277400000000000000e+04,5.000000000000000240e-05,-5.999999999999999474e-05,-2.000000000000000164e-05,1.000000000000000082e-05,2.900000000000000017e-04,2.500000000000000052e-04,2.000000000000000164e-05,3.799999999999999667e-04,6.000000000000000000e+00,2.300000000000000000e+01
6.277500000000000000e+04,5.000000000000000240e-05,-5.999999999999999474e-05,-2.000000000000000164e-05,1.000000000000000082e-05,2.900000000000000017e-04,2.500000000000000052e-04,2.000000000000000164e-05,3.799999999999999667e-04,6.000000000000000000e+00,2.300000000000000000e+01
6.277600000000000000e+04,-2.000000000000000164e-05,5.999999999999999474e-05,1.000000000000000082e-05,0.000000000000000000e+00,-1.699999999999999851e-04,-2.600000000000000314e-04,-8.000000000000000654e-05,-1.499999999999999869e-04,6.000000000000000000e+00,2.300000000000000000e+01
6.277700000000000000e+04,-2.000000000000000164e-05,5.999999999999999474e-05,1.000000000000000082e-05,0.000000000000000000e+00,-1.699999999999999851e-04,-2.600000000000000314e-04,-8.000000000000000654e-05,-1.499999999999999869e-04,6.000000000000000000e+00,2.300000000000000000e+01
6.277800000000000000e+04,-2.000000000000000164e-05,5.999999999999999474e-05,1.000000000000000082e-05,0.000000000000000000e+00,-1.699999999999999851e-04,-2.600000000000000314e-04,-8.000000000000000654e-05,-1.499999999999999869e-04,6.000000000000000000e+00,2.300000000000000000e+01
6.277900000000000000e+04,-2.000000000000000164e-05,5.999999999999999474e-05,1.000000000000000082e-05,0.000000000000000000e+00,-1.699999999999999851e-04,-2.600000000000000314e-04,-8.000000000000000654e-05,-1.499999999999999869e-04,6.000000000000000000e+00,2.300000000000000000e+01
6.278000000000000000e+04,-2.000000000000000164e-05,5.999999999999999474e-05,1.000000000000000082e-05,0.000000000000000000e+00,-1.699999999999999851e-04,-2.600000000000000314e-04,-8.000000000000000654e-05,-1.499999999999999869e-04,6.000000000000000000e+00,2.300000000000000000e+01
6.278100000000000000e+04,-2.000000000000000164e-05,5.999999999999999474e-05,1.000000000000000082e-05,0.000000000000000000e+00,-1.699999999999999851e-04,-2.600000000000000314e-04,-8.000000000000000654e-05,-1.499999999999999869e-04,6.000000000000000000e+00,2.300000000000000000e+01
6.278200000000000000e+04,-2.000000000000000164e-05,5.999999999999999474e-05,1.000000000000000082e-05,0.000000000000000000e+00,-1.699999999999999851e-04,-2.600000000000000314e-04,-8.000000000000000654e-05,-1.499999999999999869e-04,6.000000000000000000e+00,2.300000000000000000e+01
6.278300000000000000e+04,-1.399999999999999877e-04,-2.999999999999999737e-05,-1.699999999999999851e-04,-6.999999999999999387e-05,-2.999999999999999737e-04,-1.399999999999999877e-04,-2.999999999999999737e-05,-6.999999999999999387e-05,6.000000000000000000e+00,2.300000000000000000e+01
6.278400000000000000e+04,-1.399999999999999877e-04,-2.999999999999999737e-05,-1.699999999999999851e-04,-6.999999999999999387e-05,-2.999999999999999737e-04,-1.399999999999999877e-04,-2.999999999999999737e-05,-6.999999999999999387e-05,6.000000000000000000e+00,2.300000000000000000e+01
6.278500000000000000e+04,-1.399999999999999877e-04,-2.999999999999999737e-05,-1.699999999999999851e-04,-6.999999999999999387e-05,-2.999999999999999737e-04,-1.399999999999999877e-04,-2.999999999999999737e-05,-6.999999999999999387e-05,6.000000000000000000e+00,2.300000000000000000e+01
6.278600000000000000e+04,-1.399999999999999877e-04,-2.999999999999999737e-05,-1.699999999999999851e-04,-6.999999999999999387e-05,-2.999999999999999737e-04,-1.399999999999999877e-04,-2.999999999999999737e-05,-6.999999999999999387e-05,6.000000000000000000e+00,2.300000000000000000e+01
6.278800000000000000e+04,-1.399999999999999877e-04,-2.999999999999999737e-05,-1.699999999999999851e-04,-6.999999999999999387e-05,-2.999999999999999737e-04,-1.399999999999999877e-04,-2.999999999999999737e-05,-6.999999999999999387e-05,6.000000000000000000e+00,2.300000000000000000e+01
6.278900000000000000e+04,-1.399999999999999877e-04,-2.999999999999999737e-05,-1.699999999999999851e-04,-6.999999999999999387e-05,-2.999999999999999737e-04,-1.399999999999999877e-04,-2.999999999999999737e-05,-6.999999999999999387e-05,6.000000000000000000e+00,2.300000000000000000e+01
6.279000000000000000e+04,-1.399999999999999877e-04,-2.999999999999999737e-05,-1.699999999999999851e-04,-6.999999999999999387e-05,-2.999999999999999737e-04,-1.399999999999999877e-04,-2.999999999999999737e-05,-6.999999999999999387e-05,6.000000000000000000e+00,2.300000000000000000e+01
6.279100000000000000e+04,-1.399999999999999877e-04,-2.999999999999999737e-05,-1.699999999999999851e-04,-6.999999999999999387e-05,-2.999999999999999737e-04,-1.399999999999999877e-04,-2.999999999999999737e-05,-6.999999999999999387e-05,6.000000000000000000e+00,2.300000000000000000e+01
6.279200000000000000e+04,-1.399999999999999877e-04,-2.999999999999999737e-05,-1.699999999999999851e-04,-6.999999999999999387e-05,-2.999999999999999737e-04,-1.399999999999999877e-04,-2.999999999999999737e-05,-6.999999999999999387e-05,6.000000000000000000e+00,2.300000000000000000e+01
6.279300000000000000e+04,-1.399999999999999877e-04,-2.999999999999999737e-05,-1.699999999999999851e-04,-6.999999999999999387e-05,-2.999999999999999737e-04,-1.399999999999999877e-04,-2.999999999999999737e-05,-6.999999999999999387e-05,6.000000000000000000e+00,2.300000000000000000e+01
6.279400000000000000e+04,-1.399999999999999877e-04,-2.999999999999999737e-05,-1.699999999999999851e-04,-6.999999999999999387e-05,-2.999999999999999737e-04,-1.399999999999999877e-04,-2.999999999999999737e-05,-6.999999999999999387e-05,6.000000000000000000e+00,2.300000000000000000e+01
6.279500000000000000e+04,-1.399999999999999877e-04,-2.999999999999999737e-05,-1.699999999999999851e-04,-6.999999999999999387e-05,-2.999999999999999737e-04,-1.399999999999999877e-04,-2.999999999999999737e-05,-6.999999999999999387e-05,6.000000000000000000e+00,2.300000000000000000e+01
6.279600000000000000e+04,-1.399999999999999877e-04,-2.999999999999999737e-05,-1.699999999999999851e-04,-6.999999999999999387e-05,-2.999999999999999737e-04,-1.399999999999999877e-04,-2.999999999999999737e-05,-6.999999999999999387e-05,6.000000000000000000e+00,2.300000000000000000e+01
6.279700000000000000e+04,-1.399999999999999877e-04,-2.999999999999999737e-05,-1.699999999999999851e-04,-6.999999999999999387e-05,-2.999999999999999737e-04,-1.399999999999999877e-04,-2.999999999999999737e-05,-6.999999999999999387e-05,6.000000000000000000e+00,2.300000000000000000e+01
6.279800000000000000e+04,-1.399999999999999877e-04,-2.999999999999999737e-05,-1.699999999999999851e-04,-6.999999999999999387e-05,-2.999999999999999737e-04,-1.399999999999999877e-04,-2.999999999999999737e-05,-6.999999999999999387e-05,6.000000000000000000e+00,2.300000000000000000e+01
6.279900000000000000e+04,-2.000000000000000164e-05,2.000000000000000164e-05,1.000000000000000082e-05,-5.000000000000000240e-05,-8.000000000000000654e-05,-1.300000000000000157e-04,-1.300000000000000157e-04,-8.000000000000000654e-05,6.000000000000000000e+00,2.300000000000000000e+01
6.280000000000000000e+04,-2.000000000000000164e-05,2.000000000000000164e-05,1.000000000000000082e-05,-5.000000000000000240e-05,-8.000000000000000654e-05,-1.300000000000000157e-04,-1.300000000000000157e-04,-8.000000000000000654e-05,6.000000000000000000e+00,2.300000000000000000e+01
6.280100000000000000e+04,-2.000000000000000164e-05,2.000000000000000164e-05,1.000000000000000082e-05,-5.000000000000000240e-05,-8.000000000000000654e-05,-1.300000000000000157e-04,-1.300000000000000157e-04,-8.000000000000000654e-05,6.000000000000000000e+00,2.300000000000000000e+01
6.280200000000000000e+04,-2.000000000000000164e-05,2.000000000000000164e-05,1.000000000000000082e-05,-5.000000000000000240e-05,-8.000000000000000654e-05,-1.300000000000000157e-04,-1.300000000000000157e-04,-8.000000000000000654e-05,6.000000000000000000e+00,2.300000000000000000e+01
6.280300000000000000e+04,-2.000000000000000164e-05,2.000000000000000164e-05,1.000000000000000082e-05,-5.000000000000000240e-05,-8.000000000000000654e-05,-1.300000000000000157e-04,-1.300000000000000157e-04,-8.000000000000000654e-05,6.000000000000000000e+00,2.300000000000000000e+01
6.280400000000000000e+04,-2.000000000000000164e-05,2.000000000000000164e-05,1.000000000000000082e-05,-5.000000000000000240e-05,-8.000000000000000654e-05,-1.300000000000000157e-04,-1.300000000000000157e-04,-8.000000000000000654e-05,6.000000000000000000e+00,2.300000000000000000e+01
6.280500000000000000e+04,2.000000000000000164e-05,6.999999999999999387e-05,4.000000000000000327e-05,-5.000000000000000240e-05,2.000000000000000096e-04,-1.000000000000000048e-04,-6.999999999999999387e-05,0.000000000000000000e+00,6.000000000000000000e+00,2.300000000000000000e+01
6.280600000000000000e+04,2.000000000000000164e-05,6.999999999999999387e-05,4.000000000000000327e-05,-5.000000000000000240e-05,2.000000000000000096e-04,-1.000000000000000048e-04,-6.999999999999999387e-05,0.000000000000000000e+00,6.000000000000000000e+00,2.300000000000000000e+01
6.280700000000000000e+04,2.000000000000000164e-05,6.999999999999999387e-05,4.000000000000000327e-05,-5.000000000000000240e-05,2.000000000000000096e-04,-1.000000000000000048e-04,-6.999999999999999387e-05,0.000000000000000000e+00,6.000000000000000000e+00,2.300000000000000000e+01
6.280800000000000000e+04,2.000000000000000164e-05,6.999999999999999387e-05,4.000000000000000327e-05,-5.000000000000000240e-05,2.000000000000000096e-04,-1.000000000000000048e-04,-6.999999999999999387e-05,0.000000000000000000e+00,6.000000000000000000e+00,2.300000000000000000e+01
6.280900000000000000e+04,2.000000000000000164e-05,6.999999999999999387e-05,4.000000000000000327e-05,-5.000000000000000240e-05,2.000000000000000096e-04,-1.000000000000000048e-04,-6.999999999999999387e-05,0.000000000000000000e+00,6.000000000000000000e+00,2.300000000000000000e+01
6.281000000000000000e+04,2.000000000000000164e-05,6.999999999999999387e-05,4.000000000000000327e-05,-5.000000000000000240e-05,2.000000000000000096e-04,-1.000000000000000048e-04,-6.999999999999999387e-05,0.000000000000000000e+00,6.000000000000000000e+00,2.300000000000000000e+01
6.281100000000000000e+04,2.000000000000000164e-05,6.999999999999999387e-05,4.000000000000000327e-05,-5.000000000000000240e-05,2.000000000000000096e-04,-1.000000000000000048e-04,-6.999999999999999387e-05,0.000000000000000000e+00,6.000000000000000000e+00,2.300000000000000000e+01
6.281200000000000000e+04,2.000000000000000164e-05,6.999999999999999387e-05,4.000000000000000327e-05,-5.000000000000000240e-05,2.000000000000000096e-04,-1.000000000000000048e-04,-6.999999999999999387e-05,0.000000000000000000e+00,6.000000000000000000e+00,2.300000000000000000e+01
6.281300000000000000e+04,2.000000000000000164e-05,6.999999999999999387e-05,4.000000000000000327e-05,-5.000000000000000240e-05,2.000000000000000096e-04,-1.000000000000000048e-04,-6.999999999999999387e-05,0.000000000000000000e+00,6.000000000000000000e+00,2.300000000000000000e+01
6.281400000000000000e+04,2.000000000000000164e-05,6.999999999999999387e-05,4.000000000000000327e-05,-5.000000000000000240e-05,2.000000000000000096e-04,-1.000000000000000048e-04,-6.999999999999999387e-05,0.000000000000000000e+00,6.000000000000000000e+00,2.300000000000000000e+01
6.281500000000000000e+04,2.000000000000000164e-05,6.999999999999999387e-05,4.000000000000000327e-05,-5.000000000000000240e-05,2.000000000000000096e-04,-1.000000000000000048e-04,-6.999999999999999387e-05,0.000000000000000000e+00,6.000000000000000000e+00,2.300000000000000000e+01
6.281600000000000000e+04,2.000000000000000164e-05,6.999999999999999387e-05,4.000000000000000327e-05,-5.000000000000000240e-05,2.000000000000000096e-04,-1.000000000000000048e-04,-6.999999999999999387e-05,0.000000000000000000e+00,6.000000000000000000e+00,2.300000000000000000e+01
6.281700000000000000e+04,2.000000000000000164e-05,6.999999999999999387e-05,4.000000000000000327e-05,-5.000000000000000240e-05,2.000000000000000096e-04,-1.000000000000000048e-04,-6.999999999999999387e-05,0.000000000000000000e+00,6.000000000000000000e+00,2.300000000000000000e+01
6.281800000000000000e+04,2.000000000000000164e-05,6.999999999999999387e-05,4.000000000000000327e-05,-5.000000000000000240e-05,2.000000000000000096e-04,-1.000000000000000048e-04,-6.999999999999999387e-05,0.000000000000000000e+00,6.000000000000000000e+00,2.300000000000000000e+01
6.281900000000000000e+04,2.000000000000000164e-05,6.999999999999999387e-05,4.000000000000000327e-05,-5.000000000000000240e-05,2.000000000000000096e-04,-1.000000000000000048e-04,-6.999999999999999387e-05,0.000000000000000000e+00,6.000000000000000000e+00,2.300000000000000000e+01
6.282100000000000000e+04,2.000000000000000164e-05,-2.999999999999999737e-05,0.000000000000000000e+00,1.000000000000000082e-05,-2.999999999999999737e-04,-3.799999999999999667e-04,1.300000000000000157e-04,6.999999999999999387e-05,6.000000000000000000e+00,2.300000000000000000e+01
6.282200000000000000e+04,0.000000000000000000e+00,0.000000000000000000e+00,-2.000000000000000164e-05,0.000000000000000000e+00,-3.200000000000000262e-04,3.799999999999999667e-04,1.300000000000000157e-04,-4.000000000000000327e-05,6.000000000000000000e+00,2.300000000000000000e+01
6.282300000000000000e+04,5.999999999999999474e-05,-2.999999999999999737e-05,-2.999999999999999737e-05,-5.999999999999999474e-05,-1.600000000000000131e-04,-1.000000000000000082e-05,4.000000000000000327e-05,4.000000000000000327e-05,6.000000000000000000e+00,2.300000000000000000e+01
6.282400000000000000e+04,5.999999999999999474e-05,-2.999999999999999737e-05,-2.999999999999999737e-05,-5.999999999999999474e-05,-1.600000000000000131e-04,-1.000000000000000082e-05,4.000000000000000327e-05,4.000000000000000327e-05,6.000000000000000000e+00,2.300000000000000000e+01
6.282500000000000000e+04,5.999999999999999474e-05,-2.999999999999999737e-05,-2.999999999999999737e-05,-5.999999999999999474e-05,-1.600000000000000131e-04,-1.000000000000000082e-05,4.000000000000000327e-05,4.000000000000000327e-05,6.000000000000000000e+00,2.300000000000000000e+01
6.282600000000000000e+04,5.999999999999999474e-05,-2.999999999999999737e-05,-2.999999999999999737e-05,-5.999999999999999474e-05,-1.600000000000000131e-04,-1.000000000000000082e-05,4.000000000000000327e-05,4.000000000000000327e-05,6.000000000000000000e+00,2.300000000000000000e+01
6.282700000000000000e+04,5.999999999999999474e-05,-2.999999999999999737e-05,-2.999999999999999737e-05,-5.999999999999999474e-05,-1.600000000000000131e-04,-1.000000000000000082e-05,4.000000000000000327e-05,4.000000000000000327e-05,6.000000000000000000e+00,2.300000000000000000e+01
6.282800000000000000e+04,5.999999999999999474e-05,-2.999999999999999737e-05,-2.999999999999999737e-05,-5.999999999999999474e-05,-1.600000000000000131e-04,-1.000000000000000082e-05,4.000000000000000327e-05,4.000000000000000327e-05,6.000000000000000000e+00,2.300000000000000000e+01
6.282900000000000000e+04,5.999999999999999474e-05,-2.999999999999999737e-05,-2.999999999999999737e-05,-5.999999999999999474e-05,-1.600000000000000131e-04,-1.000000000000000082e-05,4.000000000000000327e-05,4.000000000000000327e-05,6.000000000000000000e+00,2.300000000000000000e+01
6.283000000000000000e+04,5.999999999999999474e-05,-2.999999999999999737e-05,-2.999999999999999737e-05,-5.999999999999999474e-05,-1.600000000000000131e-04,-1.000000000000000082e-05,4.000000000000000327e-05,4.000000000000000327e-05,6.000000000000000000e+00,2.300000000000000000e+01
6.283100000000000000e+04,5.999999999999999474e-05,-2.999999999999999737e-05,-2.999999999999999737e-05,-5.999999999999999474e-05,-1.600000000000000131e-04,-1.000000000000000082e-05,4.000000000000000327e-05,4.000000000000000327e-05,6.000000000000000000e+00,2.300000000000000000e+01
6.283200000000000000e+04,5.999999999999999474e-05,-2.999999999999999737e-05,-2.999999999999999737e-05,-5.999999999999999474e-05,-1.600000000000000131e-04,-1.000000000000000082e-05,4.000000000000000327e-05,4.000000000000000327e-05,6.000000000000000000e+00,2.300000000000000000e+01
6.283300000000000000e+04,5.999999999999999474e-05,-2.999999999999999737e-05,-2.999999999999999737e-05,-5.999999999999999474e-05,-1.600000000000000131e-04,-1.000000000000000082e-05,4.000000000000000327e-05,4.000000000000000327e-05,6.000000000000000000e+00,2.300000000000000000e+01
6.283400000000000000e+04,5.999999999999999474e-05,-2.999999999999999737e-05,-2.999999999999999737e-05,-5.999999999999999474e-05,-1.600000000000000131e-04,-1.000000000000000082e-05,4.000000000000000327e-05,4.000000000000000327e-05,6.000000000000000000e+00,2.300000000000000000e+01
6.283500000000000000e+04,5.999999999999999474e-05,-2.999999999999999737e-05,-2.999999999999999737e-05,-5.999999999999999474e-05,-1.600000000000000131e-04,-1.000000000000000082e-05,4.000000000000000327e-05,4.000000000000000327e-05,6.000000000000000000e+00,2.300000000000000000e+01
6.283700000000000000e+04,5.000000000000000240e-05,5.000000000000000240e-05,0.000000000000000000e+00,5.000000000000000240e-05,1.000000000000000082e-05,-2.000000000000000164e-05,-2.000000000000000164e-05,-2.000000000000000096e-04,6.000000000000000000e+00,2.300000000000000000e+01
6.283900000000000000e+04,5.000000000000000240e-05,5.000000000000000240e-05,0.000000000000000000e+00,5.000000000000000240e-05,1.000000000000000082e-05,-2.000000000000000164e-05,-2.000000000000000164e-05,-2.000000000000000096e-04,6.000000000000000000e+00,2.300000000000000000e+01
6.284000000000000000e+04,5.000000000000000240e-05,5.000000000000000240e-05,0.000000000000000000e+00,5.000000000000000240e-05,1.000000000000000082e-05,-2.000000000000000164e-05,-2.000000000000000164e-05,-2.000000000000000096e-04,6.000000000000000000e+00,2.300000000000000000e+01
6.284100000000000000e+04,5.000000000000000240e-05,5.000000000000000240e-05,0.000000000000000000e+00,5.000000000000000240e-05,1.000000000000000082e-05,-2.000000000000000164e-05,-2.000000000000000164e-05,-2.000000000000000096e-04,6.000000000000000000e+00,2.300000000000000000e+01
6.284200000000000000e+04,5.000000000000000240e-05,5.000000000000000240e-05,0.000000000000000000e+00,5.000000000000000240e-05,1.000000000000000082e-05,-2.000000000000000164e-05,-2.000000000000000164e-05,-2.000000000000000096e-04,6.000000000000000000e+00,2.300000000000000000e+01
6.284300000000000000e+04,-6.999999999999999387e-05,-2.000000000000000164e-05,-6.999999999999999387e-05,-4.000000000000000327e-05,-1.300000000000000157e-04,-4.400000000000000157e-04,5.999999999999999474e-05,-1.800000000000000113e-04,6.000000000000000000e+00,2.300000000000000000e+01
6.284400000000000000e+04,-6.999999999999999387e-05,-2.000000000000000164e-05,-6.999999999999999387e-05,-4.000000000000000327e-05,-1.300000000000000157e-04,-4.400000000000000157e-04,5.999999999999999474e-05,-1.800000000000000113e-04,6.000000000000000000e+00,2.300000000000000000e+01
6.284500000000000000e+04,-6.999999999999999387e-05,-2.000000000000000164e-05,-6.999999999999999387e-05,-4.000000000000000327e-05,-1.300000000000000157e-04,-4.400000000000000157e-04,5.999999999999999474e-05,-1.800000000000000113e-04,6.000000000000000000e+00,2.300000000000000000e+01
6.284600000000000000e+04,-6.999999999999999387e-05,-2.000000000000000164e-05,-6.999999999999999387e-05,-4.000000000000000327e-05,-1.300000000000000157e-04,-4.400000000000000157e-04,5.999999999999999474e-05,-1.800000000000000113e-04,6.000000000000000000e+00,2.300000000000000000e+01
6.284700000000000000e+04,-6.999999999999999387e-05,-2.000000000000000164e-05,-6.999999999999999387e-05,-4.000000000000000327e-05,-1.300000000000000157e-04,-4.400000000000000157e-04,5.999999999999999474e-05,-1.800000000000000113e-04,6.000000000000000000e+00,2.300000000000000000e+01
6.284800000000000000e+04,-6.999999999999999387e-05,-2.000000000000000164e-05,-6.999999999999999387e-05,-4.000000000000000327e-05,-1.300000000000000157e-04,-4.400000000000000157e-04,5.999999999999999474e-05,-1.800000000000000113e-04,6.000000000000000000e+00,2.300000000000000000e+01
6.284900000000000000e+04,-6.999999999999999387e-05,-2.000000000000000164e-05,-6.999999999999999387e-05,-4.000000000000000327e-05,-1.300000000000000157e-04,-4.400000000000000157e-04,5.999999999999999474e-05,-1.800000000000000113e-04,6.000000000000000000e+00,2.300000000000000000e+01
6.285000000000000000e+04,-6.999999999999999387e-05,-2.000000000000000164e-05,-6.999999999999999387e-05,-4.000000000000000327e-05,-1.300000000000000157e-04,-4.400000000000000157e-04,5.999999999999999474e-05,-1.800000000000000113e-04,6.000000000000000000e+00,2.300000000000000000e+01
6.285100000000000000e+04,-6.999999999999999387e-05,-2.000000000000000164e-05,-6.999999999999999387e-05,-4.000000000000000327e-05,-1.300000000000000157e-04,-4.400000000000000157e-04,5.999999999999999474e-05,-1.800000000000000113e-04,6.000000000000000000e+00,2.300000000000000000e+01
6.285200000000000000e+04,-6.999999999999999387e-05,-2.000000000000000164e-05,-6.999999999999999387e-05,-4.000000000000000327e-05,-1.300000000000000157e-04,-4.400000000000000157e-04,5.999999999999999474e-05,-1.800000000000000113e-04,6.000000000000000000e+00,2.300000000000000000e+01
6.285300000000000000e+04,-6.999999999999999387e-05,-2.000000000000000164e-05,-6.999999999999999387e-05,-4.000000000000000327e-05,-1.300000000000000157e-04,-4.400000000000000157e-04,5.999999999999999474e-05,-1.800000000000000113e-04,6.000000000000000000e+00,2.300000000000000000e+01
6.285400000000000000e+04,-6.999999999999999387e-05,-2.000000000000000164e-05,-6.999999999999999387e-05,-4.000000000000000327e-05,-1.300000000000000157e-04,-4.400000000000000157e-04,5.999999999999999474e-05,-1.800000000000000113e-04,6.000000000000000000e+00,2.300000000000000000e+01
6.285500000000000000e+04,-6.999999999999999387e-05,-2.000000000000000164e-05,-6.999999999999999387e-05,-4.000000000000000327e-05,-1.300000000000000157e-04,-4.400000000000000157e-04,5.999999999999999474e-05,-1.800000000000000113e-04,6.000000000000000000e+00,2.300000000000000000e+01
6.285600000000000000e+04,-6.999999999999999387e-05,-2.000000000000000164e-05,-6.999999999999999387e-05,-4.000000000000000327e-05,-1.300000000000000157e-04,-4.400000000000000157e-04,5.999999999999999474e-05,-1.800000000000000113e-04,6.000000000000000000e+00,2.300000000000000000e+01
6.285700000000000000e+04,-6.999999999999999387e-05,-2.000000000000000164e-05,-6.999999999999999387e-05,-4.000000000000000327e-05,-1.300000000000000157e-04,-4.400000000000000157e-04,5.999999999999999474e-05,-1.800000000000000113e-04,6.000000000000000000e+00,2.300000000000000000e+01
6.285800000000000000e+04,-6.999999999999999387e-05,-2.000000000000000164e-05,-6.999999999999999387e-05,-4.000000000000000327e-05,-1.300000000000000157e-04,-4.400000000000000157e-04,5.999999999999999474e-05,-1.800000000000000113e-04,6.000000000000000000e+00,2.300000000000000000e+01
6.285900000000000000e+04,-2.000000000000000164e-05,9.000000000000000567e-05,1.499999999999999869e-04,1.000000000000000082e-05,-2.000000000000000164e-05,-1.800000000000000113e-04,1.000000000000000048e-04,8.000000000000000654e-05,6.000000000000000000e+00,2.300000000000000000e+01
6.286000000000000000e+04,-2.000000000000000164e-05,9.000000000000000567e-05,1.499999999999999869e-04,1.000000000000000082e-05,-2.000000000000000164e-05,-1.800000000000000113e-04,1.000000000000000048e-04,8.000000000000000654e-05,6.000000000000000000e+00,2.300000000000000000e+01
6.286100000000000000e+04,-2.000000000000000164e-05,9.000000000000000567e-05,1.499999999999999869e-04,1.000000000000000082e-05,-2.000000000000000164e-05,-1.800000000000000113e-04,1.000000000000000048e-04,8.000000000000000654e-05,6.000000000000000000e+00,2.300000000000000000e+01
6.286200000000000000e+04,-1.000000000000000048e-04,-6.999999999999999387e-05,4.000000000000000327e-05,2.000000000000000164e-05,-4.000000000000000327e-05,2.700000000000000035e-04,2.999999999999999737e-05,1.000000000000000082e-05,6.000000000000000000e+00,2.300000000000000000e+01
6.286300000000000000e+04,-1.000000000000000048e-04,-6.999999999999999387e-05,4.000000000000000327e-05,2.000000000000000164e-05,-4.000000000000000327e-05,2.700000000000000035e-04,2.999999999999999737e-05,1.000000000000000082e-05,6.000000000000000000e+00,2.300000000000000000e+01
6.286400000000000000e+04,-1.000000000000000048e-04,-6.999999999999999387e-05,4.000000000000000327e-05,2.000000000000000164e-05,-4.000000000000000327e-05,2.700000000000000035e-04,2.999999999999999737e-05,1.000000000000000082e-05,6.000000000000000000e+00,2.300000000000000000e+01
6.286500000000000000e+04,-1.000000000000000048e-04,-6.999999999999999387e-05,4.000000000000000327e-05,2.000000000000000164e-05,-4.000000000000000327e-05,2.700000000000000035e-04,2.999999999999999737e-05,1.000000000000000082e-05,6.000000000000000000e+00,2.300000000000000000e+01
6.286600000000000000e+04,-1.000000000000000048e-04,-6.999999999999999387e-05,4.000000000000000327e-05,2.000000000000000164e-05,-4.000000000000000327e-05,2.700000000000000035e-04,2.999999999999999737e-05,1.000000000000000082e-05,6.000000000000000000e+00,2.300000000000000000e+01
6.286800000000000000e+04,-1.000000000000000048e-04,-6.999999999999999387e-05,4.000000000000000327e-05,2.000000000000000164e-05,-4.000000000000000327e-05,2.700000000000000035e-04,2.999999999999999737e-05,1.000000000000000082e-05,6.000000000000000000e+00,2.300000000000000000e+01
6.286900000000000000e+04,-1.000000000000000048e-04,-6.999999999999999387e-05,4.000000000000000327e-05,2.000000000000000164e-05,-4.000000000000000327e-05,2.700000000000000035e-04,2.999999999999999737e-05,1.000000000000000082e-05,6.000000000000000000e+00,2.300000000000000000e+01
6.287000000000000000e+04,-1.000000000000000048e-04,-6.999999999999999387e-05,4.000000000000000327e-05,2.000000000000000164e-05,-4.000000000000000327e-05,2.700000000000000035e-04,2.999999999999999737e-05,1.000000000000000082e-05,6.000000000000000000e+00,2.300000000000000000e+01
6.287100000000000000e+04,-1.000000000000000048e-04,-6.999999999999999387e-05,4.000000000000000327e-05,2.000000000000000164e-05,-4.000000000000000327e-05,2.700000000000000035e-04,2.999999999999999737e-05,1.000000000000000082e-05,6.000000000000000000e+00,2.300000000000000000e+01
6.287200000000000000e+04,-1.000000000000000048e-04,-6.999999999999999387e-05,4.000000000000000327e-05,2.000000000000000164e-05,-4.000000000000000327e-05,2.700000000000000035e-04,2.999999999999999737e-05,1.000000000000000082e-05,6.000000000000000000e+00,2.300000000000000000e+01
6.287300000000000000e+04,-1.000000000000000048e-04,-6.999999999999999387e-05,4.000000000000000327e-05,2.000000000000000164e-05,-4.000000000000000327e-05,2.700000000000000035e-04,2.999999999999999737e-05,1.000000000000000082e-05,6.000000000000000000e+00,2.300000000000000000e+01
6.287400000000000000e+04,-1.000000000000000048e-04,-6.999999999999999387e-05,4.000000000000000327e-05,2.000000000000000164e-05,-4.000000000000000327e-05,2.700000000000000035e-04,2.999999999999999737e-05,1.000000000000000082e-05,6.000000000000000000e+00,2.300000000000000000e+01
6.287500000000000000e+04,-1.000000000000000048e-04,-6.999999999999999387e-05,4.000000000000000327e-05,2.000000000000000164e-05,-4.000000000000000327e-05,2.700000000000000035e-04,2.999999999999999737e-05,1.000000000000000082e-05,6.000000000000000000e+00,2.300000000000000000e+01
6.287600000000000000e+04,-1.000000000000000048e-04,-6.999999999999999387e-05,4.000000000000000327e-05,2.000000000000000164e-05,-4.000000000000000327e-05,2.700000000000000035e-04,2.999999999999999737e-05,1.000000000000000082e-05,6.000000000000000000e+00,2.300000000000000000e+01
6.287700000000000000e+04,-1.000000000000000048e-04,-6.999999999999999387e-05,4.000000000000000327e-05,2.000000000000000164e-05,-4.000000000000000327e-05,2.700000000000000035e-04,2.999999999999999737e-05,1.000000000000000082e-05,6.000000000000000000e+00,2.300000000000000000e+01
6.287800000000000000e+04,-1.000000000000000048e-04,-6.999999999999999387e-05,4.000000000000000327e-05,2.000000000000000164e-05,-4.000000000000000327e-05,2.700000000000000035e-04,2.999999999999999737e-05,1.000000000000000082e-05,6.000000000000000000e+00,2.300000000000000000e+01
6.287900000000000000e+04,-1.000000000000000048e-04,-6.999999999999999387e-05,4.000000000000000327e-05,2.000000000000000164e-05,-4.000000000000000327e-05,2.700000000000000035e-04,2.999999999999999737e-05,1.000000000000000082e-05,6.000000000000000000e+00,2.300000000000000000e+01
6.288000000000000000e+04,-1.000000000000000048e-04,-6.999999999999999387e-05,4.000000000000000327e-05,2.000000000000000164e-05,-4.000000000000000327e-05,2.700000000000000035e-04,2.999999999999999737e-05,1.000000000000000082e-05,6.000000000000000000e+00,2.300000000000000000e+01
6.288100000000000000e+04,-6.999999999999999387e-05,-1.000000000000000082e-05,-2.000000000000000164e-05,-1.000000000000000082e-05,5.999999999999999474e-05,2.999999999999999737e-04,-1.000000000000000082e-05,-2.999999999999999737e-04,6.000000000000000000e+00,2.300000000000000000e+01
6.288200000000000000e+04,-6.999999999999999387e-05,-1.000000000000000082e-05,1.000000000000000082e-05,-1.000000000000000082e-05,-5.999999999999999474e-05,-1.000000000000000082e-05,-5.999999999999999474e-05,-3.399999999999999702e-04,6.000000000000000000e+00,2.300000000000000000e+01
6.288300000000000000e+04,0.000000000000000000e+00,-2.000000000000000164e-05,-5.999999999999999474e-05,-1.000000000000000082e-05,1.000000000000000082e-05,-1.199999999999999895e-04,-8.000000000000000654e-05,-2.299999999999999799e-04,6.000000000000000000e+00,2.300000000000000000e+01
6.288400000000000000e+04,0.000000000000000000e+00,-2.000000000000000164e-05,-5.999999999999999474e-05,-1.000000000000000082e-05,1.000000000000000082e-05,-1.199999999999999895e-04,-8.000000000000000654e-05,-2.299999999999999799e-04,6.000000000000000000e+00,2.300000000000000000e+01
6.288500000000000000e+04,0.000000000000000000e+00,-2.000000000000000164e-05,-5.999999999999999474e-05,-1.000000000000000082e-05,1.000000000000000082e-05,-1.199999999999999895e-04,-8.000000000000000654e-05,-2.299999999999999799e-04,6.000000000000000000e+00,2.300000000000000000e+01
6.288600000000000000e+04,0.000000000000000000e+00,-2.000000000000000164e-05,-5.999999999999999474e-05,-1.000000000000000082e-05,1.000000000000000082e-05,-1.199999999999999895e-04,-8.000000000000000654e-05,-2.299999999999999799e-04,6.000000000000000000e+00,2.300000000000000000e+01
6.288800000000000000e+04,0.000000000000000000e+00,-2.000000000000000164e-05,-5.999999999999999474e-05,-1.000000000000000082e-05,1.000000000000000082e-05,-1.199999999999999895e-04,-8.000000000000000654e-05,-2.299999999999999799e-04,6.000000000000000000e+00,2.300000000000000000e+01
6.289000000000000000e+04,0.000000000000000000e+00,-2.000000000000000164e-05,-5.999999999999999474e-05,-1.000000000000000082e-05,1.000000000000000082e-05,-1.199999999999999895e-04,-8.000000000000000654e-05,-2.299999999999999799e-04,6.000000000000000000e+00,2.300000000000000000e+01
6.289100000000000000e+04,0.000000000000000000e+00,-2.000000000000000164e-05,-5.999999999999999474e-05,-1.000000000000000082e-05,1.000000000000000082e-05,-1.199999999999999895e-04,-8.000000000000000654e-05,-2.299999999999999799e-04,6.000000000000000000e+00,2.300000000000000000e+01
6.289200000000000000e+04,0.000000000000000000e+00,-2.000000000000000164e-05,-5.999999999999999474e-05,-1.000000000000000082e-05,1.000000000000000082e-05,-1.199999999999999895e-04,-8.000000000000000654e-05,-2.299999999999999799e-04,6.000000000000000000e+00,2.300000000000000000e+01
6.289300000000000000e+04,0.000000000000000000e+00,-2.000000000000000164e-05,-5.999999999999999474e-05,-1.000000000000000082e-05,1.000000000000000082e-05,-1.199999999999999895e-04,-8.000000000000000654e-05,-2.299999999999999799e-04,6.000000000000000000e+00,2.300000000000000000e+01
6.289400000000000000e+04,0.000000000000000000e+00,-2.000000000000000164e-05,-5.999999999999999474e-05,-1.000000000000000082e-05,1.000000000000000082e-05,-1.199999999999999895e-04,-8.000000000000000654e-05,-2.299999999999999799e-04,6.000000000000000000e+00,2.300000000000000000e+01
6.289500000000000000e+04,0.000000000000000000e+00,-2.000000000000000164e-05,-5.999999999999999474e-05,-1.000000000000000082e-05,1.000000000000000082e-05,-1.199999999999999895e-04,-8.000000000000000654e-05,-2.299999999999999799e-04,6.000000000000000000e+00,2.300000000000000000e+01
6.289600000000000000e+04,-1.000000000000000048e-04,1.000000000000000082e-05,-2.999999999999999737e-05,0.000000000000000000e+00,1.199999999999999895e-04,2.900000000000000017e-04,-5.999999999999999474e-05,-2.700000000000000035e-04,6.000000000000000000e+00,2.300000000000000000e+01
6.289700000000000000e+04,-1.000000000000000048e-04,1.000000000000000082e-05,-2.999999999999999737e-05,0.000000000000000000e+00,1.199999999999999895e-04,2.900000000000000017e-04,-5.999999999999999474e-05,-2.700000000000000035e-04,6.000000000000000000e+00,2.300000000000000000e+01
6.289800000000000000e+04,-1.000000000000000048e-04,1.000000000000000082e-05,-2.999999999999999737e-05,0.000000000000000000e+00,1.199999999999999895e-04,2.900000000000000017e-04,-5.999999999999999474e-05,-2.700000000000000035e-04,6.000000000000000000e+00,2.300000000000000000e+01
6.289900000000000000e+04,-1.000000000000000048e-04,1.000000000000000082e-05,-2.999999999999999737e-05,0.000000000000000000e+00,1.199999999999999895e-04,2.900000000000000017e-04,-5.999999999999999474e-05,-2.700000000000000035e-04,6.000000000000000000e+00,2.300000000000000000e+01
6.290000000000000000e+04,-1.000000000000000048e-04,1.000000000000000082e-05,-2.999999999999999737e-05,0.000000000000000000e+00,1.199999999999999895e-04,2.900000000000000017e-04,-5.999999999999999474e-05,-2.700000000000000035e-04,6.000000000000000000e+00,2.300000000000000000e+01
6.290100000000000000e+04,-1.000000000000000048e-04,1.000000000000000082e-05,-2.999999999999999737e-05,0.000000000000000000e+00,1.199999999999999895e-04,2.900000000000000017e-04,-5.999999999999999474e-05,-2.700000000000000035e-04,6.000000000000000000e+00,2.300000000000000000e+01
6.290200000000000000e+04,-1.000000000000000048e-04,1.000000000000000082e-05,-2.999999999999999737e-05,0.000000000000000000e+00,1.199999999999999895e-04,2.900000000000000017e-04,-5.999999999999999474e-05,-2.700000000000000035e-04,6.000000000000000000e+00,2.300000000000000000e+01
6.290300000000000000e+04,-1.000000000000000048e-04,1.000000000000000082e-05,-2.999999999999999737e-05,0.000000000000000000e+00,1.199999999999999895e-04,2.900000000000000017e-04,-5.999999999999999474e-05,-2.700000000000000035e-04,6.000000000000000000e+00,2.300000000000000000e+01
6.290400000000000000e+04,2.000000000000000164e-05,-2.000000000000000164e-05,-4.000000000000000327e-05,-8.000000000000000654e-05,-5.099999999999999282e-04,-2.299999999999999799e-04,-1.600000000000000131e-04,-1.100000000000000039e-04,6.000000000000000000e+00,2.300000000000000000e+01
6.290500000000000000e+04,2.000000000000000164e-05,-2.000000000000000164e-05,-4.000000000000000327e-05,-8.000000000000000654e-05,-5.099999999999999282e-04,-2.299999999999999799e-04,-1.600000000000000131e-04,-1.100000000000000039e-04,6.000000000000000000e+00,2.300000000000000000e+01
6.290600000000000000e+04,2.000000000000000164e-05,-2.000000000000000164e-05,-4.000000000000000327e-05,-8.000000000000000654e-05,-5.099999999999999282e-04,-2.299999999999999799e-04,-1.600000000000000131e-04,-1.100000000000000039e-04,6.000000000000000000e+00,2.300000000000000000e+01
6.290700000000000000e+04,2.000000000000000164e-05,-2.000000000000000164e-05,-4.000000000000000327e-05,-8.000000000000000654e-05,-5.099999999999999282e-04,-2.299999999999999799e-04,-1.600000000000000131e-04,-1.100000000000000039e-04,6.000000000000000000e+00,2.300000000000000000e+01
6.290800000000000000e+04,2.000000000000000164e-05,-2.000000000000000164e-05,-4.000000000000000327e-05,-8.000000000000000654e-05,-5.099999999999999282e-04,-2.299999999999999799e-04,-1.600000000000000131e-04,-1.100000000000000039e-04,6.000000000000000000e+00,2.300000000000000000e+01
6.290900000000000000e+04,2.000000000000000164e-05,-2.000000000000000164e-05,-4.000000000000000327e-05,-8.000000000000000654e-05,-5.099999999999999282e-04,-2.299999999999999799e-04,-1.600000000000000131e-04,-1.100000000000000039e-04,6.000000000000000000e+00,2.300000000000000000e+01
6.291000000000000000e+04,2.000000000000000164e-05,-2.000000000000000164e-05,-4.000000000000000327e-05,-8.000000000000000654e-05,-5.099999999999999282e-04,-2.299999999999999799e-04,-1.600000000000000131e-04,-1.100000000000000039e-04,6.000000000000000000e+00,2.300000000000000000e+01
6.291100000000000000e+04,2.000000000000000164e-05,-2.000000000000000164e-05,-4.000000000000000327e-05,-8.000000000000000654e-05,-5.099999999999999282e-04,-2.299999999999999799e-04,-1.600000000000000131e-04,-1.100000000000000039e-04,6.000000000000000000e+00,2.300000000000000000e+01
6.291200000000000000e+04,2.000000000000000164e-05,-2.000000000000000164e-05,-4.000000000000000327e-05,-8.000000000000000654e-05,-5.099999999999999282e-04,-2.299999999999999799e-04,-1.600000000000000131e-04,-1.100000000000000039e-04,6.000000000000000000e+00,2.300000000000000000e+01
6.291300000000000000e+04,2.000000000000000164e-05,-2.000000000000000164e-05,-4.000000000000000327e-05,-8.000000000000000654e-05,-5.099999999999999282e-04,-2.299999999999999799e-04,-1.600000000000000131e-04,-1.100000000000000039e-04,6.000000000000000000e+00,2.300000000000000000e+01
6.291400000000000000e+04,2.000000000000000164e-05,-2.000000000000000164e-05,-4.000000000000000327e-05,-8.000000000000000654e-05,-5.099999999999999282e-04,-2.299999999999999799e-04,-1.600000000000000131e-04,-1.100000000000000039e-04,6.000000000000000000e+00,2.300000000000000000e+01
6.291500000000000000e+04,2.000000000000000164e-05,-2.000000000000000164e-05,-4.000000000000000327e-05,-8.000000000000000654e-05,-5.099999999999999282e-04,-2.299999999999999799e-04,-1.600000000000000131e-04,-1.100000000000000039e-04,6.000000000000000000e+00,2.300000000000000000e+01
6.291600000000000000e+04,2.000000000000000164e-05,-2.000000000000000164e-05,-4.000000000000000327e-05,-8.000000000000000654e-05,-5.099999999999999282e-04,-2.299999999999999799e-04,-1.600000000000000131e-04,-1.100000000000000039e-04,6.000000000000000000e+00,2.300000000000000000e+01
6.291700000000000000e+04,2.000000000000000164e-05,-2.000000000000000164e-05,-4.000000000000000327e-05,-8.000000000000000654e-05,-5.099999999999999282e-04,-2.299999999999999799e-04,-1.600000000000000131e-04,-1.100000000000000039e-04,6.000000000000000000e+00,2.300000000000000000e+01
6.291800000000000000e+04,2.000000000000000164e-05,-2.000000000000000164e-05,-4.000000000000000327e-05,-8.000000000000000654e-05,-5.099999999999999282e-04,-2.299999999999999799e-04,-1.600000000000000131e-04,-1.100000000000000039e-04,6.000000000000000000e+00,2.300000000000000000e+01
6.291900000000000000e+04,6.999999999999999387e-05,2.999999999999999737e-05,5.999999999999999474e-05,1.000000000000000082e-05,-1.000000000000000048e-04,-5.599999999999999509e-04,1.000000000000000082e-05,2.000000000000000164e-05,6.000000000000000000e+00,2.300000000000000000e+01
6.292000000000000000e+04,6.999999999999999387e-05,2.999999999999999737e-05,5.999999999999999474e-05,1.000000000000000082e-05,-1.000000000000000048e-04,-5.599999999999999509e-04,1.000000000000000082e-05,2.000000000000000164e-05,6.000000000000000000e+00,2.300000000000000000e+01
6.292100000000000000e+04,6.999999999999999387e-05,2.999999999999999737e-05,5.999999999999999474e-05,1.000000000000000082e-05,-1.000000000000000048e-04,-5.599999999999999509e-04,1.000000000000000082e-05,2.000000000000000164e-05,6.000000000000000000e+00,2.300000000000000000e+01
6.292200000000000000e+04,6.999999999999999387e-05,2.999999999999999737e-05,5.999999999999999474e-05,1.000000000000000082e-05,-1.000000000000000048e-04,-5.599999999999999509e-04,1.000000000000000082e-05,2.000000000000000164e-05,6.000000000000000000e+00,2.300000000000000000e+01
6.292300000000000000e+04,6.999999999999999387e-05,2.999999999999999737e-05,5.999999999999999474e-05,1.000000000000000082e-05,-1.000000000000000048e-04,-5.599999999999999509e-04,1.000000000000000082e-05,2.000000000000000164e-05,6.000000000000000000e+00,2.300000000000000000e+01
6.292400000000000000e+04,6.999999999999999387e-05,2.999999999999999737e-05,5.999999999999999474e-05,1.000000000000000082e-05,-1.000000000000000048e-04,-5.599999999999999509e-04,1.000000000000000082e-05,2.000000000000000164e-05,6.000000000000000000e+00,2.300000000000000000e+01
6.292500000000000000e+04,6.999999999999999387e-05,2.999999999999999737e-05,5.999999999999999474e-05,1.000000000000000082e-05,-1.000000000000000048e-04,-5.599999999999999509e-04,1.000000000000000082e-05,2.000000000000000164e-05,6.000000000000000000e+00,2.300000000000000000e+01
6.292600000000000000e+04,6.999999999999999387e-05,2.999999999999999737e-05,5.999999999999999474e-05,1.000000000000000082e-05,-1.000000000000000048e-04,-5.599999999999999509e-04,1.000000000000000082e-05,2.000000000000000164e-05,6.000000000000000000e+00,2.300000000000000000e+01
6.292700000000000000e+04,0.000000000000000000e+00,-5.000000000000000240e-05,9.000000000000000567e-05,2.000000000000000164e-05,9.000000000000000567e-05,2.799999999999999755e-04,2.999999999999999737e-05,1.899999999999999834e-04,6.000000000000000000e+00,2.300000000000000000e+01
6.292800000000000000e+04,0.000000000000000000e+00,-5.000000000000000240e-05,9.000000000000000567e-05,2.000000000000000164e-05,9.000000000000000567e-05,2.799999999999999755e-04,2.999999999999999737e-05,1.899999999999999834e-04,6.000000000000000000e+00,2.300000000000000000e+01
6.292900000000000000e+04,0.000000000000000000e+00,-5.000000000000000240e-05,9.000000000000000567e-05,2.000000000000000164e-05,9.000000000000000567e-05,2.799999999999999755e-04,2.999999999999999737e-05,1.899999999999999834e-04,6.000000000000000000e+00,2.300000000000000000e+01
6.293000000000000000e+04,0.000000000000000000e+00,-5.000000000000000240e-05,9.000000000000000567e-05,2.000000000000000164e-05,9.000000000000000567e-05,2.799999999999999755e-04,2.999999999999999737e-05,1.899999999999999834e-04,6.000000000000000000e+00,2.300000000000000000e+01
6.293100000000000000e+04,0.000000000000000000e+00,-5.000000000000000240e-05,9.000000000000000567e-05,2.000000000000000164e-05,9.000000000000000567e-05,2.799999999999999755e-04,2.999999999999999737e-05,1.899999999999999834e-04,6.000000000000000000e+00,2.300000000000000000e+01
6.293200000000000000e+04,0.000000000000000000e+00,-5.000000000000000240e-05,9.000000000000000567e-05,2.000000000000000164e-05,9.000000000000000567e-05,2.799999999999999755e-04,2.999999999999999737e-05,1.899999999999999834e-04,6.000000000000000000e+00,2.300000000000000000e+01
6.293300000000000000e+04,0.000000000000000000e+00,-5.000000000000000240e-05,9.000000000000000567e-05,2.000000000000000164e-05,9.000000000000000567e-05,2.799999999999999755e-04,2.999999999999999737e-05,1.899999999999999834e-04,6.000000000000000000e+00,2.300000000000000000e+01
6.293400000000000000e+04,0.000000000000000000e+00,-5.000000000000000240e-05,9.000000000000000567e-05,2.000000000000000164e-05,9.000000000000000567e-05,2.799999999999999755e-04,2.999999999999999737e-05,1.899999999999999834e-04,6.000000000000000000e+00,2.300000000000000000e+01
6.293500000000000000e+04,0.000000000000000000e+00,-5.000000000000000240e-05,9.000000000000000567e-05,2.000000000000000164e-05,9.000000000000000567e-05,2.799999999999999755e-04,2.999999999999999737e-05,1.899999999999999834e-04,6.000000000000000000e+00,2.300000000000000000e+01
6.293600000000000000e+04,0.000000000000000000e+00,-5.000000000000000240e-05,9.000000000000000567e-05,2.000000000000000164e-05,9.000000000000000567e-05,2.799999999999999755e-04,2.999999999999999737e-05,1.899999999999999834e-04,6.000000000000000000e+00,2.300000000000000000e+01
6.293800000000000000e+04,0.000000000000000000e+00,-5.000000000000000240e-05,9.000000000000000567e-05,2.000000000000000164e-05,9.000000000000000567e-05,2.799999999999999755e-04,2.999999999999999737e-05,1.899999999999999834e-04,6.000000000000000000e+00,2.300000000000000000e+01
6.293900000000000000e+04,0.000000000000000000e+00,-5.000000000000000240e-05,9.000000000000000567e-05,2.000000000000000164e-05,9.000000000000000567e-05,2.799999999999999755e-04,2.999999999999999737e-05,1.899999999999999834e-04,6.000000000000000000e+00,2.300000000000000000e+01
6.294000000000000000e+04,0.000000000000000000e+00,-5.000000000000000240e-05,9.000000000000000567e-05,2.000000000000000164e-05,9.000000000000000567e-05,2.799999999999999755e-04,2.999999999999999737e-05,1.899999999999999834e-04,6.000000000000000000e+00,2.300000000000000000e+01
6.294100000000000000e+04,5.000000000000000240e-05,-1.000000000000000048e-04,-1.800000000000000113e-04,-4.000000000000000327e-05,-1.300000000000000157e-04,-1.300000000000000157e-04,-2.999999999999999737e-05,2.000000000000000096e-04,6.000000000000000000e+00,2.300000000000000000e+01
6.294200000000000000e+04,-4.000000000000000327e-05,-6.999999999999999387e-05,-5.999999999999999474e-05,0.000000000000000000e+00,1.100000000000000039e-04,2.000000000000000096e-04,1.000000000000000082e-05,2.399999999999999790e-04,6.000000000000000000e+00,2.300000000000000000e+01
6.294300000000000000e+04,2.999999999999999737e-05,1.000000000000000082e-05,1.000000000000000082e-05,1.000000000000000082e-05,-1.000000000000000082e-05,6.999999999999999387e-05,2.000000000000000164e-05,1.499999999999999869e-04,6.000000000000000000e+00,2.300000000000000000e+01
6.294400000000000000e+04,2.999999999999999737e-05,1.000000000000000082e-05,1.000000000000000082e-05,1.000000000000000082e-05,-1.000000000000000082e-05,6.999999999999999387e-05,2.000000000000000164e-05,1.499999999999999869e-04,6.000000000000000000e+00,2.300000000000000000e+01
6.294500000000000000e+04,2.999999999999999737e-05,1.000000000000000082e-05,1.000000000000000082e-05,1.000000000000000082e-05,-1.000000000000000082e-05,6.999999999999999387e-05,2.000000000000000164e-05,1.499999999999999869e-04,6.000000000000000000e+00,2.300000000000000000e+01
6.294600000000000000e+04,2.999999999999999737e-05,1.000000000000000082e-05,1.000000000000000082e-05,1.000000000000000082e-05,-1.000000000000000082e-05,6.999999999999999387e-05,2.000000000000000164e-05,1.499999999999999869e-04,6.000000000000000000e+00,2.300000000000000000e+01
6.294700000000000000e+04,2.999999999999999737e-05,1.000000000000000082e-05,1.000000000000000082e-05,1.000000000000000082e-05,-1.000000000000000082e-05,6.999999999999999387e-05,2.000000000000000164e-05,1.499999999999999869e-04,6.000000000000000000e+00,2.300000000000000000e+01
6.294800000000000000e+04,2.999999999999999737e-05,1.000000000000000082e-05,1.000000000000000082e-05,1.000000000000000082e-05,-1.000000000000000082e-05,6.999999999999999387e-05,2.000000000000000164e-05,1.499999999999999869e-04,6.000000000000000000e+00,2.300000000000000000e+01
6.294900000000000000e+04,2.999999999999999737e-05,1.000000000000000082e-05,1.000000000000000082e-05,1.000000000000000082e-05,-1.000000000000000082e-05,6.999999999999999387e-05,2.000000000000000164e-05,1.499999999999999869e-04,6.000000000000000000e+00,2.300000000000000000e+01
6.295000000000000000e+04,2.999999999999999737e-05,1.000000000000000082e-05,1.000000000000000082e-05,1.000000000000000082e-05,-1.000000000000000082e-05,6.999999999999999387e-05,2.000000000000000164e-05,1.499999999999999869e-04,6.000000000000000000e+00,2.300000000000000000e+01
6.295100000000000000e+04,2.999999999999999737e-05,1.000000000000000082e-05,1.000000000000000082e-05,1.000000000000000082e-05,-1.000000000000000082e-05,6.999999999999999387e-05,2.000000000000000164e-05,1.499999999999999869e-04,6.000000000000000000e+00,2.300000000000000000e+01
6.295200000000000000e+04,2.999999999999999737e-05,1.000000000000000082e-05,1.000000000000000082e-05,1.000000000000000082e-05,-1.000000000000000082e-05,6.999999999999999387e-05,2.000000000000000164e-05,1.499999999999999869e-04,6.000000000000000000e+00,2.300000000000000000e+01
6.295300000000000000e+04,2.999999999999999737e-05,1.000000000000000082e-05,1.000000000000000082e-05,1.000000000000000082e-05,-1.000000000000000082e-05,6.999999999999999387e-05,2.000000000000000164e-05,1.499999999999999869e-04,6.000000000000000000e+00,2.300000000000000000e+01
6.295400000000000000e+04,2.999999999999999737e-05,1.000000000000000082e-05,1.000000000000000082e-05,1.000000000000000082e-05,-1.000000000000000082e-05,6.999999999999999387e-05,2.000000000000000164e-05,1.499999999999999869e-04,6.000000000000000000e+00,2.300000000000000000e+01
6.295500000000000000e+04,2.999999999999999737e-05,1.000000000000000082e-05,1.000000000000000082e-05,1.000000000000000082e-05,-1.000000000000000082e-05,6.999999999999999387e-05,2.000000000000000164e-05,1.499999999999999869e-04,6.000000000000000000e+00,2.300000000000000000e+01
6.295600000000000000e+04,-5.000000000000000240e-05,-5.000000000000000240e-05,-5.000000000000000240e-05,-2.000000000000000164e-05,2.000000000000000164e-05,4.299999999999999894e-04,1.399999999999999877e-04,2.000000000000000164e-05,6.000000000000000000e+00,2.300000000000000000e+01
6.295700000000000000e+04,-5.000000000000000240e-05,-5.000000000000000240e-05,-5.000000000000000240e-05,-2.000000000000000164e-05,2.000000000000000164e-05,4.299999999999999894e-04,1.399999999999999877e-04,2.000000000000000164e-05,6.000000000000000000e+00,2.300000000000000000e+01
6.295800000000000000e+04,-5.000000000000000240e-05,-5.000000000000000240e-05,-5.000000000000000240e-05,-2.000000000000000164e-05,2.000000000000000164e-05,4.299999999999999894e-04,1.399999999999999877e-04,2.000000000000000164e-05,6.000000000000000000e+00,2.300000000000000000e+01
6.295900000000000000e+04,-5.000000000000000240e-05,-5.000000000000000240e-05,-5.000000000000000240e-05,-2.000000000000000164e-05,2.000000000000000164e-05,4.299999999999999894e-04,1.399999999999999877e-04,2.000000000000000164e-05,6.000000000000000000e+00,2.300000000000000000e+01
6.296000000000000000e+04,-5.000000000000000240e-05,-5.000000000000000240e-05,-5.000000000000000240e-05,-2.000000000000000164e-05,2.000000000000000164e-05,4.299999999999999894e-04,1.399999999999999877e-04,2.000000000000000164e-05,6.000000000000000000e+00,2.300000000000000000e+01
6.296100000000000000e+04,-5.000000000000000240e-05,-5.000000000000000240e-05,-5.000000000000000240e-05,-2.000000000000000164e-05,2.000000000000000164e-05,4.299999999999999894e-04,1.399999999999999877e-04,2.000000000000000164e-05,6.000000000000000000e+00,2.300000000000000000e+01
6.296200000000000000e+04,-5.000000000000000240e-05,-5.000000000000000240e-05,-5.000000000000000240e-05,-2.000000000000000164e-05,2.000000000000000164e-05,4.299999999999999894e-04,1.399999999999999877e-04,2.000000000000000164e-05,6.000000000000000000e+00,2.300000000000000000e+01
6.296300000000000000e+04,5.000000000000000240e-05,0.000000000000000000e+00,6.999999999999999387e-05,6.999999999999999387e-05,-5.000000000000000240e-05,6.999999999999999387e-05,9.000000000000000567e-05,-3.600000000000000227e-04,6.000000000000000000e+00,2.300000000000000000e+01
6.296400000000000000e+04,5.000000000000000240e-05,0.000000000000000000e+00,6.999999999999999387e-05,6.999999999999999387e-05,-5.000000000000000240e-05,6.999999999999999387e-05,9.000000000000000567e-05,-3.600000000000000227e-04,6.000000000000000000e+00,2.300000000000000000e+01
6.296500000000000000e+04,5.000000000000000240e-05,0.000000000000000000e+00,6.999999999999999387e-05,6.999999999999999387e-05,-5.000000000000000240e-05,6.999999999999999387e-05,9.000000000000000567e-05,-3.600000000000000227e-04,6.000000000000000000e+00,2.300000000000000000e+01
6.296600000000000000e+04,5.000000000000000240e-05,0.000000000000000000e+00,6.999999999999999387e-05,6.999999999999999387e-05,-5.000000000000000240e-05,6.999999999999999387e-05,9.000000000000000567e-05,-3.600000000000000227e-04,6.000000000000000000e+00,2.300000000000000000e+01
6.296700000000000000e+04,5.000000000000000240e-05,0.000000000000000000e+00,6.999999999999999387e-05,6.999999999999999387e-05,-5.000000000000000240e-05,6.999999999999999387e-05,9.000000000000000567e-05,-3.600000000000000227e-04,6.000000000000000000e+00,2.300000000000000000e+01
6.296800000000000000e+04,5.000000000000000240e-05,0.000000000000000000e+00,6.999999999999999387e-05,6.999999999999999387e-05,-5.000000000000000240e-05,6.999999999999999387e-05,9.000000000000000567e-05,-3.600000000000000227e-04,6.000000000000000000e+00,2.300000000000000000e+01
6.296900000000000000e+04,5.000000000000000240e-05,0.000000000000000000e+00,6.999999999999999387e-05,6.999999999999999387e-05,-5.000000000000000240e-05,6.999999999999999387e-05,9.000000000000000567e-05,-3.600000000000000227e-04,6.000000000000000000e+00,2.300000000000000000e+01
6.297000000000000000e+04,5.000000000000000240e-05,0.000000000000000000e+00,6.999999999999999387e-05,6.999999999999999387e-05,-5.000000000000000240e-05,6.999999999999999387e-05,9.000000000000000567e-05,-3.600000000000000227e-04,6.000000000000000000e+00,2.300000000000000000e+01
6.297100000000000000e+04,5.000000000000000240e-05,0.000000000000000000e+00,6.999999999999999387e-05,6.999999999999999387e-05,-5.000000000000000240e-05,6.999999999999999387e-05,9.000000000000000567e-05,-3.600000000000000227e-04,6.000000000000000000e+00,2.300000000000000000e+01
6.297200000000000000e+04,5.000000000000000240e-05,0.000000000000000000e+00,6.999999999999999387e-05,6.999999999999999387e-05,-5.000000000000000240e-05,6.999999999999999387e-05,9.000000000000000567e-05,-3.600000000000000227e-04,6.000000000000000000e+00,2.300000000000000000e+01
6.297300000000000000e+04,5.000000000000000240e-05,0.000000000000000000e+00,6.999999999999999387e-05,6.999999999999999387e-05,-5.000000000000000240e-05,6.999999999999999387e-05,9.000000000000000567e-05,-3.600000000000000227e-04,6.000000000000000000e+00,2.300000000000000000e+01
6.297400000000000000e+04,5.000000000000000240e-05,0.000000000000000000e+00,6.999999999999999387e-05,6.999999999999999387e-05,-5.000000000000000240e-05,6.999999999999999387e-05,9.000000000000000567e-05,-3.600000000000000227e-04,6.000000000000000000e+00,2.300000000000000000e+01
6.297500000000000000e+04,5.000000000000000240e-05,0.000000000000000000e+00,6.999999999999999387e-05,6.999999999999999387e-05,-5.000000000000000240e-05,6.999999999999999387e-05,9.000000000000000567e-05,-3.600000000000000227e-04,6.000000000000000000e+00,2.300000000000000000e+01
6.297600000000000000e+04,5.000000000000000240e-05,0.000000000000000000e+00,6.999999999999999387e-05,6.999999999999999387e-05,-5.000000000000000240e-05,6.999999999999999387e-05,9.000000000000000567e-05,-3.600000000000000227e-04,6.000000000000000000e+00,2.300000000000000000e+01
6.297700000000000000e+04,5.000000000000000240e-05,0.000000000000000000e+00,6.999999999999999387e-05,6.999999999999999387e-05,-5.000000000000000240e-05,6.999999999999999387e-05,9.000000000000000567e-05,-3.600000000000000227e-04,6.000000000000000000e+00,2.300000000000000000e+01
6.297800000000000000e+04,5.000000000000000240e-05,0.000000000000000000e+00,6.999999999999999387e-05,6.999999999999999387e-05,-5.000000000000000240e-05,6.999999999999999387e-05,9.000000000000000567e-05,-3.600000000000000227e-04,6.000000000000000000e+00,2.300000000000000000e+01
6.297900000000000000e+04,-1.000000000000000082e-05,-4.000000000000000327e-05,-1.199999999999999895e-04,-2.000000000000000164e-05,-1.300000000000000157e-04,2.100000000000000087e-04,-2.000000000000000164e-05,2.200000000000000078e-04,6.000000000000000000e+00,2.300000000000000000e+01
6.298000000000000000e+04,6.999999999999999387e-05,5.000000000000000240e-05,2.000000000000000164e-05,-4.000000000000000327e-05,1.399999999999999877e-04,1.000000000000000048e-04,-1.100000000000000039e-04,2.000000000000000164e-05,6.000000000000000000e+00,2.300000000000000000e+01
6.298100000000000000e+04,-1.000000000000000082e-05,0.000000000000000000e+00,-5.000000000000000240e-05,-2.999999999999999737e-05,-1.000000000000000048e-04,-1.100000000000000039e-04,-5.999999999999999474e-05,-2.000000000000000164e-05,6.000000000000000000e+00,2.300000000000000000e+01
6.298200000000000000e+04,-1.000000000000000082e-05,0.000000000000000000e+00,-5.000000000000000240e-05,-2.999999999999999737e-05,-1.000000000000000048e-04,-1.100000000000000039e-04,-5.999999999999999474e-05,-2.000000000000000164e-05,6.000000000000000000e+00,2.300000000000000000e+01
6.298300000000000000e+04,-1.000000000000000082e-05,0.000000000000000000e+00,-5.000000000000000240e-05,-2.999999999999999737e-05,-1.000000000000000048e-04,-1.100000000000000039e-04,-5.999999999999999474e-05,-2.000000000000000164e-05,6.000000000000000000e+00,2.300000000000000000e+01
6.298400000000000000e+04,-1.000000000000000082e-05,0.000000000000000000e+00,-5.000000000000000240e-05,-2.999999999999999737e-05,-1.000000000000000048e-04,-1.100000000000000039e-04,-5.999999999999999474e-05,-2.000000000000000164e-05,6.000000000000000000e+00,2.300000000000000000e+01
6.298500000000000000e+04,-1.000000000000000082e-05,0.000000000000000000e+00,-5.000000000000000240e-05,-2.999999999999999737e-05,-1.000000000000000048e-04,-1.100000000000000039e-04,-5.999999999999999474e-05,-2.000000000000000164e-05,6.000000000000000000e+00,2.300000000000000000e+01
6.298600000000000000e+04,-1.000000000000000082e-05,0.000000000000000000e+00,-5.000000000000000240e-05,-2.999999999999999737e-05,-1.000000000000000048e-04,-1.100000000000000039e-04,-5.999999999999999474e-05,-2.000000000000000164e-05,6.000000000000000000e+00,2.300000000000000000e+01
6.298800000000000000e+04,-1.000000000000000082e-05,0.000000000000000000e+00,-5.000000000000000240e-05,-2.999999999999999737e-05,-1.000000000000000048e-04,-1.100000000000000039e-04,-5.999999999999999474e-05,-2.000000000000000164e-05,6.000000000000000000e+00,2.300000000000000000e+01
6.298900000000000000e+04,-1.000000000000000082e-05,0.000000000000000000e+00,-5.000000000000000240e-05,-2.999999999999999737e-05,-1.000000000000000048e-04,-1.100000000000000039e-04,-5.999999999999999474e-05,-2.000000000000000164e-05,6.000000000000000000e+00,2.300000000000000000e+01
6.299000000000000000e+04,-1.000000000000000082e-05,0.000000000000000000e+00,-5.000000000000000240e-05,-2.999999999999999737e-05,-1.000000000000000048e-04,-1.100000000000000039e-04,-5.999999999999999474e-05,-2.000000000000000164e-05,6.000000000000000000e+00,2.300000000000000000e+01
6.299100000000000000e+04,-1.000000000000000082e-05,0.000000000000000000e+00,-5.000000000000000240e-05,-2.999999999999999737e-05,-1.000000000000000048e-04,-1.100000000000000039e-04,-5.999999999999999474e-05,-2.000000000000000164e-05,6.000000000000000000e+00,2.300000000000000000e+01
6.299200000000000000e+04,-1.000000000000000082e-05,0.000000000000000000e+00,-5.000000000000000240e-05,-2.999999999999999737e-05,-1.000000000000000048e-04,-1.100000000000000039e-04,-5.999999999999999474e-05,-2.000000000000000164e-05,6.000000000000000000e+00,2.300000000000000000e+01
6.299300000000000000e+04,-1.000000000000000082e-05,0.000000000000000000e+00,-5.000000000000000240e-05,-2.999999999999999737e-05,-1.000000000000000048e-04,-1.100000000000000039e-04,-5.999999999999999474e-05,-2.000000000000000164e-05,6.000000000000000000e+00,2.300000000000000000e+01
6.299400000000000000e+04,-1.000000000000000082e-05,0.000000000000000000e+00,-5.000000000000000240e-05,-2.999999999999999737e-05,-1.000000000000000048e-04,-1.100000000000000039e-04,-5.999999999999999474e-05,-2.000000000000000164e-05,6.000000000000000000e+00,2.300000000000000000e+01
6.299500000000000000e+04,-1.000000000000000082e-05,0.000000000000000000e+00,-5.000000000000000240e-05,-2.999999999999999737e-05,-1.000000000000000048e-04,-1.100000000000000039e-04,-5.999999999999999474e-05,-2.000000000000000164e-05,6.000000000000000000e+00,2.300000000000000000e+01
6.299600000000000000e+04,-1.000000000000000082e-05,0.000000000000000000e+00,-5.000000000000000240e-05,-2.999999999999999737e-05,-1.000000000000000048e-04,-1.100000000000000039e-04,-5.999999999999999474e-05,-2.000000000000000164e-05,6.000000000000000000e+00,2.300000000000000000e+01
6.299700000000000000e+04,-1.000000000000000082e-05,0.000000000000000000e+00,-5.000000000000000240e-05,-2.999999999999999737e-05,-1.000000000000000048e-04,-1.100000000000000039e-04,-5.999999999999999474e-05,-2.000000000000000164e-05,6.000000000000000000e+00,2.300000000000000000e+01
6.299800000000000000e+04,-1.000000000000000082e-05,0.000000000000000000e+00,-5.000000000000000240e-05,-2.999999999999999737e-05,-1.000000000000000048e-04,-1.100000000000000039e-04,-5.999999999999999474e-05,-2.000000000000000164e-05,6.000000000000000000e+00,2.300000000000000000e+01
6.299900000000000000e+04,-1.000000000000000082e-05,0.000000000000000000e+00,-5.000000000000000240e-05,-2.999999999999999737e-05,-1.000000000000000048e-04,-1.100000000000000039e-04,-5.999999999999999474e-05,-2.000000000000000164e-05,6.000000000000000000e+00,2.300000000000000000e+01
6.300000000000000000e+04,-1.000000000000000082e-05,0.000000000000000000e+00,-5.000000000000000240e-05,-2.999999999999999737e-05,-1.000000000000000048e-04,-1.100000000000000039e-04,-5.999999999999999474e-05,-2.000000000000000164e-05,6.000000000000000000e+00,2.300000000000000000e+01
6.300100000000000000e+04,-2.999999999999999737e-05,1.000000000000000082e-05,4.000000000000000327e-05,2.000000000000000164e-05,6.999999999999999387e-05,2.299999999999999799e-04,1.000000000000000082e-05,-2.999999999999999737e-05,6.000000000000000000e+00,2.300000000000000000e+01
6.300200000000000000e+04,2.000000000000000164e-05,1.000000000000000082e-05,-2.000000000000000164e-05,1.000000000000000082e-05,-1.000000000000000048e-04,9.000000000000000567e-05,-5.999999999999999474e-05,3.799999999999999667e-04,6.000000000000000000e+00,2.300000000000000000e+01
6.300300000000000000e+04,9.000000000000000567e-05,-9.000000000000000567e-05,-9.000000000000000567e-05,-2.999999999999999737e-05,-1.100000000000000039e-04,4.000000000000000327e-05,1.499999999999999869e-04,3.200000000000000262e-04,6.000000000000000000e+00,2.300000000000000000e+01
6.300400000000000000e+04,9.000000000000000567e-05,-9.000000000000000567e-05,-9.000000000000000567e-05,-2.999999999999999737e-05,-1.100000000000000039e-04,4.000000000000000327e-05,1.499999999999999869e-04,3.200000000000000262e-04,6.000000000000000000e+00,2.300000000000000000e+01
6.300500000000000000e+04,9.000000000000000567e-05,-9.000000000000000567e-05,-9.000000000000000567e-05,-2.999999999999999737e-05,-1.100000000000000039e-04,4.000000000000000327e-05,1.499999999999999869e-04,3.200000000000000262e-04,6.000000000000000000e+00,2.300000000000000000e+01
6.300600000000000000e+04,9.000000000000000567e-05,-9.000000000000000567e-05,-9.000000000000000567e-05,-2.999999999999999737e-05,-1.100000000000000039e-04,4.000000000000000327e-05,1.499999999999999869e-04,3.200000000000000262e-04,6.000000000000000000e+00,2.300000000000000000e+01
6.300700000000000000e+04,9.000000000000000567e-05,-9.000000000000000567e-05,-9.000000000000000567e-05,-2.999999999999999737e-05,-1.100000000000000039e-04,4.000000000000000327e-05,1.499999999999999869e-04,3.200000000000000262e-04,6.000000000000000000e+00,2.300000000000000000e+01
6.300800000000000000e+04,9.000000000000000567e-05,-9.000000000000000567e-05,-9.000000000000000567e-05,-2.999999999999999737e-05,-1.100000000000000039e-04,4.000000000000000327e-05,1.499999999999999869e-04,3.200000000000000262e-04,6.000000000000000000e+00,2.300000000000000000e+01
6.300900000000000000e+04,9.000000000000000567e-05,-9.000000000000000567e-05,-9.000000000000000567e-05,-2.999999999999999737e-05,-1.100000000000000039e-04,4.000000000000000327e-05,1.499999999999999869e-04,3.200000000000000262e-04,6.000000000000000000e+00,2.300000000000000000e+01
6.301000000000000000e+04,9.000000000000000567e-05,-9.000000000000000567e-05,-9.000000000000000567e-05,-2.999999999999999737e-05,-1.100000000000000039e-04,4.000000000000000327e-05,1.499999999999999869e-04,3.200000000000000262e-04,6.000000000000000000e+00,2.300000000000000000e+01
6.301100000000000000e+04,9.000000000000000567e-05,-9.000000000000000567e-05,-9.000000000000000567e-05,-2.999999999999999737e-05,-1.100000000000000039e-04,4.000000000000000327e-05,1.499999999999999869e-04,3.200000000000000262e-04,6.000000000000000000e+00,2.300000000000000000e+01
6.301200000000000000e+04,9.000000000000000567e-05,-9.000000000000000567e-05,-9.000000000000000567e-05,-2.999999999999999737e-05,-1.100000000000000039e-04,4.000000000000000327e-05,1.499999999999999869e-04,3.200000000000000262e-04,6.000000000000000000e+00,2.300000000000000000e+01
6.301300000000000000e+04,9.000000000000000567e-05,-9.000000000000000567e-05,-9.000000000000000567e-05,-2.999999999999999737e-05,-1.100000000000000039e-04,4.000000000000000327e-05,1.499999999999999869e-04,3.200000000000000262e-04,6.000000000000000000e+00,2.300000000000000000e+01
6.301400000000000000e+04,9.000000000000000567e-05,-9.000000000000000567e-05,-9.000000000000000567e-05,-2.999999999999999737e-05,-1.100000000000000039e-04,4.000000000000000327e-05,1.499999999999999869e-04,3.200000000000000262e-04,6.000000000000000000e+00,2.300000000000000000e+01
6.301500000000000000e+04,-1.000000000000000082e-05,-1.000000000000000082e-05,-1.000000000000000082e-05,2.999999999999999737e-05,4.000000000000000327e-05,6.999999999999999387e-05,9.000000000000000567e-05,-1.899999999999999834e-04,6.000000000000000000e+00,2.300000000000000000e+01
6.301600000000000000e+04,-1.000000000000000082e-05,-1.000000000000000082e-05,-1.000000000000000082e-05,2.999999999999999737e-05,4.000000000000000327e-05,6.999999999999999387e-05,9.000000000000000567e-05,-1.899999999999999834e-04,6.000000000000000000e+00,2.300000000000000000e+01
6.301700000000000000e+04,-1.000000000000000082e-05,-1.000000000000000082e-05,-1.000000000000000082e-05,2.999999999999999737e-05,4.000000000000000327e-05,6.999999999999999387e-05,9.000000000000000567e-05,-1.899999999999999834e-04,6.000000000000000000e+00,2.300000000000000000e+01
6.301800000000000000e+04,-1.000000000000000082e-05,-1.000000000000000082e-05,-1.000000000000000082e-05,2.999999999999999737e-05,4.000000000000000327e-05,6.999999999999999387e-05,9.000000000000000567e-05,-1.899999999999999834e-04,6.000000000000000000e+00,2.300000000000000000e+01
6.301900000000000000e+04,-1.000000000000000082e-05,-1.000000000000000082e-05,-1.000000000000000082e-05,2.999999999999999737e-05,4.000000000000000327e-05,6.999999999999999387e-05,9.000000000000000567e-05,-1.899999999999999834e-04,6.000000000000000000e+00,2.300000000000000000e+01
6.302000000000000000e+04,-1.000000000000000082e-05,-1.000000000000000082e-05,-1.000000000000000082e-05,2.999999999999999737e-05,4.000000000000000327e-05,6.999999999999999387e-05,9.000000000000000567e-05,-1.899999999999999834e-04,6.000000000000000000e+00,2.300000000000000000e+01
6.302100000000000000e+04,-1.000000000000000082e-05,-1.000000000000000082e-05,-1.000000000000000082e-05,2.999999999999999737e-05,4.000000000000000327e-05,6.999999999999999387e-05,9.000000000000000567e-05,-1.899999999999999834e-04,6.000000000000000000e+00,2.300000000000000000e+01
6.302200000000000000e+04,-1.000000000000000082e-05,-1.000000000000000082e-05,-1.000000000000000082e-05,2.999999999999999737e-05,4.000000000000000327e-05,6.999999999999999387e-05,9.000000000000000567e-05,-1.899999999999999834e-04,6.000000000000000000e+00,2.300000000000000000e+01
6.302300000000000000e+04,-2.999999999999999737e-05,-5.000000000000000240e-05,-2.000000000000000164e-05,-5.999999999999999474e-05,-2.000000000000000096e-04,-9.000000000000000567e-05,1.000000000000000082e-05,-2.999999999999999737e-05,6.000000000000000000e+00,2.300000000000000000e+01
6.302400000000000000e+04,1.000000000000000082e-05,9.000000000000000567e-05,-2.999999999999999737e-05,2.000000000000000164e-05,2.000000000000000096e-04,5.999999999999999474e-05,0.000000000000000000e+00,-1.000000000000000048e-04,6.000000000000000000e+00,2.300000000000000000e+01
6.302500000000000000e+04,1.000000000000000082e-05,9.000000000000000567e-05,-2.999999999999999737e-05,2.000000000000000164e-05,2.000000000000000096e-04,5.999999999999999474e-05,0.000000000000000000e+00,-1.000000000000000048e-04,6.000000000000000000e+00,2.300000000000000000e+01
6.302600000000000000e+04,1.000000000000000082e-05,9.000000000000000567e-05,-2.999999999999999737e-05,2.000000000000000164e-05,2.000000000000000096e-04,5.999999999999999474e-05,0.000000000000000000e+00,-1.000000000000000048e-04,6.000000000000000000e+00,2.300000000000000000e+01
6.302700000000000000e+04,1.000000000000000082e-05,9.000000000000000567e-05,-2.999999999999999737e-05,2.000000000000000164e-05,2.000000000000000096e-04,5.999999999999999474e-05,0.000000000000000000e+00,-1.000000000000000048e-04,6.000000000000000000e+00,2.300000000000000000e+01
6.302800000000000000e+04,1.000000000000000082e-05,9.000000000000000567e-05,-2.999999999999999737e-05,2.000000000000000164e-05,2.000000000000000096e-04,5.999999999999999474e-05,0.000000000000000000e+00,-1.000000000000000048e-04,6.000000000000000000e+00,2.300000000000000000e+01
6.302900000000000000e+04,1.000000000000000082e-05,9.000000000000000567e-05,-2.999999999999999737e-05,2.000000000000000164e-05,2.000000000000000096e-04,5.999999999999999474e-05,0.000000000000000000e+00,-1.000000000000000048e-04,6.000000000000000000e+00,2.300000000000000000e+01
6.303000000000000000e+04,1.000000000000000082e-05,9.000000000000000567e-05,-2.999999999999999737e-05,2.000000000000000164e-05,2.000000000000000096e-04,5.999999999999999474e-05,0.000000000000000000e+00,-1.000000000000000048e-04,6.000000000000000000e+00,2.300000000000000000e+01
6.303100000000000000e+04,1.000000000000000082e-05,9.000000000000000567e-05,-2.999999999999999737e-05,2.000000000000000164e-05,2.000000000000000096e-04,5.999999999999999474e-05,0.000000000000000000e+00,-1.000000000000000048e-04,6.000000000000000000e+00,2.300000000000000000e+01
6.303200000000000000e+04,1.000000000000000082e-05,9.000000000000000567e-05,-2.999999999999999737e-05,2.000000000000000164e-05,2.000000000000000096e-04,5.999999999999999474e-05,0.000000000000000000e+00,-1.000000000000000048e-04,6.000000000000000000e+00,2.300000000000000000e+01
6.303300000000000000e+04,1.000000000000000082e-05,9.000000000000000567e-05,-2.999999999999999737e-05,2.000000000000000164e-05,2.000000000000000096e-04,5.999999999999999474e-05,0.000000000000000000e+00,-1.000000000000000048e-04,6.000000000000000000e+00,2.300000000000000000e+01
6.303400000000000000e+04,1.000000000000000082e-05,9.000000000000000567e-05,-2.999999999999999737e-05,2.000000000000000164e-05,2.000000000000000096e-04,5.999999999999999474e-05,0.000000000000000000e+00,-1.000000000000000048e-04,6.000000000000000000e+00,2.300000000000000000e+01
6.303500000000000000e+04,1.000000000000000082e-05,9.000000000000000567e-05,-2.999999999999999737e-05,2.000000000000000164e-05,2.000000000000000096e-04,5.999999999999999474e-05,0.000000000000000000e+00,-1.000000000000000048e-04,6.000000000000000000e+00,2.300000000000000000e+01
6.303600000000000000e+04,1.000000000000000082e-05,9.000000000000000567e-05,-2.999999999999999737e-05,2.000000000000000164e-05,2.000000000000000096e-04,5.999999999999999474e-05,0.000000000000000000e+00,-1.000000000000000048e-04,6.000000000000000000e+00,2.300000000000000000e+01
6.303800000000000000e+04,1.000000000000000082e-05,9.000000000000000567e-05,-2.999999999999999737e-05,2.000000000000000164e-05,2.000000000000000096e-04,5.999999999999999474e-05,0.000000000000000000e+00,-1.000000000000000048e-04,6.000000000000000000e+00,2.300000000000000000e+01
6.303900000000000000e+04,1.000000000000000082e-05,0.000000000000000000e+00,-2.000000000000000164e-05,-5.000000000000000240e-05,-1.800000000000000113e-04,4.000000000000000327e-05,-1.399999999999999877e-04,-1.000000000000000048e-04,6.000000000000000000e+00,2.300000000000000000e+01
6.304000000000000000e+04,1.000000000000000082e-05,0.000000000000000000e+00,-2.000000000000000164e-05,-5.000000000000000240e-05,-1.800000000000000113e-04,4.000000000000000327e-05,-1.399999999999999877e-04,-1.000000000000000048e-04,6.000000000000000000e+00,2.300000000000000000e+01
6.304100000000000000e+04,1.000000000000000082e-05,0.000000000000000000e+00,-2.000000000000000164e-05,-5.000000000000000240e-05,-1.800000000000000113e-04,4.000000000000000327e-05,-1.399999999999999877e-04,-1.000000000000000048e-04,6.000000000000000000e+00,2.300000000000000000e+01
6.304200000000000000e+04,1.000000000000000082e-05,0.000000000000000000e+00,-2.000000000000000164e-05,-5.000000000000000240e-05,-1.800000000000000113e-04,4.000000000000000327e-05,-1.399999999999999877e-04,-1.000000000000000048e-04,6.000000000000000000e+00,2.300000000000000000e+01
6.304300000000000000e+04,1.000000000000000082e-05,0.000000000000000000e+00,-2.000000000000000164e-05,-5.000000000000000240e-05,-1.800000000000000113e-04,4.000000000000000327e-05,-1.399999999999999877e-04,-1.000000000000000048e-04,6.000000000000000000e+00,2.300000000000000000e+01
6.304400000000000000e+04,1.000000000000000082e-05,0.000000000000000000e+00,-2.000000000000000164e-05,-5.000000000000000240e-05,-1.800000000000000113e-04,4.000000000000000327e-05,-1.399999999999999877e-04,-1.000000000000000048e-04,6.000000000000000000e+00,2.300000000000000000e+01
6.304500000000000000e+04,0.000000000000000000e+00,-5.000000000000000240e-05,-5.000000000000000240e-05,2.999999999999999737e-05,1.000000000000000082e-05,-3.099999999999999999e-04,-1.399999999999999877e-04,-3.699999999999999947e-04,6.000000000000000000e+00,2.300000000000000000e+01
6.304600000000000000e+04,0.000000000000000000e+00,-5.000000000000000240e-05,-5.000000000000000240e-05,2.999999999999999737e-05,1.000000000000000082e-05,-3.099999999999999999e-04,-1.399999999999999877e-04,-3.699999999999999947e-04,6.000000000000000000e+00,2.300000000000000000e+01
6.304700000000000000e+04,0.000000000000000000e+00,-5.000000000000000240e-05,-5.000000000000000240e-05,2.999999999999999737e-05,1.000000000000000082e-05,-3.099999999999999999e-04,-1.399999999999999877e-04,-3.699999999999999947e-04,6.000000000000000000e+00,2.300000000000000000e+01
6.304800000000000000e+04,0.000000000000000000e+00,-5.000000000000000240e-05,-5.000000000000000240e-05,2.999999999999999737e-05,1.000000000000000082e-05,-3.099999999999999999e-04,-1.399999999999999877e-04,-3.699999999999999947e-04,6.000000000000000000e+00,2.300000000000000000e+01
6.304900000000000000e+04,0.000000000000000000e+00,-5.000000000000000240e-05,-5.000000000000000240e-05,2.999999999999999737e-05,1.000000000000000082e-05,-3.099999999999999999e-04,-1.399999999999999877e-04,-3.699999999999999947e-04,6.000000000000000000e+00,2.300000000000000000e+01
6.305000000000000000e+04,0.000000000000000000e+00,-5.000000000000000240e-05,-5.000000000000000240e-05,2.999999999999999737e-05,1.000000000000000082e-05,-3.099999999999999999e-04,-1.399999999999999877e-04,-3.699999999999999947e-04,6.000000000000000000e+00,2.300000000000000000e+01
6.305100000000000000e+04,0.000000000000000000e+00,-5.000000000000000240e-05,-5.000000000000000240e-05,2.999999999999999737e-05,1.000000000000000082e-05,-3.099999999999999999e-04,-1.399999999999999877e-04,-3.699999999999999947e-04,6.000000000000000000e+00,2.300000000000000000e+01
6.305200000000000000e+04,0.000000000000000000e+00,-5.000000000000000240e-05,-5.000000000000000240e-05,2.999999999999999737e-05,1.000000000000000082e-05,-3.099999999999999999e-04,-1.399999999999999877e-04,-3.699999999999999947e-04,6.000000000000000000e+00,2.300000000000000000e+01
6.305300000000000000e+04,0.000000000000000000e+00,-5.000000000000000240e-05,-5.000000000000000240e-05,2.999999999999999737e-05,1.000000000000000082e-05,-3.099999999999999999e-04,-1.399999999999999877e-04,-3.699999999999999947e-04,6.000000000000000000e+00,2.300000000000000000e+01
6.305400000000000000e+04,0.000000000000000000e+00,-5.000000000000000240e-05,-5.000000000000000240e-05,2.999999999999999737e-05,1.000000000000000082e-05,-3.099999999999999999e-04,-1.399999999999999877e-04,-3.699999999999999947e-04,6.000000000000000000e+00,2.300000000000000000e+01
6.305500000000000000e+04,0.000000000000000000e+00,-5.000000000000000240e-05,-5.000000000000000240e-05,2.999999999999999737e-05,1.000000000000000082e-05,-3.099999999999999999e-04,-1.399999999999999877e-04,-3.699999999999999947e-04,6.000000000000000000e+00,2.300000000000000000e+01
6.305600000000000000e+04,0.000000000000000000e+00,-5.000000000000000240e-05,-5.000000000000000240e-05,2.999999999999999737e-05,1.000000000000000082e-05,-3.099999999999999999e-04,-1.399999999999999877e-04,-3.699999999999999947e-04,6.000000000000000000e+00,2.300000000000000000e+01
6.305700000000000000e+04,0.000000000000000000e+00,-5.000000000000000240e-05,-5.000000000000000240e-05,2.999999999999999737e-05,1.000000000000000082e-05,-3.099999999999999999e-04,-1.399999999999999877e-04,-3.699999999999999947e-04,6.000000000000000000e+00,2.300000000000000000e+01
6.305800000000000000e+04,0.000000000000000000e+00,-5.000000000000000240e-05,-5.000000000000000240e-05,2.999999999999999737e-05,1.000000000000000082e-05,-3.099999999999999999e-04,-1.399999999999999877e-04,-3.699999999999999947e-04,6.000000000000000000e+00,2.300000000000000000e+01
6.305900000000000000e+04,0.000000000000000000e+00,-5.000000000000000240e-05,-5.000000000000000240e-05,2.999999999999999737e-05,1.000000000000000082e-05,-3.099999999999999999e-04,-1.399999999999999877e-04,-3.699999999999999947e-04,6.000000000000000000e+00,2.300000000000000000e+01
6.306000000000000000e+04,0.000000000000000000e+00,-5.000000000000000240e-05,-5.000000000000000240e-05,2.999999999999999737e-05,1.000000000000000082e-05,-3.099999999999999999e-04,-1.399999999999999877e-04,-3.699999999999999947e-04,6.000000000000000000e+00,2.300000000000000000e+01
6.306100000000000000e+04,0.000000000000000000e+00,-5.000000000000000240e-05,-5.000000000000000240e-05,2.999999999999999737e-05,1.000000000000000082e-05,-3.099999999999999999e-04,-1.399999999999999877e-04,-3.699999999999999947e-04,6.000000000000000000e+00,2.300000000000000000e+01
6.306200000000000000e+04,-8.000000000000000654e-05,-2.999999999999999737e-05,-2.999999999999999737e-05,-4.000000000000000327e-05,3.699999999999999947e-04,-4.899999999999999842e-04,-1.800000000000000113e-04,-4.299999999999999894e-04,6.000000000000000000e+00,2.300000000000000000e+01
6.306300000000000000e+04,5.000000000000000240e-05,0.000000000000000000e+00,2.000000000000000164e-05,2.999999999999999737e-05,1.399999999999999877e-04,1.199999999999999895e-04,2.299999999999999799e-04,2.299999999999999799e-04,6.000000000000000000e+00,2.300000000000000000e+01
6.306400000000000000e+04,5.000000000000000240e-05,4.000000000000000327e-05,0.000000000000000000e+00,-4.000000000000000327e-05,-9.000000000000000567e-05,0.000000000000000000e+00,-1.000000000000000048e-04,1.100000000000000039e-04,6.000000000000000000e+00,2.300000000000000000e+01
6.306500000000000000e+04,5.000000000000000240e-05,4.000000000000000327e-05,0.000000000000000000e+00,-4.000000000000000327e-05,-9.000000000000000567e-05,0.000000000000000000e+00,-1.000000000000000048e-04,1.100000000000000039e-04,6.000000000000000000e+00,2.300000000000000000e+01
6.306600000000000000e+04,5.000000000000000240e-05,4.000000000000000327e-05,0.000000000000000000e+00,-4.000000000000000327e-05,-9.000000000000000567e-05,0.000000000000000000e+00,-1.000000000000000048e-04,1.100000000000000039e-04,6.000000000000000000e+00,2.300000000000000000e+01
6.306700000000000000e+04,5.000000000000000240e-05,4.000000000000000327e-05,0.000000000000000000e+00,-4.000000000000000327e-05,-9.000000000000000567e-05,0.000000000000000000e+00,-1.000000000000000048e-04,1.100000000000000039e-04,6.000000000000000000e+00,2.300000000000000000e+01
6.306800000000000000e+04,5.000000000000000240e-05,4.000000000000000327e-05,0.000000000000000000e+00,-4.000000000000000327e-05,-9.000000000000000567e-05,0.000000000000000000e+00,-1.000000000000000048e-04,1.100000000000000039e-04,6.000000000000000000e+00,2.300000000000000000e+01
6.306900000000000000e+04,5.000000000000000240e-05,4.000000000000000327e-05,0.000000000000000000e+00,-4.000000000000000327e-05,-9.000000000000000567e-05,0.000000000000000000e+00,-1.000000000000000048e-04,1.100000000000000039e-04,6.000000000000000000e+00,2.300000000000000000e+01
6.307000000000000000e+04,5.000000000000000240e-05,4.000000000000000327e-05,0.000000000000000000e+00,-4.000000000000000327e-05,-9.000000000000000567e-05,0.000000000000000000e+00,-1.000000000000000048e-04,1.100000000000000039e-04,6.000000000000000000e+00,2.300000000000000000e+01
6.307100000000000000e+04,5.000000000000000240e-05,4.000000000000000327e-05,0.000000000000000000e+00,-4.000000000000000327e-05,-9.000000000000000567e-05,0.000000000000000000e+00,-1.000000000000000048e-04,1.100000000000000039e-04,6.000000000000000000e+00,2.300000000000000000e+01
6.307200000000000000e+04,5.000000000000000240e-05,4.000000000000000327e-05,0.000000000000000000e+00,-4.000000000000000327e-05,-9.000000000000000567e-05,0.000000000000000000e+00,-1.000000000000000048e-04,1.100000000000000039e-04,6.000000000000000000e+00,2.300000000000000000e+01
6.307300000000000000e+04,5.000000000000000240e-05,4.000000000000000327e-05,0.000000000000000000e+00,-4.000000000000000327e-05,-9.000000000000000567e-05,0.000000000000000000e+00,-1.000000000000000048e-04,1.100000000000000039e-04,6.000000000000000000e+00,2.300000000000000000e+01
6.307400000000000000e+04,5.000000000000000240e-05,4.000000000000000327e-05,0.000000000000000000e+00,-4.000000000000000327e-05,-9.000000000000000567e-05,0.000000000000000000e+00,-1.000000000000000048e-04,1.100000000000000039e-04,6.000000000000000000e+00,2.300000000000000000e+01
6.307500000000000000e+04,-4.000000000000000327e-05,-1.000000000000000082e-05,-2.000000000000000164e-05,-2.999999999999999737e-05,2.999999999999999737e-05,-2.999999999999999737e-05,0.000000000000000000e+00,1.000000000000000048e-04,6.000000000000000000e+00,2.300000000000000000e+01
6.307600000000000000e+04,-4.000000000000000327e-05,-1.000000000000000082e-05,-2.000000000000000164e-05,-2.999999999999999737e-05,2.999999999999999737e-05,-2.999999999999999737e-05,0.000000000000000000e+00,1.000000000000000048e-04,6.000000000000000000e+00,2.300000000000000000e+01
6.307700000000000000e+04,-4.000000000000000327e-05,-1.000000000000000082e-05,-2.000000000000000164e-05,-2.999999999999999737e-05,2.999999999999999737e-05,-2.999999999999999737e-05,0.000000000000000000e+00,1.000000000000000048e-04,6.000000000000000000e+00,2.300000000000000000e+01
6.307800000000000000e+04,-4.000000000000000327e-05,-1.000000000000000082e-05,-2.000000000000000164e-05,-2.999999999999999737e-05,2.999999999999999737e-05,-2.999999999999999737e-05,0.000000000000000000e+00,1.000000000000000048e-04,6.000000000000000000e+00,2.300000000000000000e+01
6.307900000000000000e+04,-4.000000000000000327e-05,-1.000000000000000082e-05,-2.000000000000000164e-05,-2.999999999999999737e-05,2.999999999999999737e-05,-2.999999999999999737e-05,0.000000000000000000e+00,1.000000000000000048e-04,6.000000000000000000e+00,2.300000000000000000e+01
6.308000000000000000e+04,-4.000000000000000327e-05,-1.000000000000000082e-05,-2.000000000000000164e-05,-2.999999999999999737e-05,2.999999999999999737e-05,-2.999999999999999737e-05,0.000000000000000000e+00,1.000000000000000048e-04,6.000000000000000000e+00,2.300000000000000000e+01
6.308100000000000000e+04,-4.000000000000000327e-05,-1.000000000000000082e-05,-2.000000000000000164e-05,-2.999999999999999737e-05,2.999999999999999737e-05,-2.999999999999999737e-05,0.000000000000000000e+00,1.000000000000000048e-04,6.000000000000000000e+00,2.300000000000000000e+01
6.308200000000000000e+04,-4.000000000000000327e-05,-1.000000000000000082e-05,-2.000000000000000164e-05,-2.999999999999999737e-05,2.999999999999999737e-05,-2.999999999999999737e-05,0.000000000000000000e+00,1.000000000000000048e-04,6.000000000000000000e+00,2.300000000000000000e+01
6.308300000000000000e+04,-4.000000000000000327e-05,-1.000000000000000082e-05,-2.000000000000000164e-05,-2.999999999999999737e-05,2.999999999999999737e-05,-2.999999999999999737e-05,0.000000000000000000e+00,1.000000000000000048e-04,6.000000000000000000e+00,2.300000000000000000e+01
6.308400000000000000e+04,-5.000000000000000240e-05,0.000000000000000000e+00,-5.000000000000000240e-05,-4.000000000000000327e-05,2.100000000000000087e-04,2.999999999999999737e-04,5.000000000000000240e-05,6.999999999999999387e-05,6.000000000000000000e+00,2.300000000000000000e+01
6.308500000000000000e+04,-5.000000000000000240e-05,0.000000000000000000e+00,-5.000000000000000240e-05,-4.000000000000000327e-05,2.100000000000000087e-04,2.999999999999999737e-04,5.000000000000000240e-05,6.999999999999999387e-05,6.000000000000000000e+00,2.300000000000000000e+01
6.308600000000000000e+04,-5.000000000000000240e-05,0.000000000000000000e+00,-5.000000000000000240e-05,-4.000000000000000327e-05,2.100000000000000087e-04,2.999999999999999737e-04,5.000000000000000240e-05,6.999999999999999387e-05,6.000000000000000000e+00,2.300000000000000000e+01
6.308900000000000000e+04,-5.000000000000000240e-05,0.000000000000000000e+00,-5.000000000000000240e-05,-4.000000000000000327e-05,2.100000000000000087e-04,2.999999999999999737e-04,5.000000000000000240e-05,6.999999999999999387e-05,6.000000000000000000e+00,2.300000000000000000e+01
6.309000000000000000e+04,-5.000000000000000240e-05,0.000000000000000000e+00,-5.000000000000000240e-05,-4.000000000000000327e-05,2.100000000000000087e-04,2.999999999999999737e-04,5.000000000000000240e-05,6.999999999999999387e-05,6.000000000000000000e+00,2.300000000000000000e+01
6.309100000000000000e+04,-5.000000000000000240e-05,0.000000000000000000e+00,-5.000000000000000240e-05,-4.000000000000000327e-05,2.100000000000000087e-04,2.999999999999999737e-04,5.000000000000000240e-05,6.999999999999999387e-05,6.000000000000000000e+00,2.300000000000000000e+01
6.309200000000000000e+04,-5.000000000000000240e-05,0.000000000000000000e+00,-5.000000000000000240e-05,-4.000000000000000327e-05,2.100000000000000087e-04,2.999999999999999737e-04,5.000000000000000240e-05,6.999999999999999387e-05,6.000000000000000000e+00,2.300000000000000000e+01
6.309300000000000000e+04,-5.000000000000000240e-05,0.000000000000000000e+00,-5.000000000000000240e-05,-4.000000000000000327e-05,2.100000000000000087e-04,2.999999999999999737e-04,5.000000000000000240e-05,6.999999999999999387e-05,6.000000000000000000e+00,2.300000000000000000e+01
6.309400000000000000e+04,-5.000000000000000240e-05,0.000000000000000000e+00,-5.000000000000000240e-05,-4.000000000000000327e-05,2.100000000000000087e-04,2.999999999999999737e-04,5.000000000000000240e-05,6.999999999999999387e-05,6.000000000000000000e+00,2.300000000000000000e+01
6.309500000000000000e+04,-5.000000000000000240e-05,0.000000000000000000e+00,-5.000000000000000240e-05,-4.000000000000000327e-05,2.100000000000000087e-04,2.999999999999999737e-04,5.000000000000000240e-05,6.999999999999999387e-05,6.000000000000000000e+00,2.300000000000000000e+01
6.309600000000000000e+04,-5.000000000000000240e-05,0.000000000000000000e+00,-5.000000000000000240e-05,-4.000000000000000327e-05,2.100000000000000087e-04,2.999999999999999737e-04,5.000000000000000240e-05,6.999999999999999387e-05,6.000000000000000000e+00,2.300000000000000000e+01
6.309700000000000000e+04,-5.000000000000000240e-05,0.000000000000000000e+00,-5.000000000000000240e-05,-4.000000000000000327e-05,2.100000000000000087e-04,2.999999999999999737e-04,5.000000000000000240e-05,6.999999999999999387e-05,6.000000000000000000e+00,2.300000000000000000e+01
6.309800000000000000e+04,-5.000000000000000240e-05,0.000000000000000000e+00,-5.000000000000000240e-05,-4.000000000000000327e-05,2.100000000000000087e-04,2.999999999999999737e-04,5.000000000000000240e-05,6.999999999999999387e-05,6.000000000000000000e+00,2.300000000000000000e+01
6.309900000000000000e+04,-1.000000000000000082e-05,2.000000000000000164e-05,8.000000000000000654e-05,9.000000000000000567e-05,4.700000000000000401e-04,3.499999999999999964e-04,1.199999999999999895e-04,-2.000000000000000164e-05,6.000000000000000000e+00,2.300000000000000000e+01
6.310000000000000000e+04,-1.000000000000000082e-05,2.000000000000000164e-05,8.000000000000000654e-05,9.000000000000000567e-05,4.700000000000000401e-04,3.499999999999999964e-04,1.199999999999999895e-04,-2.000000000000000164e-05,6.000000000000000000e+00,2.300000000000000000e+01
6.310100000000000000e+04,-1.000000000000000082e-05,2.000000000000000164e-05,8.000000000000000654e-05,9.000000000000000567e-05,4.700000000000000401e-04,3.499999999999999964e-04,1.199999999999999895e-04,-2.000000000000000164e-05,6.000000000000000000e+00,2.300000000000000000e+01
6.310200000000000000e+04,-1.000000000000000082e-05,2.000000000000000164e-05,8.000000000000000654e-05,9.000000000000000567e-05,4.700000000000000401e-04,3.499999999999999964e-04,1.199999999999999895e-04,-2.000000000000000164e-05,6.000000000000000000e+00,2.300000000000000000e+01
6.310300000000000000e+04,-1.000000000000000082e-05,2.000000000000000164e-05,8.000000000000000654e-05,9.000000000000000567e-05,4.700000000000000401e-04,3.499999999999999964e-04,1.199999999999999895e-04,-2.000000000000000164e-05,6.000000000000000000e+00,2.300000000000000000e+01
6.310400000000000000e+04,-1.000000000000000082e-05,2.000000000000000164e-05,8.000000000000000654e-05,9.000000000000000567e-05,4.700000000000000401e-04,3.499999999999999964e-04,1.199999999999999895e-04,-2.000000000000000164e-05,6.000000000000000000e+00,2.300000000000000000e+01
6.310500000000000000e+04,1.000000000000000082e-05,0.000000000000000000e+00,-2.000000000000000164e-05,-4.000000000000000327e-05,4.000000000000000327e-05,-2.000000000000000164e-05,-1.000000000000000082e-05,1.699999999999999851e-04,6.000000000000000000e+00,2.300000000000000000e+01
6.310600000000000000e+04,1.000000000000000082e-05,0.000000000000000000e+00,-2.000000000000000164e-05,-4.000000000000000327e-05,4.000000000000000327e-05,-2.000000000000000164e-05,-1.000000000000000082e-05,1.699999999999999851e-04,6.000000000000000000e+00,2.300000000000000000e+01
6.310700000000000000e+04,1.000000000000000082e-05,0.000000000000000000e+00,-2.000000000000000164e-05,-4.000000000000000327e-05,4.000000000000000327e-05,-2.000000000000000164e-05,-1.000000000000000082e-05,1.699999999999999851e-04,6.000000000000000000e+00,2.300000000000000000e+01
6.310800000000000000e+04,1.000000000000000082e-05,0.000000000000000000e+00,-2.000000000000000164e-05,-4.000000000000000327e-05,4.000000000000000327e-05,-2.000000000000000164e-05,-1.000000000000000082e-05,1.699999999999999851e-04,6.000000000000000000e+00,2.300000000000000000e+01
6.310900000000000000e+04,1.000000000000000082e-05,0.000000000000000000e+00,-2.000000000000000164e-05,-4.000000000000000327e-05,4.000000000000000327e-05,-2.000000000000000164e-05,-1.000000000000000082e-05,1.699999999999999851e-04,6.000000000000000000e+00,2.300000000000000000e+01
6.311000000000000000e+04,1.000000000000000082e-05,0.000000000000000000e+00,-2.000000000000000164e-05,-4.000000000000000327e-05,4.000000000000000327e-05,-2.000000000000000164e-05,-1.000000000000000082e-05,1.699999999999999851e-04,6.000000000000000000e+00,2.300000000000000000e+01
6.311100000000000000e+04,1.000000000000000082e-05,0.000000000000000000e+00,-2.000000000000000164e-05,-4.000000000000000327e-05,4.000000000000000327e-05,-2.000000000000000164e-05,-1.000000000000000082e-05,1.699999999999999851e-04,6.000000000000000000e+00,2.300000000000000000e+01
6.311200000000000000e+04,1.000000000000000082e-05,0.000000000000000000e+00,-2.000000000000000164e-05,-4.000000000000000327e-05,4.000000000000000327e-05,-2.000000000000000164e-05,-1.000000000000000082e-05,1.699999999999999851e-04,6.000000000000000000e+00,2.300000000000000000e+01
6.311300000000000000e+04,1.000000000000000082e-05,0.000000000000000000e+00,-2.000000000000000164e-05,-4.000000000000000327e-05,4.000000000000000327e-05,-2.000000000000000164e-05,-1.000000000000000082e-05,1.699999999999999851e-04,6.000000000000000000e+00,2.300000000000000000e+01
6.311400000000000000e+04,1.000000000000000082e-05,0.000000000000000000e+00,-2.000000000000000164e-05,-4.000000000000000327e-05,4.000000000000000327e-05,-2.000000000000000164e-05,-1.000000000000000082e-05,1.699999999999999851e-04,6.000000000000000000e+00,2.300000000000000000e+01
6.311500000000000000e+04,1.000000000000000082e-05,0.000000000000000000e+00,-2.000000000000000164e-05,-4.000000000000000327e-05,4.000000000000000327e-05,-2.000000000000000164e-05,-1.000000000000000082e-05,1.699999999999999851e-04,6.000000000000000000e+00,2.300000000000000000e+01
