6.389500000000000000e+04,8.000000000000000654e-05,1.000000000000000082e-05,0.000000000000000000e+00,1.199999999999999895e-04,4.299999999999999894e-04,3.299999999999999982e-04,5.999999999999999474e-05,1.300000000000000157e-04,6.000000000000000000e+00,2.300000000000000000e+01
6.389600000000000000e+04,8.000000000000000654e-05,1.000000000000000082e-05,0.000000000000000000e+00,1.199999999999999895e-04,4.299999999999999894e-04,3.299999999999999982e-04,5.999999999999999474e-05,1.300000000000000157e-04,6.000000000000000000e+00,2.300000000000000000e+01
6.389700000000000000e+04,8.000000000000000654e-05,1.000000000000000082e-05,0.000000000000000000e+00,1.199999999999999895e-04,4.299999999999999894e-04,3.299999999999999982e-04,5.999999999999999474e-05,1.300000000000000157e-04,6.000000000000000000e+00,2.300000000000000000e+01
6.389800000000000000e+04,8.000000000000000654e-05,1.000000000000000082e-05,0.000000000000000000e+00,1.199999999999999895e-04,4.299999999999999894e-04,3.299999999999999982e-04,5.999999999999999474e-05,1.300000000000000157e-04,6.000000000000000000e+00,2.300000000000000000e+01
6.389900000000000000e+04,8.000000000000000654e-05,1.000000000000000082e-05,0.000000000000000000e+00,1.199999999999999895e-04,4.299999999999999894e-04,3.299999999999999982e-04,5.999999999999999474e-05,1.300000000000000157e-04,6.000000000000000000e+00,2.300000000000000000e+01
6.390000000000000000e+04,8.000000000000000654e-05,1.000000000000000082e-05,0.000000000000000000e+00,1.199999999999999895e-04,4.299999999999999894e-04,3.299999999999999982e-04,5.999999999999999474e-05,1.300000000000000157e-04,6.000000000000000000e+00,2.300000000000000000e+01
6.390100000000000000e+04,8.000000000000000654e-05,1.000000000000000082e-05,0.000000000000000000e+00,1.199999999999999895e-04,4.299999999999999894e-04,3.299999999999999982e-04,5.999999999999999474e-05,1.300000000000000157e-04,6.000000000000000000e+00,2.300000000000000000e+01
6.390200000000000000e+04,8.000000000000000654e-05,1.000000000000000082e-05,0.000000000000000000e+00,1.199999999999999895e-04,4.299999999999999894e-04,3.299999999999999982e-04,5.999999999999999474e-05,1.300000000000000157e-04,6.000000000000000000e+00,2.300000000000000000e+01
6.390300000000000000e+04,5.999999999999999474e-05,1.000000000000000082e-05,-1.000000000000000082e-05,4.000000000000000327e-05,3.200000000000000262e-04,2.500000000000000052e-04,2.399999999999999790e-04,4.599999999999999597e-04,6.000000000000000000e+00,2.300000000000000000e+01
6.390400000000000000e+04,5.999999999999999474e-05,1.000000000000000082e-05,-1.000000000000000082e-05,4.000000000000000327e-05,3.200000000000000262e-04,2.500000000000000052e-04,2.399999999999999790e-04,4.599999999999999597e-04,6.000000000000000000e+00,2.300000000000000000e+01
6.390500000000000000e+04,5.999999999999999474e-05,1.000000000000000082e-05,-1.000000000000000082e-05,4.000000000000000327e-05,3.200000000000000262e-04,2.500000000000000052e-04,2.399999999999999790e-04,4.599999999999999597e-04,6.000000000000000000e+00,2.300000000000000000e+01
6.390600000000000000e+04,5.999999999999999474e-05,1.000000000000000082e-05,-1.000000000000000082e-05,4.000000000000000327e-05,3.200000000000000262e-04,2.500000000000000052e-04,2.399999999999999790e-04,4.599999999999999597e-04,6.000000000000000000e+00,2.300000000000000000e+01
6.390700000000000000e+04,5.999999999999999474e-05,1.000000000000000082e-05,-1.000000000000000082e-05,4.000000000000000327e-05,3.200000000000000262e-04,2.500000000000000052e-04,2.399999999999999790e-04,4.599999999999999597e-04,6.000000000000000000e+00,2.300000000000000000e+01
6.390800000000000000e+04,1.100000000000000039e-04,8.000000000000000654e-05,4.000000000000000327e-05,-2.999999999999999737e-05,-2.399999999999999790e-04,-2.999999999999999737e-04,1.600000000000000131e-04,6.599999999999999964e-04,6.000000000000000000e+00,2.300000000000000000e+01
6.390900000000000000e+04,1.100000000000000039e-04,8.000000000000000654e-05,4.000000000000000327e-05,-2.999999999999999737e-05,-2.399999999999999790e-04,-2.999999999999999737e-04,1.600000000000000131e-04,6.599999999999999964e-04,6.000000000000000000e+00,2.300000000000000000e+01
6.391000000000000000e+04,1.100000000000000039e-04,8.000000000000000654e-05,4.000000000000000327e-05,-2.999999999999999737e-05,-2.399999999999999790e-04,-2.999999999999999737e-04,1.600000000000000131e-04,6.599999999999999964e-04,6.000000000000000000e+00,2.300000000000000000e+01
6.391100000000000000e+04,1.100000000000000039e-04,8.000000000000000654e-05,4.000000000000000327e-05,-2.999999999999999737e-05,-2.399999999999999790e-04,-2.999999999999999737e-04,1.600000000000000131e-04,6.599999999999999964e-04,6.000000000000000000e+00,2.300000000000000000e+01
6.391200000000000000e+04,1.100000000000000039e-04,8.000000000000000654e-05,4.000000000000000327e-05,-2.999999999999999737e-05,-2.399999999999999790e-04,-2.999999999999999737e-04,1.600000000000000131e-04,6.599999999999999964e-04,6.000000000000000000e+00,2.300000000000000000e+01
6.391300000000000000e+04,1.100000000000000039e-04,8.000000000000000654e-05,4.000000000000000327e-05,-2.999999999999999737e-05,-2.399999999999999790e-04,-2.999999999999999737e-04,1.600000000000000131e-04,6.599999999999999964e-04,6.000000000000000000e+00,2.300000000000000000e+01
6.391400000000000000e+04,1.100000000000000039e-04,8.000000000000000654e-05,4.000000000000000327e-05,-2.999999999999999737e-05,-2.399999999999999790e-04,-2.999999999999999737e-04,1.600000000000000131e-04,6.599999999999999964e-04,6.000000000000000000e+00,2.300000000000000000e+01
6.391500000000000000e+04,-2.399999999999999790e-04,-1.300000000000000157e-04,-5.000000000000000240e-05,0.000000000000000000e+00,1.000000000000000082e-05,-1.300000000000000157e-04,-2.799999999999999755e-04,-6.199999999999999999e-04,6.000000000000000000e+00,2.300000000000000000e+01
6.391600000000000000e+04,2.999999999999999737e-05,2.000000000000000164e-05,2.999999999999999737e-05,1.000000000000000082e-05,2.000000000000000096e-04,4.599999999999999597e-04,2.200000000000000078e-04,2.200000000000000078e-04,6.000000000000000000e+00,2.300000000000000000e+01
6.391700000000000000e+04,2.999999999999999737e-05,2.000000000000000164e-05,2.999999999999999737e-05,1.000000000000000082e-05,2.000000000000000096e-04,4.599999999999999597e-04,2.200000000000000078e-04,2.200000000000000078e-04,6.000000000000000000e+00,2.300000000000000000e+01
6.391800000000000000e+04,2.999999999999999737e-05,2.000000000000000164e-05,2.999999999999999737e-05,1.000000000000000082e-05,2.000000000000000096e-04,4.599999999999999597e-04,2.200000000000000078e-04,2.200000000000000078e-04,6.000000000000000000e+00,2.300000000000000000e+01
6.391900000000000000e+04,2.999999999999999737e-05,2.000000000000000164e-05,2.999999999999999737e-05,1.000000000000000082e-05,2.000000000000000096e-04,4.599999999999999597e-04,2.200000000000000078e-04,2.200000000000000078e-04,6.000000000000000000e+00,2.300000000000000000e+01
6.392000000000000000e+04,2.999999999999999737e-05,2.000000000000000164e-05,2.999999999999999737e-05,1.000000000000000082e-05,2.000000000000000096e-04,4.599999999999999597e-04,2.200000000000000078e-04,2.200000000000000078e-04,6.000000000000000000e+00,2.300000000000000000e+01
6.392100000000000000e+04,2.999999999999999737e-05,2.000000000000000164e-05,2.999999999999999737e-05,1.000000000000000082e-05,2.000000000000000096e-04,4.599999999999999597e-04,2.200000000000000078e-04,2.200000000000000078e-04,6.000000000000000000e+00,2.300000000000000000e+01
6.392200000000000000e+04,2.999999999999999737e-05,2.000000000000000164e-05,2.999999999999999737e-05,1.000000000000000082e-05,2.000000000000000096e-04,4.599999999999999597e-04,2.200000000000000078e-04,2.200000000000000078e-04,6.000000000000000000e+00,2.300000000000000000e+01
6.392300000000000000e+04,2.999999999999999737e-05,2.000000000000000164e-05,2.999999999999999737e-05,1.000000000000000082e-05,2.000000000000000096e-04,4.599999999999999597e-04,2.200000000000000078e-04,2.200000000000000078e-04,6.000000000000000000e+00,2.300000000000000000e+01
6.392400000000000000e+04,2.999999999999999737e-05,2.000000000000000164e-05,2.999999999999999737e-05,1.000000000000000082e-05,2.000000000000000096e-04,4.599999999999999597e-04,2.200000000000000078e-04,2.200000000000000078e-04,6.000000000000000000e+00,2.300000000000000000e+01
6.392500000000000000e+04,2.999999999999999737e-05,2.000000000000000164e-05,2.999999999999999737e-05,1.000000000000000082e-05,2.000000000000000096e-04,4.599999999999999597e-04,2.200000000000000078e-04,2.200000000000000078e-04,6.000000000000000000e+00,2.300000000000000000e+01
6.392600000000000000e+04,2.999999999999999737e-05,2.000000000000000164e-05,2.999999999999999737e-05,1.000000000000000082e-05,2.000000000000000096e-04,4.599999999999999597e-04,2.200000000000000078e-04,2.200000000000000078e-04,6.000000000000000000e+00,2.300000000000000000e+01
6.392700000000000000e+04,2.999999999999999737e-05,2.000000000000000164e-05,2.999999999999999737e-05,1.000000000000000082e-05,2.000000000000000096e-04,4.599999999999999597e-04,2.200000000000000078e-04,2.200000000000000078e-04,6.000000000000000000e+00,2.300000000000000000e+01
6.392800000000000000e+04,2.999999999999999737e-05,2.000000000000000164e-05,2.999999999999999737e-05,1.000000000000000082e-05,2.000000000000000096e-04,4.599999999999999597e-04,2.200000000000000078e-04,2.200000000000000078e-04,6.000000000000000000e+00,2.300000000000000000e+01
6.392900000000000000e+04,2.999999999999999737e-05,2.000000000000000164e-05,2.999999999999999737e-05,1.000000000000000082e-05,2.000000000000000096e-04,4.599999999999999597e-04,2.200000000000000078e-04,2.200000000000000078e-04,6.000000000000000000e+00,2.300000000000000000e+01
6.393000000000000000e+04,2.999999999999999737e-05,2.000000000000000164e-05,2.999999999999999737e-05,1.000000000000000082e-05,2.000000000000000096e-04,4.599999999999999597e-04,2.200000000000000078e-04,2.200000000000000078e-04,6.000000000000000000e+00,2.300000000000000000e+01
6.393100000000000000e+04,2.999999999999999737e-05,2.000000000000000164e-05,2.999999999999999737e-05,1.000000000000000082e-05,2.000000000000000096e-04,4.599999999999999597e-04,2.200000000000000078e-04,2.200000000000000078e-04,6.000000000000000000e+00,2.300000000000000000e+01
6.393200000000000000e+04,8.000000000000000654e-05,9.000000000000000567e-05,9.000000000000000567e-05,1.300000000000000157e-04,-5.000000000000000240e-05,6.099999999999999737e-04,0.000000000000000000e+00,1.899999999999999834e-04,6.000000000000000000e+00,2.300000000000000000e+01
6.393300000000000000e+04,8.000000000000000654e-05,9.000000000000000567e-05,9.000000000000000567e-05,1.300000000000000157e-04,-5.000000000000000240e-05,6.099999999999999737e-04,0.000000000000000000e+00,1.899999999999999834e-04,6.000000000000000000e+00,2.300000000000000000e+01
6.393400000000000000e+04,8.000000000000000654e-05,9.000000000000000567e-05,9.000000000000000567e-05,1.300000000000000157e-04,-5.000000000000000240e-05,6.099999999999999737e-04,0.000000000000000000e+00,1.899999999999999834e-04,6.000000000000000000e+00,2.300000000000000000e+01
6.393500000000000000e+04,8.000000000000000654e-05,9.000000000000000567e-05,9.000000000000000567e-05,1.300000000000000157e-04,-5.000000000000000240e-05,6.099999999999999737e-04,0.000000000000000000e+00,1.899999999999999834e-04,6.000000000000000000e+00,2.300000000000000000e+01
6.393600000000000000e+04,8.000000000000000654e-05,9.000000000000000567e-05,9.000000000000000567e-05,1.300000000000000157e-04,-5.000000000000000240e-05,6.099999999999999737e-04,0.000000000000000000e+00,1.899999999999999834e-04,6.000000000000000000e+00,2.300000000000000000e+01
6.393800000000000000e+04,8.000000000000000654e-05,9.000000000000000567e-05,9.000000000000000567e-05,1.300000000000000157e-04,-5.000000000000000240e-05,6.099999999999999737e-04,0.000000000000000000e+00,1.899999999999999834e-04,6.000000000000000000e+00,2.300000000000000000e+01
6.393900000000000000e+04,-1.300000000000000157e-04,-4.000000000000000327e-05,-2.000000000000000164e-05,-6.999999999999999387e-05,-2.700000000000000035e-04,-3.799999999999999667e-04,-1.000000000000000048e-04,-5.999999999999999474e-05,6.000000000000000000e+00,2.300000000000000000e+01
6.394000000000000000e+04,-1.300000000000000157e-04,-4.000000000000000327e-05,-2.000000000000000164e-05,-6.999999999999999387e-05,-2.700000000000000035e-04,-3.799999999999999667e-04,-1.000000000000000048e-04,-5.999999999999999474e-05,6.000000000000000000e+00,2.300000000000000000e+01
6.394100000000000000e+04,-1.300000000000000157e-04,-4.000000000000000327e-05,-2.000000000000000164e-05,-6.999999999999999387e-05,-2.700000000000000035e-04,-3.799999999999999667e-04,-1.000000000000000048e-04,-5.999999999999999474e-05,6.000000000000000000e+00,2.300000000000000000e+01
6.394200000000000000e+04,-1.300000000000000157e-04,-4.000000000000000327e-05,-2.000000000000000164e-05,-6.999999999999999387e-05,-2.700000000000000035e-04,-3.799999999999999667e-04,-1.000000000000000048e-04,-5.999999999999999474e-05,6.000000000000000000e+00,2.300000000000000000e+01
6.394300000000000000e+04,-1.300000000000000157e-04,-4.000000000000000327e-05,-2.000000000000000164e-05,-6.999999999999999387e-05,-2.700000000000000035e-04,-3.799999999999999667e-04,-1.000000000000000048e-04,-5.999999999999999474e-05,6.000000000000000000e+00,2.300000000000000000e+01
6.394400000000000000e+04,-1.300000000000000157e-04,-4.000000000000000327e-05,-2.000000000000000164e-05,-6.999999999999999387e-05,-2.700000000000000035e-04,-3.799999999999999667e-04,-1.000000000000000048e-04,-5.999999999999999474e-05,6.000000000000000000e+00,2.300000000000000000e+01
6.394500000000000000e+04,-1.300000000000000157e-04,-4.000000000000000327e-05,-2.000000000000000164e-05,-6.999999999999999387e-05,-2.700000000000000035e-04,-3.799999999999999667e-04,-1.000000000000000048e-04,-5.999999999999999474e-05,6.000000000000000000e+00,2.300000000000000000e+01
6.394600000000000000e+04,-1.300000000000000157e-04,-4.000000000000000327e-05,-2.000000000000000164e-05,-6.999999999999999387e-05,-2.700000000000000035e-04,-3.799999999999999667e-04,-1.000000000000000048e-04,-5.999999999999999474e-05,6.000000000000000000e+00,2.300000000000000000e+01
6.394700000000000000e+04,-1.300000000000000157e-04,-4.000000000000000327e-05,-2.000000000000000164e-05,-6.999999999999999387e-05,-2.700000000000000035e-04,-3.799999999999999667e-04,-1.000000000000000048e-04,-5.999999999999999474e-05,6.000000000000000000e+00,2.300000000000000000e+01
6.394800000000000000e+04,-1.300000000000000157e-04,-4.000000000000000327e-05,-2.000000000000000164e-05,-6.999999999999999387e-05,-2.700000000000000035e-04,-3.799999999999999667e-04,-1.000000000000000048e-04,-5.999999999999999474e-05,6.000000000000000000e+00,2.300000000000000000e+01
6.394900000000000000e+04,-1.300000000000000157e-04,-4.000000000000000327e-05,-2.000000000000000164e-05,-6.999999999999999387e-05,-2.700000000000000035e-04,-3.799999999999999667e-04,-1.000000000000000048e-04,-5.999999999999999474e-05,6.000000000000000000e+00,2.300000000000000000e+01
6.395000000000000000e+04,-1.300000000000000157e-04,-4.000000000000000327e-05,-2.000000000000000164e-05,-6.999999999999999387e-05,-2.700000000000000035e-04,-3.799999999999999667e-04,-1.000000000000000048e-04,-5.999999999999999474e-05,6.000000000000000000e+00,2.300000000000000000e+01
6.395100000000000000e+04,-1.300000000000000157e-04,-4.000000000000000327e-05,-2.000000000000000164e-05,-6.999999999999999387e-05,-2.700000000000000035e-04,-3.799999999999999667e-04,-1.000000000000000048e-04,-5.999999999999999474e-05,6.000000000000000000e+00,2.300000000000000000e+01
6.395200000000000000e+04,-1.300000000000000157e-04,-4.000000000000000327e-05,-2.000000000000000164e-05,-6.999999999999999387e-05,-2.700000000000000035e-04,-3.799999999999999667e-04,-1.000000000000000048e-04,-5.999999999999999474e-05,6.000000000000000000e+00,2.300000000000000000e+01
6.395300000000000000e+04,4.000000000000000327e-05,-4.000000000000000327e-05,-2.000000000000000164e-05,-8.000000000000000654e-05,-2.799999999999999755e-04,2.399999999999999790e-04,1.699999999999999851e-04,4.099999999999999912e-04,6.000000000000000000e+00,2.300000000000000000e+01
6.395400000000000000e+04,4.000000000000000327e-05,-4.000000000000000327e-05,-2.000000000000000164e-05,-8.000000000000000654e-05,-2.799999999999999755e-04,2.399999999999999790e-04,1.699999999999999851e-04,4.099999999999999912e-04,6.000000000000000000e+00,2.300000000000000000e+01
6.395500000000000000e+04,4.000000000000000327e-05,-4.000000000000000327e-05,-2.000000000000000164e-05,-8.000000000000000654e-05,-2.799999999999999755e-04,2.399999999999999790e-04,1.699999999999999851e-04,4.099999999999999912e-04,6.000000000000000000e+00,2.300000000000000000e+01
6.395600000000000000e+04,4.000000000000000327e-05,-4.000000000000000327e-05,-2.000000000000000164e-05,-8.000000000000000654e-05,-2.799999999999999755e-04,2.399999999999999790e-04,1.699999999999999851e-04,4.099999999999999912e-04,6.000000000000000000e+00,2.300000000000000000e+01
6.395700000000000000e+04,4.000000000000000327e-05,-4.000000000000000327e-05,-2.000000000000000164e-05,-8.000000000000000654e-05,-2.799999999999999755e-04,2.399999999999999790e-04,1.699999999999999851e-04,4.099999999999999912e-04,6.000000000000000000e+00,2.300000000000000000e+01
6.395800000000000000e+04,4.000000000000000327e-05,-4.000000000000000327e-05,-2.000000000000000164e-05,-8.000000000000000654e-05,-2.799999999999999755e-04,2.399999999999999790e-04,1.699999999999999851e-04,4.099999999999999912e-04,6.000000000000000000e+00,2.300000000000000000e+01
6.395900000000000000e+04,4.000000000000000327e-05,-4.000000000000000327e-05,-2.000000000000000164e-05,-8.000000000000000654e-05,-2.799999999999999755e-04,2.399999999999999790e-04,1.699999999999999851e-04,4.099999999999999912e-04,6.000000000000000000e+00,2.300000000000000000e+01
6.396000000000000000e+04,4.000000000000000327e-05,-4.000000000000000327e-05,-2.000000000000000164e-05,-8.000000000000000654e-05,-2.799999999999999755e-04,2.399999999999999790e-04,1.699999999999999851e-04,4.099999999999999912e-04,6.000000000000000000e+00,2.300000000000000000e+01
6.396100000000000000e+04,4.000000000000000327e-05,-4.000000000000000327e-05,-2.000000000000000164e-05,-8.000000000000000654e-05,-2.799999999999999755e-04,2.399999999999999790e-04,1.699999999999999851e-04,4.099999999999999912e-04,6.000000000000000000e+00,2.300000000000000000e+01
6.396200000000000000e+04,4.000000000000000327e-05,-4.000000000000000327e-05,-2.000000000000000164e-05,-8.000000000000000654e-05,-2.799999999999999755e-04,2.399999999999999790e-04,1.699999999999999851e-04,4.099999999999999912e-04,6.000000000000000000e+00,2.300000000000000000e+01
6.396300000000000000e+04,2.000000000000000164e-05,4.000000000000000327e-05,2.000000000000000164e-05,5.999999999999999474e-05,2.200000000000000078e-04,-2.100000000000000087e-04,-5.000000000000000240e-05,8.000000000000000654e-05,6.000000000000000000e+00,2.300000000000000000e+01
6.396400000000000000e+04,-4.000000000000000327e-05,4.000000000000000327e-05,6.999999999999999387e-05,1.600000000000000131e-04,2.299999999999999799e-04,-1.600000000000000131e-04,9.000000000000000567e-05,-1.000000000000000048e-04,6.000000000000000000e+00,2.300000000000000000e+01
6.396500000000000000e+04,5.999999999999999474e-05,0.000000000000000000e+00,0.000000000000000000e+00,-2.000000000000000164e-05,-2.999999999999999737e-05,-1.000000000000000082e-05,2.000000000000000164e-05,5.000000000000000240e-05,6.000000000000000000e+00,2.300000000000000000e+01
6.396600000000000000e+04,5.999999999999999474e-05,0.000000000000000000e+00,0.000000000000000000e+00,-2.000000000000000164e-05,-2.999999999999999737e-05,-1.000000000000000082e-05,2.000000000000000164e-05,5.000000000000000240e-05,6.000000000000000000e+00,2.300000000000000000e+01
6.396700000000000000e+04,5.999999999999999474e-05,0.000000000000000000e+00,0.000000000000000000e+00,-2.000000000000000164e-05,-2.999999999999999737e-05,-1.000000000000000082e-05,2.000000000000000164e-05,5.000000000000000240e-05,6.000000000000000000e+00,2.300000000000000000e+01
6.396800000000000000e+04,5.999999999999999474e-05,0.000000000000000000e+00,0.000000000000000000e+00,-2.000000000000000164e-05,-2.999999999999999737e-05,-1.000000000000000082e-05,2.000000000000000164e-05,5.000000000000000240e-05,6.000000000000000000e+00,2.300000000000000000e+01
6.396900000000000000e+04,5.999999999999999474e-05,0.000000000000000000e+00,0.000000000000000000e+00,-2.000000000000000164e-05,-2.999999999999999737e-05,-1.000000000000000082e-05,2.000000000000000164e-05,5.000000000000000240e-05,6.000000000000000000e+00,2.300000000000000000e+01
6.397000000000000000e+04,5.999999999999999474e-05,0.000000000000000000e+00,0.000000000000000000e+00,-2.000000000000000164e-05,-2.999999999999999737e-05,-1.000000000000000082e-05,2.000000000000000164e-05,5.000000000000000240e-05,6.000000000000000000e+00,2.300000000000000000e+01
6.397100000000000000e+04,5.999999999999999474e-05,0.000000000000000000e+00,0.000000000000000000e+00,-2.000000000000000164e-05,-2.999999999999999737e-05,-1.000000000000000082e-05,2.000000000000000164e-05,5.000000000000000240e-05,6.000000000000000000e+00,2.300000000000000000e+01
6.397200000000000000e+04,5.999999999999999474e-05,0.000000000000000000e+00,0.000000000000000000e+00,-2.000000000000000164e-05,-2.999999999999999737e-05,-1.000000000000000082e-05,2.000000000000000164e-05,5.000000000000000240e-05,6.000000000000000000e+00,2.300000000000000000e+01
6.397300000000000000e+04,5.999999999999999474e-05,0.000000000000000000e+00,0.000000000000000000e+00,-2.000000000000000164e-05,-2.999999999999999737e-05,-1.000000000000000082e-05,2.000000000000000164e-05,5.000000000000000240e-05,6.000000000000000000e+00,2.300000000000000000e+01
6.397400000000000000e+04,5.999999999999999474e-05,0.000000000000000000e+00,0.000000000000000000e+00,-2.000000000000000164e-05,-2.999999999999999737e-05,-1.000000000000000082e-05,2.000000000000000164e-05,5.000000000000000240e-05,6.000000000000000000e+00,2.300000000000000000e+01
6.397500000000000000e+04,5.999999999999999474e-05,0.000000000000000000e+00,0.000000000000000000e+00,-2.000000000000000164e-05,-2.999999999999999737e-05,-1.000000000000000082e-05,2.000000000000000164e-05,5.000000000000000240e-05,6.000000000000000000e+00,2.300000000000000000e+01
6.397600000000000000e+04,-6.999999999999999387e-05,-9.000000000000000567e-05,-6.999999999999999387e-05,-6.999999999999999387e-05,-1.399999999999999877e-04,1.600000000000000131e-04,5.000000000000000240e-05,2.799999999999999755e-04,6.000000000000000000e+00,2.300000000000000000e+01
6.397700000000000000e+04,-6.999999999999999387e-05,-9.000000000000000567e-05,-6.999999999999999387e-05,-6.999999999999999387e-05,-1.399999999999999877e-04,1.600000000000000131e-04,5.000000000000000240e-05,2.799999999999999755e-04,6.000000000000000000e+00,2.300000000000000000e+01
6.397800000000000000e+04,-6.999999999999999387e-05,-9.000000000000000567e-05,-6.999999999999999387e-05,-6.999999999999999387e-05,-1.399999999999999877e-04,1.600000000000000131e-04,5.000000000000000240e-05,2.799999999999999755e-04,6.000000000000000000e+00,2.300000000000000000e+01
6.397900000000000000e+04,-6.999999999999999387e-05,-9.000000000000000567e-05,-6.999999999999999387e-05,-6.999999999999999387e-05,-1.399999999999999877e-04,1.600000000000000131e-04,5.000000000000000240e-05,2.799999999999999755e-04,6.000000000000000000e+00,2.300000000000000000e+01
6.398000000000000000e+04,-6.999999999999999387e-05,-9.000000000000000567e-05,-6.999999999999999387e-05,-6.999999999999999387e-05,-1.399999999999999877e-04,1.600000000000000131e-04,5.000000000000000240e-05,2.799999999999999755e-04,6.000000000000000000e+00,2.300000000000000000e+01
6.398100000000000000e+04,-6.999999999999999387e-05,-9.000000000000000567e-05,-6.999999999999999387e-05,-6.999999999999999387e-05,-1.399999999999999877e-04,1.600000000000000131e-04,5.000000000000000240e-05,2.799999999999999755e-04,6.000000000000000000e+00,2.300000000000000000e+01
6.398200000000000000e+04,-6.999999999999999387e-05,-9.000000000000000567e-05,-6.999999999999999387e-05,-6.999999999999999387e-05,-1.399999999999999877e-04,1.600000000000000131e-04,5.000000000000000240e-05,2.799999999999999755e-04,6.000000000000000000e+00,2.300000000000000000e+01
6.398300000000000000e+04,-6.999999999999999387e-05,-9.000000000000000567e-05,-6.999999999999999387e-05,-6.999999999999999387e-05,-1.399999999999999877e-04,1.600000000000000131e-04,5.000000000000000240e-05,2.799999999999999755e-04,6.000000000000000000e+00,2.300000000000000000e+01
6.398400000000000000e+04,-6.999999999999999387e-05,-9.000000000000000567e-05,-6.999999999999999387e-05,-6.999999999999999387e-05,-1.399999999999999877e-04,1.600000000000000131e-04,5.000000000000000240e-05,2.799999999999999755e-04,6.000000000000000000e+00,2.300000000000000000e+01
6.398500000000000000e+04,-6.999999999999999387e-05,-9.000000000000000567e-05,-6.999999999999999387e-05,-6.999999999999999387e-05,-1.399999999999999877e-04,1.600000000000000131e-04,5.000000000000000240e-05,2.799999999999999755e-04,6.000000000000000000e+00,2.300000000000000000e+01
6.398600000000000000e+04,-6.999999999999999387e-05,-9.000000000000000567e-05,-6.999999999999999387e-05,-6.999999999999999387e-05,-1.399999999999999877e-04,1.600000000000000131e-04,5.000000000000000240e-05,2.799999999999999755e-04,6.000000000000000000e+00,2.300000000000000000e+01
6.398800000000000000e+04,-6.999999999999999387e-05,-9.000000000000000567e-05,-6.999999999999999387e-05,-6.999999999999999387e-05,-1.399999999999999877e-04,1.600000000000000131e-04,5.000000000000000240e-05,2.799999999999999755e-04,6.000000000000000000e+00,2.300000000000000000e+01
6.398900000000000000e+04,-6.999999999999999387e-05,-9.000000000000000567e-05,-6.999999999999999387e-05,-6.999999999999999387e-05,-1.399999999999999877e-04,1.600000000000000131e-04,5.000000000000000240e-05,2.799999999999999755e-04,6.000000000000000000e+00,2.300000000000000000e+01
6.399000000000000000e+04,-6.999999999999999387e-05,-9.000000000000000567e-05,-6.999999999999999387e-05,-6.999999999999999387e-05,-1.399999999999999877e-04,1.600000000000000131e-04,5.000000000000000240e-05,2.799999999999999755e-04,6.000000000000000000e+00,2.300000000000000000e+01
6.399100000000000000e+04,-6.999999999999999387e-05,-9.000000000000000567e-05,-6.999999999999999387e-05,-6.999999999999999387e-05,-1.399999999999999877e-04,1.600000000000000131e-04,5.000000000000000240e-05,2.799999999999999755e-04,6.000000000000000000e+00,2.300000000000000000e+01
6.399200000000000000e+04,-6.999999999999999387e-05,-9.000000000000000567e-05,-6.999999999999999387e-05,-6.999999999999999387e-05,-1.399999999999999877e-04,1.600000000000000131e-04,5.000000000000000240e-05,2.799999999999999755e-04,6.000000000000000000e+00,2.300000000000000000e+01
6.399300000000000000e+04,-6.999999999999999387e-05,-9.000000000000000567e-05,-6.999999999999999387e-05,-6.999999999999999387e-05,-1.399999999999999877e-04,1.600000000000000131e-04,5.000000000000000240e-05,2.799999999999999755e-04,6.000000000000000000e+00,2.300000000000000000e+01
6.399400000000000000e+04,-6.999999999999999387e-05,-9.000000000000000567e-05,-6.999999999999999387e-05,-6.999999999999999387e-05,-1.399999999999999877e-04,1.600000000000000131e-04,5.000000000000000240e-05,2.799999999999999755e-04,6.000000000000000000e+00,2.300000000000000000e+01
6.399500000000000000e+04,-6.999999999999999387e-05,-9.000000000000000567e-05,-6.999999999999999387e-05,-6.999999999999999387e-05,-1.399999999999999877e-04,1.600000000000000131e-04,5.000000000000000240e-05,2.799999999999999755e-04,6.000000000000000000e+00,2.300000000000000000e+01
6.399600000000000000e+04,-6.999999999999999387e-05,-9.000000000000000567e-05,-6.999999999999999387e-05,-6.999999999999999387e-05,-1.399999999999999877e-04,1.600000000000000131e-04,5.000000000000000240e-05,2.799999999999999755e-04,6.000000000000000000e+00,2.300000000000000000e+01
6.399700000000000000e+04,-6.999999999999999387e-05,-9.000000000000000567e-05,-6.999999999999999387e-05,-6.999999999999999387e-05,-1.399999999999999877e-04,1.600000000000000131e-04,5.000000000000000240e-05,2.799999999999999755e-04,6.000000000000000000e+00,2.300000000000000000e+01
6.399800000000000000e+04,-6.999999999999999387e-05,-9.000000000000000567e-05,-6.999999999999999387e-05,-6.999999999999999387e-05,-1.399999999999999877e-04,1.600000000000000131e-04,5.000000000000000240e-05,2.799999999999999755e-04,6.000000000000000000e+00,2.300000000000000000e+01
6.399900000000000000e+04,-6.999999999999999387e-05,-9.000000000000000567e-05,-6.999999999999999387e-05,-6.999999999999999387e-05,-1.399999999999999877e-04,1.600000000000000131e-04,5.000000000000000240e-05,2.799999999999999755e-04,6.000000000000000000e+00,2.300000000000000000e+01
6.400000000000000000e+04,-6.999999999999999387e-05,-9.000000000000000567e-05,-6.999999999999999387e-05,-6.999999999999999387e-05,-1.399999999999999877e-04,1.600000000000000131e-04,5.000000000000000240e-05,2.799999999999999755e-04,6.000000000000000000e+00,2.300000000000000000e+01
6.400100000000000000e+04,-1.499999999999999869e-04,1.000000000000000082e-05,0.000000000000000000e+00,-2.000000000000000164e-05,-1.100000000000000039e-04,2.399999999999999790e-04,1.000000000000000082e-05,-4.799999999999999580e-04,6.000000000000000000e+00,2.300000000000000000e+01
6.400200000000000000e+04,6.999999999999999387e-05,-5.999999999999999474e-05,-5.000000000000000240e-05,2.000000000000000164e-05,2.600000000000000314e-04,0.000000000000000000e+00,1.100000000000000039e-04,3.299999999999999982e-04,6.000000000000000000e+00,2.300000000000000000e+01
6.400300000000000000e+04,6.999999999999999387e-05,-5.999999999999999474e-05,-5.000000000000000240e-05,2.000000000000000164e-05,2.600000000000000314e-04,0.000000000000000000e+00,1.100000000000000039e-04,3.299999999999999982e-04,6.000000000000000000e+00,2.300000000000000000e+01
6.400400000000000000e+04,6.999999999999999387e-05,-5.999999999999999474e-05,-5.000000000000000240e-05,2.000000000000000164e-05,2.600000000000000314e-04,0.000000000000000000e+00,1.100000000000000039e-04,3.299999999999999982e-04,6.000000000000000000e+00,2.300000000000000000e+01
6.400500000000000000e+04,6.999999999999999387e-05,-5.999999999999999474e-05,-5.000000000000000240e-05,2.000000000000000164e-05,2.600000000000000314e-04,0.000000000000000000e+00,1.100000000000000039e-04,3.299999999999999982e-04,6.000000000000000000e+00,2.300000000000000000e+01
6.400600000000000000e+04,6.999999999999999387e-05,-5.999999999999999474e-05,-5.000000000000000240e-05,2.000000000000000164e-05,2.600000000000000314e-04,0.000000000000000000e+00,1.100000000000000039e-04,3.299999999999999982e-04,6.000000000000000000e+00,2.300000000000000000e+01
6.400700000000000000e+04,6.999999999999999387e-05,-5.999999999999999474e-05,-5.000000000000000240e-05,2.000000000000000164e-05,2.600000000000000314e-04,0.000000000000000000e+00,1.100000000000000039e-04,3.299999999999999982e-04,6.000000000000000000e+00,2.300000000000000000e+01
6.400800000000000000e+04,6.999999999999999387e-05,-5.999999999999999474e-05,-5.000000000000000240e-05,2.000000000000000164e-05,2.600000000000000314e-04,0.000000000000000000e+00,1.100000000000000039e-04,3.299999999999999982e-04,6.000000000000000000e+00,2.300000000000000000e+01
6.400900000000000000e+04,6.999999999999999387e-05,-5.999999999999999474e-05,-5.000000000000000240e-05,2.000000000000000164e-05,2.600000000000000314e-04,0.000000000000000000e+00,1.100000000000000039e-04,3.299999999999999982e-04,6.000000000000000000e+00,2.300000000000000000e+01
6.401000000000000000e+04,6.999999999999999387e-05,-5.999999999999999474e-05,-5.000000000000000240e-05,2.000000000000000164e-05,2.600000000000000314e-04,0.000000000000000000e+00,1.100000000000000039e-04,3.299999999999999982e-04,6.000000000000000000e+00,2.300000000000000000e+01
6.401100000000000000e+04,6.999999999999999387e-05,-5.999999999999999474e-05,-5.000000000000000240e-05,2.000000000000000164e-05,2.600000000000000314e-04,0.000000000000000000e+00,1.100000000000000039e-04,3.299999999999999982e-04,6.000000000000000000e+00,2.300000000000000000e+01
6.401200000000000000e+04,6.999999999999999387e-05,-5.999999999999999474e-05,-5.000000000000000240e-05,2.000000000000000164e-05,2.600000000000000314e-04,0.000000000000000000e+00,1.100000000000000039e-04,3.299999999999999982e-04,6.000000000000000000e+00,2.300000000000000000e+01
6.401300000000000000e+04,6.999999999999999387e-05,-5.999999999999999474e-05,-5.000000000000000240e-05,2.000000000000000164e-05,2.600000000000000314e-04,0.000000000000000000e+00,1.100000000000000039e-04,3.299999999999999982e-04,6.000000000000000000e+00,2.300000000000000000e+01
6.401400000000000000e+04,6.999999999999999387e-05,-5.999999999999999474e-05,-5.000000000000000240e-05,2.000000000000000164e-05,2.600000000000000314e-04,0.000000000000000000e+00,1.100000000000000039e-04,3.299999999999999982e-04,6.000000000000000000e+00,2.300000000000000000e+01
6.401500000000000000e+04,6.999999999999999387e-05,-5.999999999999999474e-05,-5.000000000000000240e-05,2.000000000000000164e-05,2.600000000000000314e-04,0.000000000000000000e+00,1.100000000000000039e-04,3.299999999999999982e-04,6.000000000000000000e+00,2.300000000000000000e+01
6.401600000000000000e+04,6.999999999999999387e-05,-5.999999999999999474e-05,-5.000000000000000240e-05,2.000000000000000164e-05,2.600000000000000314e-04,0.000000000000000000e+00,1.100000000000000039e-04,3.299999999999999982e-04,6.000000000000000000e+00,2.300000000000000000e+01
6.401700000000000000e+04,6.999999999999999387e-05,-5.999999999999999474e-05,-5.000000000000000240e-05,2.000000000000000164e-05,2.600000000000000314e-04,0.000000000000000000e+00,1.100000000000000039e-04,3.299999999999999982e-04,6.000000000000000000e+00,2.300000000000000000e+01
6.401800000000000000e+04,6.999999999999999387e-05,-5.999999999999999474e-05,-5.000000000000000240e-05,2.000000000000000164e-05,2.600000000000000314e-04,0.000000000000000000e+00,1.100000000000000039e-04,3.299999999999999982e-04,6.000000000000000000e+00,2.300000000000000000e+01
6.401900000000000000e+04,6.999999999999999387e-05,-5.999999999999999474e-05,-5.000000000000000240e-05,2.000000000000000164e-05,2.600000000000000314e-04,0.000000000000000000e+00,1.100000000000000039e-04,3.299999999999999982e-04,6.000000000000000000e+00,2.300000000000000000e+01
6.402000000000000000e+04,6.999999999999999387e-05,-5.999999999999999474e-05,-5.000000000000000240e-05,2.000000000000000164e-05,2.600000000000000314e-04,0.000000000000000000e+00,1.100000000000000039e-04,3.299999999999999982e-04,6.000000000000000000e+00,2.300000000000000000e+01
6.402100000000000000e+04,6.999999999999999387e-05,-5.999999999999999474e-05,-5.000000000000000240e-05,2.000000000000000164e-05,2.600000000000000314e-04,0.000000000000000000e+00,1.100000000000000039e-04,3.299999999999999982e-04,6.000000000000000000e+00,2.300000000000000000e+01
6.402200000000000000e+04,2.999999999999999737e-05,-2.000000000000000164e-05,0.000000000000000000e+00,-2.999999999999999737e-05,-2.100000000000000087e-04,-1.899999999999999834e-04,-5.999999999999999474e-05,-2.000000000000000096e-04,6.000000000000000000e+00,2.300000000000000000e+01
6.402300000000000000e+04,-1.499999999999999869e-04,-5.000000000000000240e-05,-5.000000000000000240e-05,-5.999999999999999474e-05,-3.099999999999999999e-04,-6.400000000000000524e-04,-2.999999999999999737e-04,-3.799999999999999667e-04,6.000000000000000000e+00,2.300000000000000000e+01
6.402400000000000000e+04,-1.499999999999999869e-04,-5.000000000000000240e-05,-5.000000000000000240e-05,-5.999999999999999474e-05,-3.099999999999999999e-04,-6.400000000000000524e-04,-2.999999999999999737e-04,-3.799999999999999667e-04,6.000000000000000000e+00,2.300000000000000000e+01
6.402500000000000000e+04,-2.000000000000000164e-05,-1.100000000000000039e-04,-1.199999999999999895e-04,-1.800000000000000113e-04,-5.000000000000000240e-05,-3.799999999999999667e-04,-1.600000000000000131e-04,5.999999999999999474e-05,6.000000000000000000e+00,2.300000000000000000e+01
6.402600000000000000e+04,-2.000000000000000164e-05,-1.100000000000000039e-04,-1.199999999999999895e-04,-1.800000000000000113e-04,-5.000000000000000240e-05,-3.799999999999999667e-04,-1.600000000000000131e-04,5.999999999999999474e-05,6.000000000000000000e+00,2.300000000000000000e+01
6.402700000000000000e+04,-2.000000000000000164e-05,-1.100000000000000039e-04,-1.199999999999999895e-04,-1.800000000000000113e-04,-5.000000000000000240e-05,-3.799999999999999667e-04,-1.600000000000000131e-04,5.999999999999999474e-05,6.000000000000000000e+00,2.300000000000000000e+01
6.402800000000000000e+04,-2.000000000000000164e-05,-1.100000000000000039e-04,-1.199999999999999895e-04,-1.800000000000000113e-04,-5.000000000000000240e-05,-3.799999999999999667e-04,-1.600000000000000131e-04,5.999999999999999474e-05,6.000000000000000000e+00,2.300000000000000000e+01
6.402900000000000000e+04,-2.000000000000000164e-05,-1.100000000000000039e-04,-1.199999999999999895e-04,-1.800000000000000113e-04,-5.000000000000000240e-05,-3.799999999999999667e-04,-1.600000000000000131e-04,5.999999999999999474e-05,6.000000000000000000e+00,2.300000000000000000e+01
6.403000000000000000e+04,-2.000000000000000164e-05,-1.100000000000000039e-04,-1.199999999999999895e-04,-1.800000000000000113e-04,-5.000000000000000240e-05,-3.799999999999999667e-04,-1.600000000000000131e-04,5.999999999999999474e-05,6.000000000000000000e+00,2.300000000000000000e+01
6.403100000000000000e+04,-2.000000000000000164e-05,-1.100000000000000039e-04,-1.199999999999999895e-04,-1.800000000000000113e-04,-5.000000000000000240e-05,-3.799999999999999667e-04,-1.600000000000000131e-04,5.999999999999999474e-05,6.000000000000000000e+00,2.300000000000000000e+01
6.403200000000000000e+04,-2.000000000000000164e-05,-1.100000000000000039e-04,-1.199999999999999895e-04,-1.800000000000000113e-04,-5.000000000000000240e-05,-3.799999999999999667e-04,-1.600000000000000131e-04,5.999999999999999474e-05,6.000000000000000000e+00,2.300000000000000000e+01
6.403300000000000000e+04,-2.000000000000000164e-05,-1.100000000000000039e-04,-1.199999999999999895e-04,-1.800000000000000113e-04,-5.000000000000000240e-05,-3.799999999999999667e-04,-1.600000000000000131e-04,5.999999999999999474e-05,6.000000000000000000e+00,2.300000000000000000e+01
6.403400000000000000e+04,-2.000000000000000164e-05,-1.100000000000000039e-04,-1.199999999999999895e-04,-1.800000000000000113e-04,-5.000000000000000240e-05,-3.799999999999999667e-04,-1.600000000000000131e-04,5.999999999999999474e-05,6.000000000000000000e+00,2.300000000000000000e+01
6.403500000000000000e+04,-2.000000000000000164e-05,-1.100000000000000039e-04,-1.199999999999999895e-04,-1.800000000000000113e-04,-5.000000000000000240e-05,-3.799999999999999667e-04,-1.600000000000000131e-04,5.999999999999999474e-05,6.000000000000000000e+00,2.300000000000000000e+01
6.403600000000000000e+04,-2.000000000000000164e-05,-1.100000000000000039e-04,-1.199999999999999895e-04,-1.800000000000000113e-04,-5.000000000000000240e-05,-3.799999999999999667e-04,-1.600000000000000131e-04,5.999999999999999474e-05,6.000000000000000000e+00,2.300000000000000000e+01
6.403800000000000000e+04,-2.000000000000000164e-05,-1.100000000000000039e-04,-1.199999999999999895e-04,-1.800000000000000113e-04,-5.000000000000000240e-05,-3.799999999999999667e-04,-1.600000000000000131e-04,5.999999999999999474e-05,6.000000000000000000e+00,2.300000000000000000e+01
6.403900000000000000e+04,-2.000000000000000164e-05,-1.100000000000000039e-04,-1.199999999999999895e-04,-1.800000000000000113e-04,-5.000000000000000240e-05,-3.799999999999999667e-04,-1.600000000000000131e-04,5.999999999999999474e-05,6.000000000000000000e+00,2.300000000000000000e+01
6.404000000000000000e+04,-2.000000000000000164e-05,-1.100000000000000039e-04,-1.199999999999999895e-04,-1.800000000000000113e-04,-5.000000000000000240e-05,-3.799999999999999667e-04,-1.600000000000000131e-04,5.999999999999999474e-05,6.000000000000000000e+00,2.300000000000000000e+01
6.404100000000000000e+04,-2.000000000000000164e-05,-1.100000000000000039e-04,-1.199999999999999895e-04,-1.800000000000000113e-04,-5.000000000000000240e-05,-3.799999999999999667e-04,-1.600000000000000131e-04,5.999999999999999474e-05,6.000000000000000000e+00,2.300000000000000000e+01
6.404200000000000000e+04,-2.000000000000000164e-05,-1.100000000000000039e-04,-1.199999999999999895e-04,-1.800000000000000113e-04,-5.000000000000000240e-05,-3.799999999999999667e-04,-1.600000000000000131e-04,5.999999999999999474e-05,6.000000000000000000e+00,2.300000000000000000e+01
6.404300000000000000e+04,-2.000000000000000164e-05,-1.100000000000000039e-04,-1.199999999999999895e-04,-1.800000000000000113e-04,-5.000000000000000240e-05,-3.799999999999999667e-04,-1.600000000000000131e-04,5.999999999999999474e-05,6.000000000000000000e+00,2.300000000000000000e+01
6.404400000000000000e+04,-2.000000000000000164e-05,-1.100000000000000039e-04,-1.199999999999999895e-04,-1.800000000000000113e-04,-5.000000000000000240e-05,-3.799999999999999667e-04,-1.600000000000000131e-04,5.999999999999999474e-05,6.000000000000000000e+00,2.300000000000000000e+01
6.404500000000000000e+04,-2.000000000000000164e-05,-1.100000000000000039e-04,-1.199999999999999895e-04,-1.800000000000000113e-04,-5.000000000000000240e-05,-3.799999999999999667e-04,-1.600000000000000131e-04,5.999999999999999474e-05,6.000000000000000000e+00,2.300000000000000000e+01
6.404600000000000000e+04,-2.000000000000000164e-05,-1.100000000000000039e-04,-1.199999999999999895e-04,-1.800000000000000113e-04,-5.000000000000000240e-05,-3.799999999999999667e-04,-1.600000000000000131e-04,5.999999999999999474e-05,6.000000000000000000e+00,2.300000000000000000e+01
6.404700000000000000e+04,-2.000000000000000164e-05,-1.100000000000000039e-04,-1.199999999999999895e-04,-1.800000000000000113e-04,-5.000000000000000240e-05,-3.799999999999999667e-04,-1.600000000000000131e-04,5.999999999999999474e-05,6.000000000000000000e+00,2.300000000000000000e+01
6.404800000000000000e+04,-2.000000000000000164e-05,-1.100000000000000039e-04,-1.199999999999999895e-04,-1.800000000000000113e-04,-5.000000000000000240e-05,-3.799999999999999667e-04,-1.600000000000000131e-04,5.999999999999999474e-05,6.000000000000000000e+00,2.300000000000000000e+01
6.404900000000000000e+04,-2.000000000000000164e-05,-1.100000000000000039e-04,-1.199999999999999895e-04,-1.800000000000000113e-04,-5.000000000000000240e-05,-3.799999999999999667e-04,-1.600000000000000131e-04,5.999999999999999474e-05,6.000000000000000000e+00,2.300000000000000000e+01
6.405000000000000000e+04,-2.000000000000000164e-05,-1.100000000000000039e-04,-1.199999999999999895e-04,-1.800000000000000113e-04,-5.000000000000000240e-05,-3.799999999999999667e-04,-1.600000000000000131e-04,5.999999999999999474e-05,6.000000000000000000e+00,2.300000000000000000e+01
6.405100000000000000e+04,-2.000000000000000164e-05,-1.100000000000000039e-04,-1.199999999999999895e-04,-1.800000000000000113e-04,-5.000000000000000240e-05,-3.799999999999999667e-04,-1.600000000000000131e-04,5.999999999999999474e-05,6.000000000000000000e+00,2.300000000000000000e+01
6.405200000000000000e+04,-2.000000000000000164e-05,-1.100000000000000039e-04,-1.199999999999999895e-04,-1.800000000000000113e-04,-5.000000000000000240e-05,-3.799999999999999667e-04,-1.600000000000000131e-04,5.999999999999999474e-05,6.000000000000000000e+00,2.300000000000000000e+01
6.405300000000000000e+04,-2.000000000000000164e-05,-1.100000000000000039e-04,-1.199999999999999895e-04,-1.800000000000000113e-04,-5.000000000000000240e-05,-3.799999999999999667e-04,-1.600000000000000131e-04,5.999999999999999474e-05,6.000000000000000000e+00,2.300000000000000000e+01
6.405400000000000000e+04,-2.000000000000000164e-05,-1.100000000000000039e-04,-1.199999999999999895e-04,-1.800000000000000113e-04,-5.000000000000000240e-05,-3.799999999999999667e-04,-1.600000000000000131e-04,5.999999999999999474e-05,6.000000000000000000e+00,2.300000000000000000e+01
6.405500000000000000e+04,-2.000000000000000164e-05,-1.100000000000000039e-04,-1.199999999999999895e-04,-1.800000000000000113e-04,-5.000000000000000240e-05,-3.799999999999999667e-04,-1.600000000000000131e-04,5.999999999999999474e-05,6.000000000000000000e+00,2.300000000000000000e+01
6.405600000000000000e+04,-2.000000000000000164e-05,-1.100000000000000039e-04,-1.199999999999999895e-04,-1.800000000000000113e-04,-5.000000000000000240e-05,-3.799999999999999667e-04,-1.600000000000000131e-04,5.999999999999999474e-05,6.000000000000000000e+00,2.300000000000000000e+01
6.405700000000000000e+04,-2.000000000000000164e-05,-1.100000000000000039e-04,-1.199999999999999895e-04,-1.800000000000000113e-04,-5.000000000000000240e-05,-3.799999999999999667e-04,-1.600000000000000131e-04,5.999999999999999474e-05,6.000000000000000000e+00,2.300000000000000000e+01
6.405800000000000000e+04,-2.000000000000000164e-05,-1.100000000000000039e-04,-1.199999999999999895e-04,-1.800000000000000113e-04,-5.000000000000000240e-05,-3.799999999999999667e-04,-1.600000000000000131e-04,5.999999999999999474e-05,6.000000000000000000e+00,2.300000000000000000e+01
6.405900000000000000e+04,-2.000000000000000164e-05,-1.100000000000000039e-04,-1.199999999999999895e-04,-1.800000000000000113e-04,-5.000000000000000240e-05,-3.799999999999999667e-04,-1.600000000000000131e-04,5.999999999999999474e-05,6.000000000000000000e+00,2.300000000000000000e+01
6.406000000000000000e+04,-2.000000000000000164e-05,-1.100000000000000039e-04,-1.199999999999999895e-04,-1.800000000000000113e-04,-5.000000000000000240e-05,-3.799999999999999667e-04,-1.600000000000000131e-04,5.999999999999999474e-05,6.000000000000000000e+00,2.300000000000000000e+01
6.406100000000000000e+04,-2.999999999999999737e-04,-1.199999999999999895e-04,-6.999999999999999387e-05,-1.000000000000000082e-05,1.800000000000000113e-04,1.240000000000000000e-03,-8.000000000000000654e-05,-1.000000000000000021e-03,6.000000000000000000e+00,2.300000000000000000e+01
6.406200000000000000e+04,-2.999999999999999737e-04,-1.199999999999999895e-04,-6.999999999999999387e-05,-1.000000000000000082e-05,1.800000000000000113e-04,1.240000000000000000e-03,-8.000000000000000654e-05,-1.000000000000000021e-03,6.000000000000000000e+00,2.300000000000000000e+01
6.406300000000000000e+04,-2.999999999999999737e-04,-1.199999999999999895e-04,-6.999999999999999387e-05,-1.000000000000000082e-05,1.800000000000000113e-04,1.240000000000000000e-03,-8.000000000000000654e-05,-1.000000000000000021e-03,6.000000000000000000e+00,2.300000000000000000e+01
6.406400000000000000e+04,1.399999999999999877e-04,4.000000000000000327e-05,-2.000000000000000164e-05,-5.000000000000000240e-05,-1.699999999999999851e-04,6.999999999999999387e-05,2.999999999999999737e-05,4.099999999999999912e-04,6.000000000000000000e+00,2.300000000000000000e+01
6.406500000000000000e+04,1.399999999999999877e-04,4.000000000000000327e-05,-2.000000000000000164e-05,-5.000000000000000240e-05,-1.699999999999999851e-04,6.999999999999999387e-05,2.999999999999999737e-05,4.099999999999999912e-04,6.000000000000000000e+00,2.300000000000000000e+01
6.406600000000000000e+04,1.399999999999999877e-04,4.000000000000000327e-05,-2.000000000000000164e-05,-5.000000000000000240e-05,-1.699999999999999851e-04,6.999999999999999387e-05,2.999999999999999737e-05,4.099999999999999912e-04,6.000000000000000000e+00,2.300000000000000000e+01
6.406700000000000000e+04,1.399999999999999877e-04,4.000000000000000327e-05,-2.000000000000000164e-05,-5.000000000000000240e-05,-1.699999999999999851e-04,6.999999999999999387e-05,2.999999999999999737e-05,4.099999999999999912e-04,6.000000000000000000e+00,2.300000000000000000e+01
6.406800000000000000e+04,1.399999999999999877e-04,4.000000000000000327e-05,-2.000000000000000164e-05,-5.000000000000000240e-05,-1.699999999999999851e-04,6.999999999999999387e-05,2.999999999999999737e-05,4.099999999999999912e-04,6.000000000000000000e+00,2.300000000000000000e+01
6.406900000000000000e+04,1.399999999999999877e-04,4.000000000000000327e-05,-2.000000000000000164e-05,-5.000000000000000240e-05,-1.699999999999999851e-04,6.999999999999999387e-05,2.999999999999999737e-05,4.099999999999999912e-04,6.000000000000000000e+00,2.300000000000000000e+01
6.407000000000000000e+04,1.399999999999999877e-04,4.000000000000000327e-05,-2.000000000000000164e-05,-5.000000000000000240e-05,-1.699999999999999851e-04,6.999999999999999387e-05,2.999999999999999737e-05,4.099999999999999912e-04,6.000000000000000000e+00,2.300000000000000000e+01
6.407100000000000000e+04,1.399999999999999877e-04,4.000000000000000327e-05,-2.000000000000000164e-05,-5.000000000000000240e-05,-1.699999999999999851e-04,6.999999999999999387e-05,2.999999999999999737e-05,4.099999999999999912e-04,6.000000000000000000e+00,2.300000000000000000e+01
6.407200000000000000e+04,1.399999999999999877e-04,4.000000000000000327e-05,-2.000000000000000164e-05,-5.000000000000000240e-05,-1.699999999999999851e-04,6.999999999999999387e-05,2.999999999999999737e-05,4.099999999999999912e-04,6.000000000000000000e+00,2.300000000000000000e+01
6.407300000000000000e+04,1.399999999999999877e-04,4.000000000000000327e-05,-2.000000000000000164e-05,-5.000000000000000240e-05,-1.699999999999999851e-04,6.999999999999999387e-05,2.999999999999999737e-05,4.099999999999999912e-04,6.000000000000000000e+00,2.300000000000000000e+01
6.407400000000000000e+04,1.399999999999999877e-04,4.000000000000000327e-05,-2.000000000000000164e-05,-5.000000000000000240e-05,-1.699999999999999851e-04,6.999999999999999387e-05,2.999999999999999737e-05,4.099999999999999912e-04,6.000000000000000000e+00,2.300000000000000000e+01
6.407500000000000000e+04,1.399999999999999877e-04,4.000000000000000327e-05,-2.000000000000000164e-05,-5.000000000000000240e-05,-1.699999999999999851e-04,6.999999999999999387e-05,2.999999999999999737e-05,4.099999999999999912e-04,6.000000000000000000e+00,2.300000000000000000e+01
6.407600000000000000e+04,1.399999999999999877e-04,4.000000000000000327e-05,-2.000000000000000164e-05,-5.000000000000000240e-05,-1.699999999999999851e-04,6.999999999999999387e-05,2.999999999999999737e-05,4.099999999999999912e-04,6.000000000000000000e+00,2.300000000000000000e+01
6.407700000000000000e+04,1.399999999999999877e-04,4.000000000000000327e-05,-2.000000000000000164e-05,-5.000000000000000240e-05,-1.699999999999999851e-04,6.999999999999999387e-05,2.999999999999999737e-05,4.099999999999999912e-04,6.000000000000000000e+00,2.300000000000000000e+01
6.407800000000000000e+04,1.399999999999999877e-04,4.000000000000000327e-05,-2.000000000000000164e-05,-5.000000000000000240e-05,-1.699999999999999851e-04,6.999999999999999387e-05,2.999999999999999737e-05,4.099999999999999912e-04,6.000000000000000000e+00,2.300000000000000000e+01
6.407900000000000000e+04,1.399999999999999877e-04,4.000000000000000327e-05,-2.000000000000000164e-05,-5.000000000000000240e-05,-1.699999999999999851e-04,6.999999999999999387e-05,2.999999999999999737e-05,4.099999999999999912e-04,6.000000000000000000e+00,2.300000000000000000e+01
6.408000000000000000e+04,1.399999999999999877e-04,4.000000000000000327e-05,-2.000000000000000164e-05,-5.000000000000000240e-05,-1.699999999999999851e-04,6.999999999999999387e-05,2.999999999999999737e-05,4.099999999999999912e-04,6.000000000000000000e+00,2.300000000000000000e+01
6.408100000000000000e+04,1.399999999999999877e-04,4.000000000000000327e-05,-2.000000000000000164e-05,-5.000000000000000240e-05,-1.699999999999999851e-04,6.999999999999999387e-05,2.999999999999999737e-05,4.099999999999999912e-04,6.000000000000000000e+00,2.300000000000000000e+01
6.408200000000000000e+04,1.399999999999999877e-04,4.000000000000000327e-05,-2.000000000000000164e-05,-5.000000000000000240e-05,-1.699999999999999851e-04,6.999999999999999387e-05,2.999999999999999737e-05,4.099999999999999912e-04,6.000000000000000000e+00,2.300000000000000000e+01
6.408300000000000000e+04,1.399999999999999877e-04,4.000000000000000327e-05,-2.000000000000000164e-05,-5.000000000000000240e-05,-1.699999999999999851e-04,6.999999999999999387e-05,2.999999999999999737e-05,4.099999999999999912e-04,6.000000000000000000e+00,2.300000000000000000e+01
6.408400000000000000e+04,1.399999999999999877e-04,2.999999999999999737e-05,1.000000000000000082e-05,1.100000000000000039e-04,3.699999999999999947e-04,4.200000000000000174e-04,-5.000000000000000240e-05,3.899999999999999929e-04,6.000000000000000000e+00,2.300000000000000000e+01
6.408500000000000000e+04,1.000000000000000082e-05,1.000000000000000082e-05,5.000000000000000240e-05,1.300000000000000157e-04,2.700000000000000035e-04,3.499999999999999964e-04,1.899999999999999834e-04,2.200000000000000078e-04,6.000000000000000000e+00,2.300000000000000000e+01
6.408600000000000000e+04,1.000000000000000082e-05,1.000000000000000082e-05,5.000000000000000240e-05,1.300000000000000157e-04,2.700000000000000035e-04,3.499999999999999964e-04,1.899999999999999834e-04,2.200000000000000078e-04,6.000000000000000000e+00,2.300000000000000000e+01
6.408800000000000000e+04,1.000000000000000082e-05,1.000000000000000082e-05,5.000000000000000240e-05,1.300000000000000157e-04,2.700000000000000035e-04,3.499999999999999964e-04,1.899999999999999834e-04,2.200000000000000078e-04,6.000000000000000000e+00,2.300000000000000000e+01
6.408900000000000000e+04,1.000000000000000082e-05,1.000000000000000082e-05,5.000000000000000240e-05,1.300000000000000157e-04,2.700000000000000035e-04,3.499999999999999964e-04,1.899999999999999834e-04,2.200000000000000078e-04,6.000000000000000000e+00,2.300000000000000000e+01
6.409000000000000000e+04,1.000000000000000082e-05,1.000000000000000082e-05,5.000000000000000240e-05,1.300000000000000157e-04,2.700000000000000035e-04,3.499999999999999964e-04,1.899999999999999834e-04,2.200000000000000078e-04,6.000000000000000000e+00,2.300000000000000000e+01
6.409100000000000000e+04,1.000000000000000082e-05,1.000000000000000082e-05,5.000000000000000240e-05,1.300000000000000157e-04,2.700000000000000035e-04,3.499999999999999964e-04,1.899999999999999834e-04,2.200000000000000078e-04,6.000000000000000000e+00,2.300000000000000000e+01
6.409200000000000000e+04,1.000000000000000082e-05,1.000000000000000082e-05,5.000000000000000240e-05,1.300000000000000157e-04,2.700000000000000035e-04,3.499999999999999964e-04,1.899999999999999834e-04,2.200000000000000078e-04,6.000000000000000000e+00,2.300000000000000000e+01
6.409300000000000000e+04,1.000000000000000082e-05,1.000000000000000082e-05,5.000000000000000240e-05,1.300000000000000157e-04,2.700000000000000035e-04,3.499999999999999964e-04,1.899999999999999834e-04,2.200000000000000078e-04,6.000000000000000000e+00,2.300000000000000000e+01
6.409400000000000000e+04,1.000000000000000082e-05,1.000000000000000082e-05,5.000000000000000240e-05,1.300000000000000157e-04,2.700000000000000035e-04,3.499999999999999964e-04,1.899999999999999834e-04,2.200000000000000078e-04,6.000000000000000000e+00,2.300000000000000000e+01
6.409500000000000000e+04,1.000000000000000082e-05,1.000000000000000082e-05,5.000000000000000240e-05,1.300000000000000157e-04,2.700000000000000035e-04,3.499999999999999964e-04,1.899999999999999834e-04,2.200000000000000078e-04,6.000000000000000000e+00,2.300000000000000000e+01
6.409600000000000000e+04,1.000000000000000082e-05,1.000000000000000082e-05,5.000000000000000240e-05,1.300000000000000157e-04,2.700000000000000035e-04,3.499999999999999964e-04,1.899999999999999834e-04,2.200000000000000078e-04,6.000000000000000000e+00,2.300000000000000000e+01
6.409700000000000000e+04,1.000000000000000082e-05,1.000000000000000082e-05,5.000000000000000240e-05,1.300000000000000157e-04,2.700000000000000035e-04,3.499999999999999964e-04,1.899999999999999834e-04,2.200000000000000078e-04,6.000000000000000000e+00,2.300000000000000000e+01
6.409800000000000000e+04,1.000000000000000082e-05,1.000000000000000082e-05,5.000000000000000240e-05,1.300000000000000157e-04,2.700000000000000035e-04,3.499999999999999964e-04,1.899999999999999834e-04,2.200000000000000078e-04,6.000000000000000000e+00,2.300000000000000000e+01
6.409900000000000000e+04,1.000000000000000082e-05,1.000000000000000082e-05,5.000000000000000240e-05,1.300000000000000157e-04,2.700000000000000035e-04,3.499999999999999964e-04,1.899999999999999834e-04,2.200000000000000078e-04,6.000000000000000000e+00,2.300000000000000000e+01
6.410000000000000000e+04,1.000000000000000082e-05,1.000000000000000082e-05,5.000000000000000240e-05,1.300000000000000157e-04,2.700000000000000035e-04,3.499999999999999964e-04,1.899999999999999834e-04,2.200000000000000078e-04,6.000000000000000000e+00,2.300000000000000000e+01
6.410100000000000000e+04,1.000000000000000082e-05,1.000000000000000082e-05,5.000000000000000240e-05,1.300000000000000157e-04,2.700000000000000035e-04,3.499999999999999964e-04,1.899999999999999834e-04,2.200000000000000078e-04,6.000000000000000000e+00,2.300000000000000000e+01
6.410200000000000000e+04,1.000000000000000082e-05,1.000000000000000082e-05,5.000000000000000240e-05,1.300000000000000157e-04,2.700000000000000035e-04,3.499999999999999964e-04,1.899999999999999834e-04,2.200000000000000078e-04,6.000000000000000000e+00,2.300000000000000000e+01
6.410300000000000000e+04,1.000000000000000082e-05,1.000000000000000082e-05,5.000000000000000240e-05,1.300000000000000157e-04,2.700000000000000035e-04,3.499999999999999964e-04,1.899999999999999834e-04,2.200000000000000078e-04,6.000000000000000000e+00,2.300000000000000000e+01
6.410400000000000000e+04,1.000000000000000082e-05,1.000000000000000082e-05,5.000000000000000240e-05,1.300000000000000157e-04,2.700000000000000035e-04,3.499999999999999964e-04,1.899999999999999834e-04,2.200000000000000078e-04,6.000000000000000000e+00,2.300000000000000000e+01
6.410500000000000000e+04,2.000000000000000164e-05,-1.100000000000000039e-04,-9.000000000000000567e-05,-6.999999999999999387e-05,-4.000000000000000327e-05,-2.399999999999999790e-04,5.000000000000000240e-05,1.100000000000000039e-04,6.000000000000000000e+00,2.300000000000000000e+01
6.410600000000000000e+04,1.000000000000000082e-05,-1.000000000000000082e-05,-1.000000000000000082e-05,6.999999999999999387e-05,2.500000000000000052e-04,2.900000000000000017e-04,1.000000000000000048e-04,5.999999999999999474e-05,6.000000000000000000e+00,2.300000000000000000e+01
6.410700000000000000e+04,-1.000000000000000048e-04,2.000000000000000164e-05,-2.000000000000000164e-05,1.000000000000000082e-05,1.499999999999999869e-04,4.599999999999999597e-04,2.200000000000000078e-04,-4.000000000000000327e-05,6.000000000000000000e+00,2.300000000000000000e+01
6.410800000000000000e+04,-1.000000000000000048e-04,2.000000000000000164e-05,-2.000000000000000164e-05,1.000000000000000082e-05,1.499999999999999869e-04,4.599999999999999597e-04,2.200000000000000078e-04,-4.000000000000000327e-05,6.000000000000000000e+00,2.300000000000000000e+01
6.410900000000000000e+04,-1.000000000000000048e-04,2.000000000000000164e-05,-2.000000000000000164e-05,1.000000000000000082e-05,1.499999999999999869e-04,4.599999999999999597e-04,2.200000000000000078e-04,-4.000000000000000327e-05,6.000000000000000000e+00,2.300000000000000000e+01
6.411000000000000000e+04,-1.000000000000000048e-04,2.000000000000000164e-05,-2.000000000000000164e-05,1.000000000000000082e-05,1.499999999999999869e-04,4.599999999999999597e-04,2.200000000000000078e-04,-4.000000000000000327e-05,6.000000000000000000e+00,2.300000000000000000e+01
6.411100000000000000e+04,-1.000000000000000048e-04,2.000000000000000164e-05,-2.000000000000000164e-05,1.000000000000000082e-05,1.499999999999999869e-04,4.599999999999999597e-04,2.200000000000000078e-04,-4.000000000000000327e-05,6.000000000000000000e+00,2.300000000000000000e+01
6.411200000000000000e+04,-1.000000000000000048e-04,2.000000000000000164e-05,-2.000000000000000164e-05,1.000000000000000082e-05,1.499999999999999869e-04,4.599999999999999597e-04,2.200000000000000078e-04,-4.000000000000000327e-05,6.000000000000000000e+00,2.300000000000000000e+01
6.411300000000000000e+04,-1.000000000000000048e-04,2.000000000000000164e-05,-2.000000000000000164e-05,1.000000000000000082e-05,1.499999999999999869e-04,4.599999999999999597e-04,2.200000000000000078e-04,-4.000000000000000327e-05,6.000000000000000000e+00,2.300000000000000000e+01
6.411400000000000000e+04,-1.000000000000000048e-04,2.000000000000000164e-05,-2.000000000000000164e-05,1.000000000000000082e-05,1.499999999999999869e-04,4.599999999999999597e-04,2.200000000000000078e-04,-4.000000000000000327e-05,6.000000000000000000e+00,2.300000000000000000e+01
6.411500000000000000e+04,-1.000000000000000048e-04,2.000000000000000164e-05,-2.000000000000000164e-05,1.000000000000000082e-05,1.499999999999999869e-04,4.599999999999999597e-04,2.200000000000000078e-04,-4.000000000000000327e-05,6.000000000000000000e+00,2.300000000000000000e+01
6.411600000000000000e+04,-1.000000000000000048e-04,2.000000000000000164e-05,-2.000000000000000164e-05,1.000000000000000082e-05,1.499999999999999869e-04,4.599999999999999597e-04,2.200000000000000078e-04,-4.000000000000000327e-05,6.000000000000000000e+00,2.300000000000000000e+01
6.411700000000000000e+04,-1.000000000000000048e-04,2.000000000000000164e-05,-2.000000000000000164e-05,1.000000000000000082e-05,1.499999999999999869e-04,4.599999999999999597e-04,2.200000000000000078e-04,-4.000000000000000327e-05,6.000000000000000000e+00,2.300000000000000000e+01
6.411800000000000000e+04,-1.000000000000000048e-04,2.000000000000000164e-05,-2.000000000000000164e-05,1.000000000000000082e-05,1.499999999999999869e-04,4.599999999999999597e-04,2.200000000000000078e-04,-4.000000000000000327e-05,6.000000000000000000e+00,2.300000000000000000e+01
6.411900000000000000e+04,-1.000000000000000048e-04,2.000000000000000164e-05,-2.000000000000000164e-05,1.000000000000000082e-05,1.499999999999999869e-04,4.599999999999999597e-04,2.200000000000000078e-04,-4.000000000000000327e-05,6.000000000000000000e+00,2.300000000000000000e+01
6.412000000000000000e+04,-1.000000000000000048e-04,2.000000000000000164e-05,-2.000000000000000164e-05,1.000000000000000082e-05,1.499999999999999869e-04,4.599999999999999597e-04,2.200000000000000078e-04,-4.000000000000000327e-05,6.000000000000000000e+00,2.300000000000000000e+01
6.412100000000000000e+04,-1.000000000000000048e-04,2.000000000000000164e-05,-2.000000000000000164e-05,1.000000000000000082e-05,1.499999999999999869e-04,4.599999999999999597e-04,2.200000000000000078e-04,-4.000000000000000327e-05,6.000000000000000000e+00,2.300000000000000000e+01
6.412200000000000000e+04,-1.000000000000000048e-04,2.000000000000000164e-05,-2.000000000000000164e-05,1.000000000000000082e-05,1.499999999999999869e-04,4.599999999999999597e-04,2.200000000000000078e-04,-4.000000000000000327e-05,6.000000000000000000e+00,2.300000000000000000e+01
6.412300000000000000e+04,-1.000000000000000048e-04,2.000000000000000164e-05,-2.000000000000000164e-05,1.000000000000000082e-05,1.499999999999999869e-04,4.599999999999999597e-04,2.200000000000000078e-04,-4.000000000000000327e-05,6.000000000000000000e+00,2.300000000000000000e+01
6.412400000000000000e+04,-1.000000000000000048e-04,2.000000000000000164e-05,-2.000000000000000164e-05,1.000000000000000082e-05,1.499999999999999869e-04,4.599999999999999597e-04,2.200000000000000078e-04,-4.000000000000000327e-05,6.000000000000000000e+00,2.300000000000000000e+01
6.412500000000000000e+04,-1.000000000000000048e-04,2.000000000000000164e-05,-2.000000000000000164e-05,1.000000000000000082e-05,1.499999999999999869e-04,4.599999999999999597e-04,2.200000000000000078e-04,-4.000000000000000327e-05,6.000000000000000000e+00,2.300000000000000000e+01
6.412600000000000000e+04,-1.000000000000000048e-04,2.000000000000000164e-05,-2.000000000000000164e-05,1.000000000000000082e-05,1.499999999999999869e-04,4.599999999999999597e-04,2.200000000000000078e-04,-4.000000000000000327e-05,6.000000000000000000e+00,2.300000000000000000e+01
6.412700000000000000e+04,-1.000000000000000048e-04,2.000000000000000164e-05,-2.000000000000000164e-05,1.000000000000000082e-05,1.499999999999999869e-04,4.599999999999999597e-04,2.200000000000000078e-04,-4.000000000000000327e-05,6.000000000000000000e+00,2.300000000000000000e+01
6.412800000000000000e+04,-1.000000000000000048e-04,2.000000000000000164e-05,-2.000000000000000164e-05,1.000000000000000082e-05,1.499999999999999869e-04,4.599999999999999597e-04,2.200000000000000078e-04,-4.000000000000000327e-05,6.000000000000000000e+00,2.300000000000000000e+01
6.412900000000000000e+04,2.000000000000000096e-04,2.000000000000000164e-05,-2.999999999999999737e-05,-5.999999999999999474e-05,-2.200000000000000078e-04,-2.900000000000000017e-04,1.300000000000000157e-04,2.100000000000000087e-04,6.000000000000000000e+00,2.300000000000000000e+01
6.413000000000000000e+04,2.000000000000000096e-04,2.000000000000000164e-05,-2.999999999999999737e-05,-5.999999999999999474e-05,-2.200000000000000078e-04,-2.900000000000000017e-04,1.300000000000000157e-04,2.100000000000000087e-04,6.000000000000000000e+00,2.300000000000000000e+01
6.413100000000000000e+04,2.000000000000000096e-04,2.000000000000000164e-05,-2.999999999999999737e-05,-5.999999999999999474e-05,-2.200000000000000078e-04,-2.900000000000000017e-04,1.300000000000000157e-04,2.100000000000000087e-04,6.000000000000000000e+00,2.300000000000000000e+01
6.413200000000000000e+04,2.000000000000000096e-04,2.000000000000000164e-05,-2.999999999999999737e-05,-5.999999999999999474e-05,-2.200000000000000078e-04,-2.900000000000000017e-04,1.300000000000000157e-04,2.100000000000000087e-04,6.000000000000000000e+00,2.300000000000000000e+01
6.413300000000000000e+04,2.000000000000000096e-04,2.000000000000000164e-05,-2.999999999999999737e-05,-5.999999999999999474e-05,-2.200000000000000078e-04,-2.900000000000000017e-04,1.300000000000000157e-04,2.100000000000000087e-04,6.000000000000000000e+00,2.300000000000000000e+01
6.413500000000000000e+04,2.000000000000000096e-04,2.000000000000000164e-05,-2.999999999999999737e-05,-5.999999999999999474e-05,-2.200000000000000078e-04,-2.900000000000000017e-04,1.300000000000000157e-04,2.100000000000000087e-04,6.000000000000000000e+00,2.300000000000000000e+01
6.413600000000000000e+04,2.000000000000000096e-04,2.000000000000000164e-05,-2.999999999999999737e-05,-5.999999999999999474e-05,-2.200000000000000078e-04,-2.900000000000000017e-04,1.300000000000000157e-04,2.100000000000000087e-04,6.000000000000000000e+00,2.300000000000000000e+01
6.413800000000000000e+04,2.000000000000000096e-04,2.000000000000000164e-05,-2.999999999999999737e-05,-5.999999999999999474e-05,-2.200000000000000078e-04,-2.900000000000000017e-04,1.300000000000000157e-04,2.100000000000000087e-04,6.000000000000000000e+00,2.300000000000000000e+01
6.413900000000000000e+04,2.000000000000000096e-04,2.000000000000000164e-05,-2.999999999999999737e-05,-5.999999999999999474e-05,-2.200000000000000078e-04,-2.900000000000000017e-04,1.300000000000000157e-04,2.100000000000000087e-04,6.000000000000000000e+00,2.300000000000000000e+01
6.414000000000000000e+04,2.000000000000000096e-04,2.000000000000000164e-05,-2.999999999999999737e-05,-5.999999999999999474e-05,-2.200000000000000078e-04,-2.900000000000000017e-04,1.300000000000000157e-04,2.100000000000000087e-04,6.000000000000000000e+00,2.300000000000000000e+01
6.414100000000000000e+04,2.000000000000000096e-04,2.000000000000000164e-05,-2.999999999999999737e-05,-5.999999999999999474e-05,-2.200000000000000078e-04,-2.900000000000000017e-04,1.300000000000000157e-04,2.100000000000000087e-04,6.000000000000000000e+00,2.300000000000000000e+01
6.414200000000000000e+04,2.000000000000000096e-04,2.000000000000000164e-05,-2.999999999999999737e-05,-5.999999999999999474e-05,-2.200000000000000078e-04,-2.900000000000000017e-04,1.300000000000000157e-04,2.100000000000000087e-04,6.000000000000000000e+00,2.300000000000000000e+01
6.414300000000000000e+04,2.000000000000000096e-04,2.000000000000000164e-05,-2.999999999999999737e-05,-5.999999999999999474e-05,-2.200000000000000078e-04,-2.900000000000000017e-04,1.300000000000000157e-04,2.100000000000000087e-04,6.000000000000000000e+00,2.300000000000000000e+01
6.414400000000000000e+04,2.000000000000000096e-04,2.000000000000000164e-05,-2.999999999999999737e-05,-5.999999999999999474e-05,-2.200000000000000078e-04,-2.900000000000000017e-04,1.300000000000000157e-04,2.100000000000000087e-04,6.000000000000000000e+00,2.300000000000000000e+01
6.414500000000000000e+04,2.000000000000000096e-04,2.000000000000000164e-05,-2.999999999999999737e-05,-5.999999999999999474e-05,-2.200000000000000078e-04,-2.900000000000000017e-04,1.300000000000000157e-04,2.100000000000000087e-04,6.000000000000000000e+00,2.300000000000000000e+01
6.414600000000000000e+04,2.000000000000000096e-04,2.000000000000000164e-05,-2.999999999999999737e-05,-5.999999999999999474e-05,-2.200000000000000078e-04,-2.900000000000000017e-04,1.300000000000000157e-04,2.100000000000000087e-04,6.000000000000000000e+00,2.300000000000000000e+01
6.414700000000000000e+04,2.000000000000000096e-04,2.000000000000000164e-05,-2.999999999999999737e-05,-5.999999999999999474e-05,-2.200000000000000078e-04,-2.900000000000000017e-04,1.300000000000000157e-04,2.100000000000000087e-04,6.000000000000000000e+00,2.300000000000000000e+01
6.414800000000000000e+04,5.000000000000000240e-05,-2.000000000000000164e-05,-5.000000000000000240e-05,-9.000000000000000567e-05,-2.100000000000000087e-04,-9.100000000000000016e-04,0.000000000000000000e+00,3.399999999999999702e-04,6.000000000000000000e+00,2.300000000000000000e+01
6.414900000000000000e+04,5.000000000000000240e-05,-2.000000000000000164e-05,-5.000000000000000240e-05,-9.000000000000000567e-05,-2.100000000000000087e-04,-9.100000000000000016e-04,0.000000000000000000e+00,3.399999999999999702e-04,6.000000000000000000e+00,2.300000000000000000e+01
6.415000000000000000e+04,5.000000000000000240e-05,-2.000000000000000164e-05,-5.000000000000000240e-05,-9.000000000000000567e-05,-2.100000000000000087e-04,-9.100000000000000016e-04,0.000000000000000000e+00,3.399999999999999702e-04,6.000000000000000000e+00,2.300000000000000000e+01
6.415100000000000000e+04,5.000000000000000240e-05,-2.000000000000000164e-05,-5.000000000000000240e-05,-9.000000000000000567e-05,-2.100000000000000087e-04,-9.100000000000000016e-04,0.000000000000000000e+00,3.399999999999999702e-04,6.000000000000000000e+00,2.300000000000000000e+01
6.415200000000000000e+04,5.000000000000000240e-05,-2.000000000000000164e-05,-5.000000000000000240e-05,-9.000000000000000567e-05,-2.100000000000000087e-04,-9.100000000000000016e-04,0.000000000000000000e+00,3.399999999999999702e-04,6.000000000000000000e+00,2.300000000000000000e+01
6.415300000000000000e+04,5.000000000000000240e-05,-2.000000000000000164e-05,-5.000000000000000240e-05,-9.000000000000000567e-05,-2.100000000000000087e-04,-9.100000000000000016e-04,0.000000000000000000e+00,3.399999999999999702e-04,6.000000000000000000e+00,2.300000000000000000e+01
6.415400000000000000e+04,5.000000000000000240e-05,-2.000000000000000164e-05,-5.000000000000000240e-05,-9.000000000000000567e-05,-2.100000000000000087e-04,-9.100000000000000016e-04,0.000000000000000000e+00,3.399999999999999702e-04,6.000000000000000000e+00,2.300000000000000000e+01
6.415500000000000000e+04,5.000000000000000240e-05,-2.000000000000000164e-05,-5.000000000000000240e-05,-9.000000000000000567e-05,-2.100000000000000087e-04,-9.100000000000000016e-04,0.000000000000000000e+00,3.399999999999999702e-04,6.000000000000000000e+00,2.300000000000000000e+01
6.415600000000000000e+04,5.000000000000000240e-05,-2.000000000000000164e-05,-5.000000000000000240e-05,-9.000000000000000567e-05,-2.100000000000000087e-04,-9.100000000000000016e-04,0.000000000000000000e+00,3.399999999999999702e-04,6.000000000000000000e+00,2.300000000000000000e+01
6.415700000000000000e+04,5.000000000000000240e-05,-2.000000000000000164e-05,-5.000000000000000240e-05,-9.000000000000000567e-05,-2.100000000000000087e-04,-9.100000000000000016e-04,0.000000000000000000e+00,3.399999999999999702e-04,6.000000000000000000e+00,2.300000000000000000e+01
6.415800000000000000e+04,5.000000000000000240e-05,-2.000000000000000164e-05,-5.000000000000000240e-05,-9.000000000000000567e-05,-2.100000000000000087e-04,-9.100000000000000016e-04,0.000000000000000000e+00,3.399999999999999702e-04,6.000000000000000000e+00,2.300000000000000000e+01
6.415900000000000000e+04,5.000000000000000240e-05,-2.000000000000000164e-05,-5.000000000000000240e-05,-9.000000000000000567e-05,-2.100000000000000087e-04,-9.100000000000000016e-04,0.000000000000000000e+00,3.399999999999999702e-04,6.000000000000000000e+00,2.300000000000000000e+01
6.416000000000000000e+04,5.000000000000000240e-05,-2.000000000000000164e-05,-5.000000000000000240e-05,-9.000000000000000567e-05,-2.100000000000000087e-04,-9.100000000000000016e-04,0.000000000000000000e+00,3.399999999999999702e-04,6.000000000000000000e+00,2.300000000000000000e+01
6.416100000000000000e+04,5.000000000000000240e-05,-2.000000000000000164e-05,-5.000000000000000240e-05,-9.000000000000000567e-05,-2.100000000000000087e-04,-9.100000000000000016e-04,0.000000000000000000e+00,3.399999999999999702e-04,6.000000000000000000e+00,2.300000000000000000e+01
6.416200000000000000e+04,5.000000000000000240e-05,-2.000000000000000164e-05,-5.000000000000000240e-05,-9.000000000000000567e-05,-2.100000000000000087e-04,-9.100000000000000016e-04,0.000000000000000000e+00,3.399999999999999702e-04,6.000000000000000000e+00,2.300000000000000000e+01
6.416300000000000000e+04,5.000000000000000240e-05,-2.000000000000000164e-05,-5.000000000000000240e-05,-9.000000000000000567e-05,-2.100000000000000087e-04,-9.100000000000000016e-04,0.000000000000000000e+00,3.399999999999999702e-04,6.000000000000000000e+00,2.300000000000000000e+01
6.416400000000000000e+04,5.000000000000000240e-05,-2.000000000000000164e-05,-5.000000000000000240e-05,-9.000000000000000567e-05,-2.100000000000000087e-04,-9.100000000000000016e-04,0.000000000000000000e+00,3.399999999999999702e-04,6.000000000000000000e+00,2.300000000000000000e+01
6.416500000000000000e+04,5.000000000000000240e-05,-2.000000000000000164e-05,-5.000000000000000240e-05,-9.000000000000000567e-05,-2.100000000000000087e-04,-9.100000000000000016e-04,0.000000000000000000e+00,3.399999999999999702e-04,6.000000000000000000e+00,2.300000000000000000e+01
6.416600000000000000e+04,-4.000000000000000327e-05,0.000000000000000000e+00,1.000000000000000082e-05,-5.999999999999999474e-05,-1.699999999999999851e-04,-9.000000000000000567e-05,-1.000000000000000082e-05,9.000000000000000567e-05,6.000000000000000000e+00,2.300000000000000000e+01
6.416700000000000000e+04,-2.999999999999999737e-05,-9.000000000000000567e-05,-5.999999999999999474e-05,0.000000000000000000e+00,-2.000000000000000164e-05,-2.000000000000000164e-05,-5.000000000000000240e-05,-1.699999999999999851e-04,6.000000000000000000e+00,2.300000000000000000e+01
6.416800000000000000e+04,9.000000000000000567e-05,-2.999999999999999737e-05,-4.000000000000000327e-05,-6.999999999999999387e-05,1.000000000000000082e-05,-5.500000000000000331e-04,-2.299999999999999799e-04,-2.299999999999999799e-04,6.000000000000000000e+00,2.300000000000000000e+01
6.416900000000000000e+04,9.000000000000000567e-05,-2.999999999999999737e-05,-4.000000000000000327e-05,-6.999999999999999387e-05,1.000000000000000082e-05,-5.500000000000000331e-04,-2.299999999999999799e-04,-2.299999999999999799e-04,6.000000000000000000e+00,2.300000000000000000e+01
6.417000000000000000e+04,9.000000000000000567e-05,-2.999999999999999737e-05,-4.000000000000000327e-05,-6.999999999999999387e-05,1.000000000000000082e-05,-5.500000000000000331e-04,-2.299999999999999799e-04,-2.299999999999999799e-04,6.000000000000000000e+00,2.300000000000000000e+01
6.417100000000000000e+04,9.000000000000000567e-05,-2.999999999999999737e-05,-4.000000000000000327e-05,-6.999999999999999387e-05,1.000000000000000082e-05,-5.500000000000000331e-04,-2.299999999999999799e-04,-2.299999999999999799e-04,6.000000000000000000e+00,2.300000000000000000e+01
6.417200000000000000e+04,-5.999999999999999474e-05,4.000000000000000327e-05,4.000000000000000327e-05,2.000000000000000164e-05,-1.000000000000000048e-04,-6.900000000000000751e-04,1.600000000000000131e-04,1.600000000000000131e-04,6.000000000000000000e+00,2.300000000000000000e+01
6.417300000000000000e+04,-5.999999999999999474e-05,4.000000000000000327e-05,4.000000000000000327e-05,2.000000000000000164e-05,-1.000000000000000048e-04,-6.900000000000000751e-04,1.600000000000000131e-04,1.600000000000000131e-04,6.000000000000000000e+00,2.300000000000000000e+01
6.417400000000000000e+04,-5.999999999999999474e-05,4.000000000000000327e-05,4.000000000000000327e-05,2.000000000000000164e-05,-1.000000000000000048e-04,-6.900000000000000751e-04,1.600000000000000131e-04,1.600000000000000131e-04,6.000000000000000000e+00,2.300000000000000000e+01
6.417500000000000000e+04,-5.999999999999999474e-05,4.000000000000000327e-05,4.000000000000000327e-05,2.000000000000000164e-05,-1.000000000000000048e-04,-6.900000000000000751e-04,1.600000000000000131e-04,1.600000000000000131e-04,6.000000000000000000e+00,2.300000000000000000e+01
6.417600000000000000e+04,-5.999999999999999474e-05,4.000000000000000327e-05,4.000000000000000327e-05,2.000000000000000164e-05,-1.000000000000000048e-04,-6.900000000000000751e-04,1.600000000000000131e-04,1.600000000000000131e-04,6.000000000000000000e+00,2.300000000000000000e+01
6.417700000000000000e+04,-5.999999999999999474e-05,4.000000000000000327e-05,4.000000000000000327e-05,2.000000000000000164e-05,-1.000000000000000048e-04,-6.900000000000000751e-04,1.600000000000000131e-04,1.600000000000000131e-04,6.000000000000000000e+00,2.300000000000000000e+01
6.417800000000000000e+04,-5.999999999999999474e-05,4.000000000000000327e-05,4.000000000000000327e-05,2.000000000000000164e-05,-1.000000000000000048e-04,-6.900000000000000751e-04,1.600000000000000131e-04,1.600000000000000131e-04,6.000000000000000000e+00,2.300000000000000000e+01
6.417900000000000000e+04,-5.999999999999999474e-05,4.000000000000000327e-05,4.000000000000000327e-05,2.000000000000000164e-05,-1.000000000000000048e-04,-6.900000000000000751e-04,1.600000000000000131e-04,1.600000000000000131e-04,6.000000000000000000e+00,2.300000000000000000e+01
6.418000000000000000e+04,-5.999999999999999474e-05,4.000000000000000327e-05,4.000000000000000327e-05,2.000000000000000164e-05,-1.000000000000000048e-04,-6.900000000000000751e-04,1.600000000000000131e-04,1.600000000000000131e-04,6.000000000000000000e+00,2.300000000000000000e+01
6.418100000000000000e+04,-5.999999999999999474e-05,4.000000000000000327e-05,4.000000000000000327e-05,2.000000000000000164e-05,-1.000000000000000048e-04,-6.900000000000000751e-04,1.600000000000000131e-04,1.600000000000000131e-04,6.000000000000000000e+00,2.300000000000000000e+01
6.418200000000000000e+04,-5.999999999999999474e-05,4.000000000000000327e-05,4.000000000000000327e-05,2.000000000000000164e-05,-1.000000000000000048e-04,-6.900000000000000751e-04,1.600000000000000131e-04,1.600000000000000131e-04,6.000000000000000000e+00,2.300000000000000000e+01
6.418300000000000000e+04,-5.999999999999999474e-05,4.000000000000000327e-05,4.000000000000000327e-05,2.000000000000000164e-05,-1.000000000000000048e-04,-6.900000000000000751e-04,1.600000000000000131e-04,1.600000000000000131e-04,6.000000000000000000e+00,2.300000000000000000e+01
6.418400000000000000e+04,-5.999999999999999474e-05,4.000000000000000327e-05,4.000000000000000327e-05,2.000000000000000164e-05,-1.000000000000000048e-04,-6.900000000000000751e-04,1.600000000000000131e-04,1.600000000000000131e-04,6.000000000000000000e+00,2.300000000000000000e+01
6.418500000000000000e+04,-5.999999999999999474e-05,4.000000000000000327e-05,4.000000000000000327e-05,2.000000000000000164e-05,-1.000000000000000048e-04,-6.900000000000000751e-04,1.600000000000000131e-04,1.600000000000000131e-04,6.000000000000000000e+00,2.300000000000000000e+01
6.418600000000000000e+04,-5.999999999999999474e-05,4.000000000000000327e-05,4.000000000000000327e-05,2.000000000000000164e-05,-1.000000000000000048e-04,-6.900000000000000751e-04,1.600000000000000131e-04,1.600000000000000131e-04,6.000000000000000000e+00,2.300000000000000000e+01
6.418800000000000000e+04,-2.999999999999999737e-05,0.000000000000000000e+00,0.000000000000000000e+00,9.000000000000000567e-05,1.000000000000000048e-04,2.700000000000000035e-04,-5.999999999999999474e-05,4.099999999999999912e-04,6.000000000000000000e+00,2.300000000000000000e+01
6.418900000000000000e+04,-9.000000000000000567e-05,2.000000000000000164e-05,4.000000000000000327e-05,5.999999999999999474e-05,1.899999999999999834e-04,-2.000000000000000096e-04,-2.000000000000000164e-05,1.000000000000000048e-04,6.000000000000000000e+00,2.300000000000000000e+01
6.419000000000000000e+04,-9.000000000000000567e-05,2.000000000000000164e-05,4.000000000000000327e-05,5.999999999999999474e-05,1.899999999999999834e-04,-2.000000000000000096e-04,-2.000000000000000164e-05,1.000000000000000048e-04,6.000000000000000000e+00,2.300000000000000000e+01
6.419100000000000000e+04,-9.000000000000000567e-05,2.000000000000000164e-05,4.000000000000000327e-05,5.999999999999999474e-05,1.899999999999999834e-04,-2.000000000000000096e-04,-2.000000000000000164e-05,1.000000000000000048e-04,6.000000000000000000e+00,2.300000000000000000e+01
6.419200000000000000e+04,-9.000000000000000567e-05,2.000000000000000164e-05,4.000000000000000327e-05,5.999999999999999474e-05,1.899999999999999834e-04,-2.000000000000000096e-04,-2.000000000000000164e-05,1.000000000000000048e-04,6.000000000000000000e+00,2.300000000000000000e+01
6.419300000000000000e+04,-9.000000000000000567e-05,2.000000000000000164e-05,4.000000000000000327e-05,5.999999999999999474e-05,1.899999999999999834e-04,-2.000000000000000096e-04,-2.000000000000000164e-05,1.000000000000000048e-04,6.000000000000000000e+00,2.300000000000000000e+01
6.419400000000000000e+04,-9.000000000000000567e-05,2.000000000000000164e-05,4.000000000000000327e-05,5.999999999999999474e-05,1.899999999999999834e-04,-2.000000000000000096e-04,-2.000000000000000164e-05,1.000000000000000048e-04,6.000000000000000000e+00,2.300000000000000000e+01
6.419500000000000000e+04,-9.000000000000000567e-05,2.000000000000000164e-05,4.000000000000000327e-05,5.999999999999999474e-05,1.899999999999999834e-04,-2.000000000000000096e-04,-2.000000000000000164e-05,1.000000000000000048e-04,6.000000000000000000e+00,2.300000000000000000e+01
6.419600000000000000e+04,-9.000000000000000567e-05,2.000000000000000164e-05,4.000000000000000327e-05,5.999999999999999474e-05,1.899999999999999834e-04,-2.000000000000000096e-04,-2.000000000000000164e-05,1.000000000000000048e-04,6.000000000000000000e+00,2.300000000000000000e+01
6.419700000000000000e+04,-9.000000000000000567e-05,2.000000000000000164e-05,4.000000000000000327e-05,5.999999999999999474e-05,1.899999999999999834e-04,-2.000000000000000096e-04,-2.000000000000000164e-05,1.000000000000000048e-04,6.000000000000000000e+00,2.300000000000000000e+01
6.419800000000000000e+04,-9.000000000000000567e-05,2.000000000000000164e-05,4.000000000000000327e-05,5.999999999999999474e-05,1.899999999999999834e-04,-2.000000000000000096e-04,-2.000000000000000164e-05,1.000000000000000048e-04,6.000000000000000000e+00,2.300000000000000000e+01
6.419900000000000000e+04,-9.000000000000000567e-05,2.000000000000000164e-05,4.000000000000000327e-05,5.999999999999999474e-05,1.899999999999999834e-04,-2.000000000000000096e-04,-2.000000000000000164e-05,1.000000000000000048e-04,6.000000000000000000e+00,2.300000000000000000e+01
6.420000000000000000e+04,-9.000000000000000567e-05,2.000000000000000164e-05,4.000000000000000327e-05,5.999999999999999474e-05,1.899999999999999834e-04,-2.000000000000000096e-04,-2.000000000000000164e-05,1.000000000000000048e-04,6.000000000000000000e+00,2.300000000000000000e+01
6.420100000000000000e+04,-9.000000000000000567e-05,2.000000000000000164e-05,4.000000000000000327e-05,5.999999999999999474e-05,1.899999999999999834e-04,-2.000000000000000096e-04,-2.000000000000000164e-05,1.000000000000000048e-04,6.000000000000000000e+00,2.300000000000000000e+01
6.420200000000000000e+04,-9.000000000000000567e-05,2.000000000000000164e-05,4.000000000000000327e-05,5.999999999999999474e-05,1.899999999999999834e-04,-2.000000000000000096e-04,-2.000000000000000164e-05,1.000000000000000048e-04,6.000000000000000000e+00,2.300000000000000000e+01
6.420300000000000000e+04,-9.000000000000000567e-05,2.000000000000000164e-05,4.000000000000000327e-05,5.999999999999999474e-05,1.899999999999999834e-04,-2.000000000000000096e-04,-2.000000000000000164e-05,1.000000000000000048e-04,6.000000000000000000e+00,2.300000000000000000e+01
6.420400000000000000e+04,-9.000000000000000567e-05,2.000000000000000164e-05,4.000000000000000327e-05,5.999999999999999474e-05,1.899999999999999834e-04,-2.000000000000000096e-04,-2.000000000000000164e-05,1.000000000000000048e-04,6.000000000000000000e+00,2.300000000000000000e+01
6.420500000000000000e+04,-9.000000000000000567e-05,2.000000000000000164e-05,4.000000000000000327e-05,5.999999999999999474e-05,1.899999999999999834e-04,-2.000000000000000096e-04,-2.000000000000000164e-05,1.000000000000000048e-04,6.000000000000000000e+00,2.300000000000000000e+01
6.420600000000000000e+04,-9.000000000000000567e-05,2.000000000000000164e-05,4.000000000000000327e-05,5.999999999999999474e-05,1.899999999999999834e-04,-2.000000000000000096e-04,-2.000000000000000164e-05,1.000000000000000048e-04,6.000000000000000000e+00,2.300000000000000000e+01
6.420700000000000000e+04,-9.000000000000000567e-05,2.000000000000000164e-05,4.000000000000000327e-05,5.999999999999999474e-05,1.899999999999999834e-04,-2.000000000000000096e-04,-2.000000000000000164e-05,1.000000000000000048e-04,6.000000000000000000e+00,2.300000000000000000e+01
6.420800000000000000e+04,-9.000000000000000567e-05,2.000000000000000164e-05,4.000000000000000327e-05,5.999999999999999474e-05,1.899999999999999834e-04,-2.000000000000000096e-04,-2.000000000000000164e-05,1.000000000000000048e-04,6.000000000000000000e+00,2.300000000000000000e+01
6.420900000000000000e+04,1.199999999999999895e-04,2.999999999999999737e-05,2.000000000000000164e-05,1.000000000000000082e-05,3.699999999999999947e-04,-2.000000000000000164e-05,2.999999999999999737e-05,-4.299999999999999894e-04,6.000000000000000000e+00,2.300000000000000000e+01
6.421000000000000000e+04,1.199999999999999895e-04,2.999999999999999737e-05,2.000000000000000164e-05,1.000000000000000082e-05,3.699999999999999947e-04,-2.000000000000000164e-05,2.999999999999999737e-05,-4.299999999999999894e-04,6.000000000000000000e+00,2.300000000000000000e+01
6.421100000000000000e+04,-1.000000000000000082e-05,2.000000000000000164e-05,2.999999999999999737e-05,-1.000000000000000082e-05,-2.600000000000000314e-04,1.899999999999999834e-04,-6.999999999999999387e-05,-4.599999999999999597e-04,6.000000000000000000e+00,2.300000000000000000e+01
6.421200000000000000e+04,-1.000000000000000082e-05,2.000000000000000164e-05,2.999999999999999737e-05,-1.000000000000000082e-05,-2.600000000000000314e-04,1.899999999999999834e-04,-6.999999999999999387e-05,-4.599999999999999597e-04,6.000000000000000000e+00,2.300000000000000000e+01
6.421300000000000000e+04,-1.000000000000000082e-05,2.000000000000000164e-05,2.999999999999999737e-05,-1.000000000000000082e-05,-2.600000000000000314e-04,1.899999999999999834e-04,-6.999999999999999387e-05,-4.599999999999999597e-04,6.000000000000000000e+00,2.300000000000000000e+01
6.421400000000000000e+04,-1.000000000000000082e-05,2.000000000000000164e-05,2.999999999999999737e-05,-1.000000000000000082e-05,-2.600000000000000314e-04,1.899999999999999834e-04,-6.999999999999999387e-05,-4.599999999999999597e-04,6.000000000000000000e+00,2.300000000000000000e+01
6.421500000000000000e+04,-1.000000000000000082e-05,2.000000000000000164e-05,2.999999999999999737e-05,-1.000000000000000082e-05,-2.600000000000000314e-04,1.899999999999999834e-04,-6.999999999999999387e-05,-4.599999999999999597e-04,6.000000000000000000e+00,2.300000000000000000e+01
6.421600000000000000e+04,-1.000000000000000082e-05,2.000000000000000164e-05,2.999999999999999737e-05,-1.000000000000000082e-05,-2.600000000000000314e-04,1.899999999999999834e-04,-6.999999999999999387e-05,-4.599999999999999597e-04,6.000000000000000000e+00,2.300000000000000000e+01
6.421700000000000000e+04,-1.000000000000000082e-05,2.000000000000000164e-05,2.999999999999999737e-05,-1.000000000000000082e-05,-2.600000000000000314e-04,1.899999999999999834e-04,-6.999999999999999387e-05,-4.599999999999999597e-04,6.000000000000000000e+00,2.300000000000000000e+01
6.421800000000000000e+04,-1.000000000000000082e-05,2.000000000000000164e-05,2.999999999999999737e-05,-1.000000000000000082e-05,-2.600000000000000314e-04,1.899999999999999834e-04,-6.999999999999999387e-05,-4.599999999999999597e-04,6.000000000000000000e+00,2.300000000000000000e+01
6.421900000000000000e+04,-1.000000000000000082e-05,2.000000000000000164e-05,2.999999999999999737e-05,-1.000000000000000082e-05,-2.600000000000000314e-04,1.899999999999999834e-04,-6.999999999999999387e-05,-4.599999999999999597e-04,6.000000000000000000e+00,2.300000000000000000e+01
6.422000000000000000e+04,-1.000000000000000082e-05,2.000000000000000164e-05,2.999999999999999737e-05,-1.000000000000000082e-05,-2.600000000000000314e-04,1.899999999999999834e-04,-6.999999999999999387e-05,-4.599999999999999597e-04,6.000000000000000000e+00,2.300000000000000000e+01
6.422100000000000000e+04,-1.000000000000000082e-05,2.000000000000000164e-05,2.999999999999999737e-05,-1.000000000000000082e-05,-2.600000000000000314e-04,1.899999999999999834e-04,-6.999999999999999387e-05,-4.599999999999999597e-04,6.000000000000000000e+00,2.300000000000000000e+01
6.422200000000000000e+04,-1.000000000000000082e-05,2.000000000000000164e-05,2.999999999999999737e-05,-1.000000000000000082e-05,-2.600000000000000314e-04,1.899999999999999834e-04,-6.999999999999999387e-05,-4.599999999999999597e-04,6.000000000000000000e+00,2.300000000000000000e+01
6.422300000000000000e+04,-1.000000000000000082e-05,2.000000000000000164e-05,2.999999999999999737e-05,-1.000000000000000082e-05,-2.600000000000000314e-04,1.899999999999999834e-04,-6.999999999999999387e-05,-4.599999999999999597e-04,6.000000000000000000e+00,2.300000000000000000e+01
6.422400000000000000e+04,-1.000000000000000082e-05,2.000000000000000164e-05,2.999999999999999737e-05,-1.000000000000000082e-05,-2.600000000000000314e-04,1.899999999999999834e-04,-6.999999999999999387e-05,-4.599999999999999597e-04,6.000000000000000000e+00,2.300000000000000000e+01
6.422500000000000000e+04,-1.000000000000000082e-05,2.000000000000000164e-05,2.999999999999999737e-05,-1.000000000000000082e-05,-2.600000000000000314e-04,1.899999999999999834e-04,-6.999999999999999387e-05,-4.599999999999999597e-04,6.000000000000000000e+00,2.300000000000000000e+01
6.422600000000000000e+04,-1.000000000000000082e-05,2.000000000000000164e-05,2.999999999999999737e-05,-1.000000000000000082e-05,-2.600000000000000314e-04,1.899999999999999834e-04,-6.999999999999999387e-05,-4.599999999999999597e-04,6.000000000000000000e+00,2.300000000000000000e+01
6.422700000000000000e+04,-1.000000000000000082e-05,2.000000000000000164e-05,2.999999999999999737e-05,-1.000000000000000082e-05,-2.600000000000000314e-04,1.899999999999999834e-04,-6.999999999999999387e-05,-4.599999999999999597e-04,6.000000000000000000e+00,2.300000000000000000e+01
6.422800000000000000e+04,-1.000000000000000082e-05,2.000000000000000164e-05,2.999999999999999737e-05,-1.000000000000000082e-05,-2.600000000000000314e-04,1.899999999999999834e-04,-6.999999999999999387e-05,-4.599999999999999597e-04,6.000000000000000000e+00,2.300000000000000000e+01
6.422900000000000000e+04,-1.000000000000000082e-05,2.000000000000000164e-05,2.999999999999999737e-05,-1.000000000000000082e-05,-2.600000000000000314e-04,1.899999999999999834e-04,-6.999999999999999387e-05,-4.599999999999999597e-04,6.000000000000000000e+00,2.300000000000000000e+01
6.423000000000000000e+04,-1.000000000000000082e-05,2.000000000000000164e-05,2.999999999999999737e-05,-1.000000000000000082e-05,-2.600000000000000314e-04,1.899999999999999834e-04,-6.999999999999999387e-05,-4.599999999999999597e-04,6.000000000000000000e+00,2.300000000000000000e+01
6.423100000000000000e+04,-1.000000000000000082e-05,2.000000000000000164e-05,2.999999999999999737e-05,-1.000000000000000082e-05,-2.600000000000000314e-04,1.899999999999999834e-04,-6.999999999999999387e-05,-4.599999999999999597e-04,6.000000000000000000e+00,2.300000000000000000e+01
6.423200000000000000e+04,8.000000000000000654e-05,-2.000000000000000164e-05,2.999999999999999737e-05,1.000000000000000082e-05,-4.000000000000000327e-05,-3.799999999999999667e-04,1.199999999999999895e-04,8.000000000000000654e-05,6.000000000000000000e+00,2.300000000000000000e+01
6.423300000000000000e+04,-2.000000000000000164e-05,-2.000000000000000164e-05,-5.999999999999999474e-05,-8.000000000000000654e-05,-1.399999999999999877e-04,-3.299999999999999982e-04,-6.999999999999999387e-05,-1.699999999999999851e-04,6.000000000000000000e+00,2.300000000000000000e+01
6.423400000000000000e+04,-2.000000000000000164e-05,-2.000000000000000164e-05,-5.999999999999999474e-05,-8.000000000000000654e-05,-1.399999999999999877e-04,-3.299999999999999982e-04,-6.999999999999999387e-05,-1.699999999999999851e-04,6.000000000000000000e+00,2.300000000000000000e+01
6.423500000000000000e+04,-2.000000000000000164e-05,-2.000000000000000164e-05,-5.999999999999999474e-05,-8.000000000000000654e-05,-1.399999999999999877e-04,-3.299999999999999982e-04,-6.999999999999999387e-05,-1.699999999999999851e-04,6.000000000000000000e+00,2.300000000000000000e+01
6.423600000000000000e+04,-2.000000000000000164e-05,-2.000000000000000164e-05,-5.999999999999999474e-05,-8.000000000000000654e-05,-1.399999999999999877e-04,-3.299999999999999982e-04,-6.999999999999999387e-05,-1.699999999999999851e-04,6.000000000000000000e+00,2.300000000000000000e+01
6.423800000000000000e+04,-2.000000000000000164e-05,-2.000000000000000164e-05,-5.999999999999999474e-05,-8.000000000000000654e-05,-1.399999999999999877e-04,-3.299999999999999982e-04,-6.999999999999999387e-05,-1.699999999999999851e-04,6.000000000000000000e+00,2.300000000000000000e+01
6.423900000000000000e+04,-2.000000000000000164e-05,-2.000000000000000164e-05,-5.999999999999999474e-05,-8.000000000000000654e-05,-1.399999999999999877e-04,-3.299999999999999982e-04,-6.999999999999999387e-05,-1.699999999999999851e-04,6.000000000000000000e+00,2.300000000000000000e+01
6.424000000000000000e+04,-2.000000000000000164e-05,-2.000000000000000164e-05,-5.999999999999999474e-05,-8.000000000000000654e-05,-1.399999999999999877e-04,-3.299999999999999982e-04,-6.999999999999999387e-05,-1.699999999999999851e-04,6.000000000000000000e+00,2.300000000000000000e+01
6.424100000000000000e+04,-2.000000000000000164e-05,-2.000000000000000164e-05,-5.999999999999999474e-05,-8.000000000000000654e-05,-1.399999999999999877e-04,-3.299999999999999982e-04,-6.999999999999999387e-05,-1.699999999999999851e-04,6.000000000000000000e+00,2.300000000000000000e+01
6.424200000000000000e+04,-2.000000000000000164e-05,-2.000000000000000164e-05,-5.999999999999999474e-05,-8.000000000000000654e-05,-1.399999999999999877e-04,-3.299999999999999982e-04,-6.999999999999999387e-05,-1.699999999999999851e-04,6.000000000000000000e+00,2.300000000000000000e+01
6.424300000000000000e+04,-2.000000000000000164e-05,-2.000000000000000164e-05,-5.999999999999999474e-05,-8.000000000000000654e-05,-1.399999999999999877e-04,-3.299999999999999982e-04,-6.999999999999999387e-05,-1.699999999999999851e-04,6.000000000000000000e+00,2.300000000000000000e+01
6.424400000000000000e+04,-2.000000000000000164e-05,-2.000000000000000164e-05,-5.999999999999999474e-05,-8.000000000000000654e-05,-1.399999999999999877e-04,-3.299999999999999982e-04,-6.999999999999999387e-05,-1.699999999999999851e-04,6.000000000000000000e+00,2.300000000000000000e+01
6.424500000000000000e+04,-2.000000000000000164e-05,-2.000000000000000164e-05,-5.999999999999999474e-05,-8.000000000000000654e-05,-1.399999999999999877e-04,-3.299999999999999982e-04,-6.999999999999999387e-05,-1.699999999999999851e-04,6.000000000000000000e+00,2.300000000000000000e+01
6.424600000000000000e+04,-2.000000000000000164e-05,-2.000000000000000164e-05,-5.999999999999999474e-05,-8.000000000000000654e-05,-1.399999999999999877e-04,-3.299999999999999982e-04,-6.999999999999999387e-05,-1.699999999999999851e-04,6.000000000000000000e+00,2.300000000000000000e+01
6.424700000000000000e+04,-2.000000000000000164e-05,-2.000000000000000164e-05,-5.999999999999999474e-05,-8.000000000000000654e-05,-1.399999999999999877e-04,-3.299999999999999982e-04,-6.999999999999999387e-05,-1.699999999999999851e-04,6.000000000000000000e+00,2.300000000000000000e+01
6.424800000000000000e+04,-2.000000000000000164e-05,-2.000000000000000164e-05,-5.999999999999999474e-05,-8.000000000000000654e-05,-1.399999999999999877e-04,-3.299999999999999982e-04,-6.999999999999999387e-05,-1.699999999999999851e-04,6.000000000000000000e+00,2.300000000000000000e+01
6.424900000000000000e+04,-2.000000000000000164e-05,-2.000000000000000164e-05,-5.999999999999999474e-05,-8.000000000000000654e-05,-1.399999999999999877e-04,-3.299999999999999982e-04,-6.999999999999999387e-05,-1.699999999999999851e-04,6.000000000000000000e+00,2.300000000000000000e+01
6.425000000000000000e+04,-2.000000000000000164e-05,-2.000000000000000164e-05,-5.999999999999999474e-05,-8.000000000000000654e-05,-1.399999999999999877e-04,-3.299999999999999982e-04,-6.999999999999999387e-05,-1.699999999999999851e-04,6.000000000000000000e+00,2.300000000000000000e+01
6.425100000000000000e+04,-2.000000000000000164e-05,-2.000000000000000164e-05,-5.999999999999999474e-05,-8.000000000000000654e-05,-1.399999999999999877e-04,-3.299999999999999982e-04,-6.999999999999999387e-05,-1.699999999999999851e-04,6.000000000000000000e+00,2.300000000000000000e+01
6.425200000000000000e+04,-2.000000000000000164e-05,-2.000000000000000164e-05,-5.999999999999999474e-05,-8.000000000000000654e-05,-1.399999999999999877e-04,-3.299999999999999982e-04,-6.999999999999999387e-05,-1.699999999999999851e-04,6.000000000000000000e+00,2.300000000000000000e+01
6.425300000000000000e+04,-2.000000000000000164e-05,-2.000000000000000164e-05,-5.999999999999999474e-05,-8.000000000000000654e-05,-1.399999999999999877e-04,-3.299999999999999982e-04,-6.999999999999999387e-05,-1.699999999999999851e-04,6.000000000000000000e+00,2.300000000000000000e+01
6.425400000000000000e+04,5.000000000000000240e-05,-5.000000000000000240e-05,-5.999999999999999474e-05,-5.000000000000000240e-05,-1.100000000000000039e-04,5.999999999999999474e-04,9.000000000000000567e-05,-1.800000000000000113e-04,6.000000000000000000e+00,2.300000000000000000e+01
6.425500000000000000e+04,5.000000000000000240e-05,-5.000000000000000240e-05,-5.999999999999999474e-05,-5.000000000000000240e-05,-1.100000000000000039e-04,5.999999999999999474e-04,9.000000000000000567e-05,-1.800000000000000113e-04,6.000000000000000000e+00,2.300000000000000000e+01
6.425600000000000000e+04,1.000000000000000082e-05,-2.000000000000000164e-05,-5.000000000000000240e-05,-6.999999999999999387e-05,-1.899999999999999834e-04,-1.899999999999999834e-04,6.999999999999999387e-05,2.900000000000000017e-04,6.000000000000000000e+00,2.300000000000000000e+01
6.425700000000000000e+04,1.000000000000000082e-05,-2.000000000000000164e-05,-5.000000000000000240e-05,-6.999999999999999387e-05,-1.899999999999999834e-04,-1.899999999999999834e-04,6.999999999999999387e-05,2.900000000000000017e-04,6.000000000000000000e+00,2.300000000000000000e+01
6.425800000000000000e+04,1.000000000000000082e-05,-2.000000000000000164e-05,-5.000000000000000240e-05,-6.999999999999999387e-05,-1.899999999999999834e-04,-1.899999999999999834e-04,6.999999999999999387e-05,2.900000000000000017e-04,6.000000000000000000e+00,2.300000000000000000e+01
6.425900000000000000e+04,1.000000000000000082e-05,-2.000000000000000164e-05,-5.000000000000000240e-05,-6.999999999999999387e-05,-1.899999999999999834e-04,-1.899999999999999834e-04,6.999999999999999387e-05,2.900000000000000017e-04,6.000000000000000000e+00,2.300000000000000000e+01
6.426000000000000000e+04,1.000000000000000082e-05,-2.000000000000000164e-05,-5.000000000000000240e-05,-6.999999999999999387e-05,-1.899999999999999834e-04,-1.899999999999999834e-04,6.999999999999999387e-05,2.900000000000000017e-04,6.000000000000000000e+00,2.300000000000000000e+01
6.426100000000000000e+04,1.000000000000000082e-05,-2.000000000000000164e-05,-5.000000000000000240e-05,-6.999999999999999387e-05,-1.899999999999999834e-04,-1.899999999999999834e-04,6.999999999999999387e-05,2.900000000000000017e-04,6.000000000000000000e+00,2.300000000000000000e+01
6.426200000000000000e+04,1.000000000000000082e-05,-2.000000000000000164e-05,-5.000000000000000240e-05,-6.999999999999999387e-05,-1.899999999999999834e-04,-1.899999999999999834e-04,6.999999999999999387e-05,2.900000000000000017e-04,6.000000000000000000e+00,2.300000000000000000e+01
6.426300000000000000e+04,1.000000000000000082e-05,-2.000000000000000164e-05,-5.000000000000000240e-05,-6.999999999999999387e-05,-1.899999999999999834e-04,-1.899999999999999834e-04,6.999999999999999387e-05,2.900000000000000017e-04,6.000000000000000000e+00,2.300000000000000000e+01
6.426400000000000000e+04,1.000000000000000082e-05,-2.000000000000000164e-05,-5.000000000000000240e-05,-6.999999999999999387e-05,-1.899999999999999834e-04,-1.899999999999999834e-04,6.999999999999999387e-05,2.900000000000000017e-04,6.000000000000000000e+00,2.300000000000000000e+01
6.426500000000000000e+04,1.000000000000000082e-05,-2.000000000000000164e-05,-5.000000000000000240e-05,-6.999999999999999387e-05,-1.899999999999999834e-04,-1.899999999999999834e-04,6.999999999999999387e-05,2.900000000000000017e-04,6.000000000000000000e+00,2.300000000000000000e+01
6.426600000000000000e+04,1.000000000000000082e-05,-2.000000000000000164e-05,-5.000000000000000240e-05,-6.999999999999999387e-05,-1.899999999999999834e-04,-1.899999999999999834e-04,6.999999999999999387e-05,2.900000000000000017e-04,6.000000000000000000e+00,2.300000000000000000e+01
6.426700000000000000e+04,1.000000000000000082e-05,-2.000000000000000164e-05,-5.000000000000000240e-05,-6.999999999999999387e-05,-1.899999999999999834e-04,-1.899999999999999834e-04,6.999999999999999387e-05,2.900000000000000017e-04,6.000000000000000000e+00,2.300000000000000000e+01
6.426800000000000000e+04,1.000000000000000082e-05,-2.000000000000000164e-05,-5.000000000000000240e-05,-6.999999999999999387e-05,-1.899999999999999834e-04,-1.899999999999999834e-04,6.999999999999999387e-05,2.900000000000000017e-04,6.000000000000000000e+00,2.300000000000000000e+01
6.426900000000000000e+04,1.000000000000000082e-05,-2.000000000000000164e-05,-5.000000000000000240e-05,-6.999999999999999387e-05,-1.899999999999999834e-04,-1.899999999999999834e-04,6.999999999999999387e-05,2.900000000000000017e-04,6.000000000000000000e+00,2.300000000000000000e+01
6.427000000000000000e+04,1.000000000000000082e-05,-2.000000000000000164e-05,-5.000000000000000240e-05,-6.999999999999999387e-05,-1.899999999999999834e-04,-1.899999999999999834e-04,6.999999999999999387e-05,2.900000000000000017e-04,6.000000000000000000e+00,2.300000000000000000e+01
6.427100000000000000e+04,1.000000000000000082e-05,-2.000000000000000164e-05,-5.000000000000000240e-05,-6.999999999999999387e-05,-1.899999999999999834e-04,-1.899999999999999834e-04,6.999999999999999387e-05,2.900000000000000017e-04,6.000000000000000000e+00,2.300000000000000000e+01
6.427200000000000000e+04,1.000000000000000082e-05,-2.000000000000000164e-05,-5.000000000000000240e-05,-6.999999999999999387e-05,-1.899999999999999834e-04,-1.899999999999999834e-04,6.999999999999999387e-05,2.900000000000000017e-04,6.000000000000000000e+00,2.300000000000000000e+01
6.427300000000000000e+04,1.000000000000000082e-05,-2.000000000000000164e-05,-5.000000000000000240e-05,-6.999999999999999387e-05,-1.899999999999999834e-04,-1.899999999999999834e-04,6.999999999999999387e-05,2.900000000000000017e-04,6.000000000000000000e+00,2.300000000000000000e+01
6.427400000000000000e+04,1.000000000000000082e-05,-2.000000000000000164e-05,-5.000000000000000240e-05,-6.999999999999999387e-05,-1.899999999999999834e-04,-1.899999999999999834e-04,6.999999999999999387e-05,2.900000000000000017e-04,6.000000000000000000e+00,2.300000000000000000e+01
6.427500000000000000e+04,1.000000000000000082e-05,-2.000000000000000164e-05,-5.000000000000000240e-05,-6.999999999999999387e-05,-1.899999999999999834e-04,-1.899999999999999834e-04,6.999999999999999387e-05,2.900000000000000017e-04,6.000000000000000000e+00,2.300000000000000000e+01
6.427600000000000000e+04,1.000000000000000082e-05,-2.000000000000000164e-05,-5.000000000000000240e-05,-6.999999999999999387e-05,-1.899999999999999834e-04,-1.899999999999999834e-04,6.999999999999999387e-05,2.900000000000000017e-04,6.000000000000000000e+00,2.300000000000000000e+01
6.427700000000000000e+04,1.000000000000000082e-05,-1.000000000000000082e-05,-2.000000000000000164e-05,-4.000000000000000327e-05,-2.399999999999999790e-04,-4.799999999999999580e-04,-4.000000000000000327e-05,5.000000000000000104e-04,6.000000000000000000e+00,2.300000000000000000e+01
6.427800000000000000e+04,-1.000000000000000082e-05,-1.000000000000000082e-05,2.000000000000000164e-05,2.000000000000000164e-05,-4.000000000000000327e-05,-5.500000000000000331e-04,1.000000000000000082e-05,8.000000000000000654e-05,6.000000000000000000e+00,2.300000000000000000e+01
6.427900000000000000e+04,0.000000000000000000e+00,4.000000000000000327e-05,1.000000000000000082e-05,-1.000000000000000082e-05,-2.999999999999999737e-05,4.099999999999999912e-04,1.000000000000000082e-05,5.000000000000000240e-05,6.000000000000000000e+00,2.300000000000000000e+01
6.428000000000000000e+04,0.000000000000000000e+00,4.000000000000000327e-05,1.000000000000000082e-05,-1.000000000000000082e-05,-2.999999999999999737e-05,4.099999999999999912e-04,1.000000000000000082e-05,5.000000000000000240e-05,6.000000000000000000e+00,2.300000000000000000e+01
6.428100000000000000e+04,0.000000000000000000e+00,4.000000000000000327e-05,1.000000000000000082e-05,-1.000000000000000082e-05,-2.999999999999999737e-05,4.099999999999999912e-04,1.000000000000000082e-05,5.000000000000000240e-05,6.000000000000000000e+00,2.300000000000000000e+01
6.428200000000000000e+04,0.000000000000000000e+00,4.000000000000000327e-05,1.000000000000000082e-05,-1.000000000000000082e-05,-2.999999999999999737e-05,4.099999999999999912e-04,1.000000000000000082e-05,5.000000000000000240e-05,6.000000000000000000e+00,2.300000000000000000e+01
6.428300000000000000e+04,0.000000000000000000e+00,4.000000000000000327e-05,1.000000000000000082e-05,-1.000000000000000082e-05,-2.999999999999999737e-05,4.099999999999999912e-04,1.000000000000000082e-05,5.000000000000000240e-05,6.000000000000000000e+00,2.300000000000000000e+01
6.428400000000000000e+04,0.000000000000000000e+00,4.000000000000000327e-05,1.000000000000000082e-05,-1.000000000000000082e-05,-2.999999999999999737e-05,4.099999999999999912e-04,1.000000000000000082e-05,5.000000000000000240e-05,6.000000000000000000e+00,2.300000000000000000e+01
6.428500000000000000e+04,0.000000000000000000e+00,4.000000000000000327e-05,1.000000000000000082e-05,-1.000000000000000082e-05,-2.999999999999999737e-05,4.099999999999999912e-04,1.000000000000000082e-05,5.000000000000000240e-05,6.000000000000000000e+00,2.300000000000000000e+01
6.428600000000000000e+04,0.000000000000000000e+00,4.000000000000000327e-05,1.000000000000000082e-05,-1.000000000000000082e-05,-2.999999999999999737e-05,4.099999999999999912e-04,1.000000000000000082e-05,5.000000000000000240e-05,6.000000000000000000e+00,2.300000000000000000e+01
6.428800000000000000e+04,0.000000000000000000e+00,4.000000000000000327e-05,1.000000000000000082e-05,-1.000000000000000082e-05,-2.999999999999999737e-05,4.099999999999999912e-04,1.000000000000000082e-05,5.000000000000000240e-05,6.000000000000000000e+00,2.300000000000000000e+01
6.428900000000000000e+04,0.000000000000000000e+00,4.000000000000000327e-05,1.000000000000000082e-05,-1.000000000000000082e-05,-2.999999999999999737e-05,4.099999999999999912e-04,1.000000000000000082e-05,5.000000000000000240e-05,6.000000000000000000e+00,2.300000000000000000e+01
6.429000000000000000e+04,0.000000000000000000e+00,4.000000000000000327e-05,1.000000000000000082e-05,-1.000000000000000082e-05,-2.999999999999999737e-05,4.099999999999999912e-04,1.000000000000000082e-05,5.000000000000000240e-05,6.000000000000000000e+00,2.300000000000000000e+01
6.429100000000000000e+04,0.000000000000000000e+00,4.000000000000000327e-05,1.000000000000000082e-05,-1.000000000000000082e-05,-2.999999999999999737e-05,4.099999999999999912e-04,1.000000000000000082e-05,5.000000000000000240e-05,6.000000000000000000e+00,2.300000000000000000e+01
6.429200000000000000e+04,0.000000000000000000e+00,4.000000000000000327e-05,1.000000000000000082e-05,-1.000000000000000082e-05,-2.999999999999999737e-05,4.099999999999999912e-04,1.000000000000000082e-05,5.000000000000000240e-05,6.000000000000000000e+00,2.300000000000000000e+01
6.429300000000000000e+04,0.000000000000000000e+00,4.000000000000000327e-05,1.000000000000000082e-05,-1.000000000000000082e-05,-2.999999999999999737e-05,4.099999999999999912e-04,1.000000000000000082e-05,5.000000000000000240e-05,6.000000000000000000e+00,2.300000000000000000e+01
6.429400000000000000e+04,0.000000000000000000e+00,4.000000000000000327e-05,1.000000000000000082e-05,-1.000000000000000082e-05,-2.999999999999999737e-05,4.099999999999999912e-04,1.000000000000000082e-05,5.000000000000000240e-05,6.000000000000000000e+00,2.300000000000000000e+01
6.429500000000000000e+04,0.000000000000000000e+00,4.000000000000000327e-05,1.000000000000000082e-05,-1.000000000000000082e-05,-2.999999999999999737e-05,4.099999999999999912e-04,1.000000000000000082e-05,5.000000000000000240e-05,6.000000000000000000e+00,2.300000000000000000e+01
6.429600000000000000e+04,0.000000000000000000e+00,4.000000000000000327e-05,1.000000000000000082e-05,-1.000000000000000082e-05,-2.999999999999999737e-05,4.099999999999999912e-04,1.000000000000000082e-05,5.000000000000000240e-05,6.000000000000000000e+00,2.300000000000000000e+01
6.429700000000000000e+04,0.000000000000000000e+00,4.000000000000000327e-05,1.000000000000000082e-05,-1.000000000000000082e-05,-2.999999999999999737e-05,4.099999999999999912e-04,1.000000000000000082e-05,5.000000000000000240e-05,6.000000000000000000e+00,2.300000000000000000e+01
6.429800000000000000e+04,0.000000000000000000e+00,4.000000000000000327e-05,1.000000000000000082e-05,-1.000000000000000082e-05,-2.999999999999999737e-05,4.099999999999999912e-04,1.000000000000000082e-05,5.000000000000000240e-05,6.000000000000000000e+00,2.300000000000000000e+01
6.429900000000000000e+04,0.000000000000000000e+00,4.000000000000000327e-05,1.000000000000000082e-05,-1.000000000000000082e-05,-2.999999999999999737e-05,4.099999999999999912e-04,1.000000000000000082e-05,5.000000000000000240e-05,6.000000000000000000e+00,2.300000000000000000e+01
6.430000000000000000e+04,0.000000000000000000e+00,4.000000000000000327e-05,1.000000000000000082e-05,-1.000000000000000082e-05,-2.999999999999999737e-05,4.099999999999999912e-04,1.000000000000000082e-05,5.000000000000000240e-05,6.000000000000000000e+00,2.300000000000000000e+01
6.430100000000000000e+04,4.000000000000000327e-05,2.999999999999999737e-05,5.999999999999999474e-05,1.100000000000000039e-04,2.100000000000000087e-04,-2.700000000000000035e-04,-8.000000000000000654e-05,8.000000000000000654e-05,6.000000000000000000e+00,2.300000000000000000e+01
6.430200000000000000e+04,-2.000000000000000164e-05,0.000000000000000000e+00,1.000000000000000082e-05,4.000000000000000327e-05,4.000000000000000327e-05,-2.999999999999999737e-05,-5.000000000000000240e-05,1.800000000000000113e-04,6.000000000000000000e+00,2.300000000000000000e+01
6.430300000000000000e+04,-2.999999999999999737e-05,-1.000000000000000082e-05,-5.000000000000000240e-05,-2.999999999999999737e-05,-9.000000000000000567e-05,5.299999999999999807e-04,-2.000000000000000096e-04,4.099999999999999912e-04,6.000000000000000000e+00,2.300000000000000000e+01
6.430400000000000000e+04,-2.999999999999999737e-05,-1.000000000000000082e-05,-5.000000000000000240e-05,-2.999999999999999737e-05,-9.000000000000000567e-05,5.299999999999999807e-04,-2.000000000000000096e-04,4.099999999999999912e-04,6.000000000000000000e+00,2.300000000000000000e+01
6.430500000000000000e+04,-2.999999999999999737e-05,-1.000000000000000082e-05,-5.000000000000000240e-05,-2.999999999999999737e-05,-9.000000000000000567e-05,5.299999999999999807e-04,-2.000000000000000096e-04,4.099999999999999912e-04,6.000000000000000000e+00,2.300000000000000000e+01
6.430600000000000000e+04,-2.999999999999999737e-05,-1.000000000000000082e-05,-5.000000000000000240e-05,-2.999999999999999737e-05,-9.000000000000000567e-05,5.299999999999999807e-04,-2.000000000000000096e-04,4.099999999999999912e-04,6.000000000000000000e+00,2.300000000000000000e+01
6.430700000000000000e+04,-2.999999999999999737e-05,-1.000000000000000082e-05,-5.000000000000000240e-05,-2.999999999999999737e-05,-9.000000000000000567e-05,5.299999999999999807e-04,-2.000000000000000096e-04,4.099999999999999912e-04,6.000000000000000000e+00,2.300000000000000000e+01
6.430900000000000000e+04,-2.999999999999999737e-05,-1.000000000000000082e-05,-5.000000000000000240e-05,-2.999999999999999737e-05,-9.000000000000000567e-05,5.299999999999999807e-04,-2.000000000000000096e-04,4.099999999999999912e-04,6.000000000000000000e+00,2.300000000000000000e+01
6.431000000000000000e+04,-2.999999999999999737e-05,-1.000000000000000082e-05,-5.000000000000000240e-05,-2.999999999999999737e-05,-9.000000000000000567e-05,5.299999999999999807e-04,-2.000000000000000096e-04,4.099999999999999912e-04,6.000000000000000000e+00,2.300000000000000000e+01
6.431100000000000000e+04,-2.999999999999999737e-05,-1.000000000000000082e-05,-5.000000000000000240e-05,-2.999999999999999737e-05,-9.000000000000000567e-05,5.299999999999999807e-04,-2.000000000000000096e-04,4.099999999999999912e-04,6.000000000000000000e+00,2.300000000000000000e+01
6.431200000000000000e+04,-2.999999999999999737e-05,-1.000000000000000082e-05,-5.000000000000000240e-05,-2.999999999999999737e-05,-9.000000000000000567e-05,5.299999999999999807e-04,-2.000000000000000096e-04,4.099999999999999912e-04,6.000000000000000000e+00,2.300000000000000000e+01
6.431300000000000000e+04,-2.999999999999999737e-05,-1.000000000000000082e-05,-5.000000000000000240e-05,-2.999999999999999737e-05,-9.000000000000000567e-05,5.299999999999999807e-04,-2.000000000000000096e-04,4.099999999999999912e-04,6.000000000000000000e+00,2.300000000000000000e+01
6.431400000000000000e+04,-2.999999999999999737e-05,-1.000000000000000082e-05,-5.000000000000000240e-05,-2.999999999999999737e-05,-9.000000000000000567e-05,5.299999999999999807e-04,-2.000000000000000096e-04,4.099999999999999912e-04,6.000000000000000000e+00,2.300000000000000000e+01
6.431500000000000000e+04,-1.800000000000000113e-04,-5.000000000000000240e-05,-5.000000000000000240e-05,2.000000000000000164e-05,6.999999999999999387e-05,-4.799999999999999580e-04,-1.499999999999999869e-04,-2.000000000000000164e-05,6.000000000000000000e+00,2.300000000000000000e+01
6.431600000000000000e+04,-1.800000000000000113e-04,-5.000000000000000240e-05,-5.000000000000000240e-05,2.000000000000000164e-05,6.999999999999999387e-05,-4.799999999999999580e-04,-1.499999999999999869e-04,-2.000000000000000164e-05,6.000000000000000000e+00,2.300000000000000000e+01
6.431700000000000000e+04,-1.800000000000000113e-04,-5.000000000000000240e-05,-5.000000000000000240e-05,2.000000000000000164e-05,6.999999999999999387e-05,-4.799999999999999580e-04,-1.499999999999999869e-04,-2.000000000000000164e-05,6.000000000000000000e+00,2.300000000000000000e+01
6.431800000000000000e+04,-1.800000000000000113e-04,-5.000000000000000240e-05,-5.000000000000000240e-05,2.000000000000000164e-05,6.999999999999999387e-05,-4.799999999999999580e-04,-1.499999999999999869e-04,-2.000000000000000164e-05,6.000000000000000000e+00,2.300000000000000000e+01
6.431900000000000000e+04,-1.800000000000000113e-04,-5.000000000000000240e-05,-5.000000000000000240e-05,2.000000000000000164e-05,6.999999999999999387e-05,-4.799999999999999580e-04,-1.499999999999999869e-04,-2.000000000000000164e-05,6.000000000000000000e+00,2.300000000000000000e+01
6.432000000000000000e+04,-1.800000000000000113e-04,-5.000000000000000240e-05,-5.000000000000000240e-05,2.000000000000000164e-05,6.999999999999999387e-05,-4.799999999999999580e-04,-1.499999999999999869e-04,-2.000000000000000164e-05,6.000000000000000000e+00,2.300000000000000000e+01
6.432100000000000000e+04,-1.800000000000000113e-04,-5.000000000000000240e-05,-5.000000000000000240e-05,2.000000000000000164e-05,6.999999999999999387e-05,-4.799999999999999580e-04,-1.499999999999999869e-04,-2.000000000000000164e-05,6.000000000000000000e+00,2.300000000000000000e+01
6.432200000000000000e+04,-1.800000000000000113e-04,-5.000000000000000240e-05,-5.000000000000000240e-05,2.000000000000000164e-05,6.999999999999999387e-05,-4.799999999999999580e-04,-1.499999999999999869e-04,-2.000000000000000164e-05,6.000000000000000000e+00,2.300000000000000000e+01
6.432300000000000000e+04,-1.800000000000000113e-04,-5.000000000000000240e-05,-5.000000000000000240e-05,2.000000000000000164e-05,6.999999999999999387e-05,-4.799999999999999580e-04,-1.499999999999999869e-04,-2.000000000000000164e-05,6.000000000000000000e+00,2.300000000000000000e+01
6.432400000000000000e+04,-1.800000000000000113e-04,-5.000000000000000240e-05,-5.000000000000000240e-05,2.000000000000000164e-05,6.999999999999999387e-05,-4.799999999999999580e-04,-1.499999999999999869e-04,-2.000000000000000164e-05,6.000000000000000000e+00,2.300000000000000000e+01
6.432500000000000000e+04,-1.800000000000000113e-04,-5.000000000000000240e-05,-5.000000000000000240e-05,2.000000000000000164e-05,6.999999999999999387e-05,-4.799999999999999580e-04,-1.499999999999999869e-04,-2.000000000000000164e-05,6.000000000000000000e+00,2.300000000000000000e+01
6.432600000000000000e+04,-1.800000000000000113e-04,-5.000000000000000240e-05,-5.000000000000000240e-05,2.000000000000000164e-05,6.999999999999999387e-05,-4.799999999999999580e-04,-1.499999999999999869e-04,-2.000000000000000164e-05,6.000000000000000000e+00,2.300000000000000000e+01
6.432700000000000000e+04,-1.800000000000000113e-04,-5.000000000000000240e-05,-5.000000000000000240e-05,2.000000000000000164e-05,6.999999999999999387e-05,-4.799999999999999580e-04,-1.499999999999999869e-04,-2.000000000000000164e-05,6.000000000000000000e+00,2.300000000000000000e+01
6.432800000000000000e+04,-1.800000000000000113e-04,-5.000000000000000240e-05,-5.000000000000000240e-05,2.000000000000000164e-05,6.999999999999999387e-05,-4.799999999999999580e-04,-1.499999999999999869e-04,-2.000000000000000164e-05,6.000000000000000000e+00,2.300000000000000000e+01
6.432900000000000000e+04,-1.800000000000000113e-04,-5.000000000000000240e-05,-5.000000000000000240e-05,2.000000000000000164e-05,6.999999999999999387e-05,-4.799999999999999580e-04,-1.499999999999999869e-04,-2.000000000000000164e-05,6.000000000000000000e+00,2.300000000000000000e+01
6.433000000000000000e+04,-1.800000000000000113e-04,-5.000000000000000240e-05,-5.000000000000000240e-05,2.000000000000000164e-05,6.999999999999999387e-05,-4.799999999999999580e-04,-1.499999999999999869e-04,-2.000000000000000164e-05,6.000000000000000000e+00,2.300000000000000000e+01
6.433100000000000000e+04,-1.800000000000000113e-04,-5.000000000000000240e-05,-5.000000000000000240e-05,2.000000000000000164e-05,6.999999999999999387e-05,-4.799999999999999580e-04,-1.499999999999999869e-04,-2.000000000000000164e-05,6.000000000000000000e+00,2.300000000000000000e+01
6.433200000000000000e+04,-1.800000000000000113e-04,-5.000000000000000240e-05,-5.000000000000000240e-05,2.000000000000000164e-05,6.999999999999999387e-05,-4.799999999999999580e-04,-1.499999999999999869e-04,-2.000000000000000164e-05,6.000000000000000000e+00,2.300000000000000000e+01
6.433300000000000000e+04,-1.800000000000000113e-04,-5.000000000000000240e-05,-5.000000000000000240e-05,2.000000000000000164e-05,6.999999999999999387e-05,-4.799999999999999580e-04,-1.499999999999999869e-04,-2.000000000000000164e-05,6.000000000000000000e+00,2.300000000000000000e+01
6.433400000000000000e+04,-1.800000000000000113e-04,-5.000000000000000240e-05,-5.000000000000000240e-05,2.000000000000000164e-05,6.999999999999999387e-05,-4.799999999999999580e-04,-1.499999999999999869e-04,-2.000000000000000164e-05,6.000000000000000000e+00,2.300000000000000000e+01
