3.830300000000000000e+04,-2.999999999999999737e-05,-2.000000000000000164e-05,-4.000000000000000327e-05,-2.999999999999999737e-05,2.999999999999999737e-05,2.999999999999999737e-05,4.000000000000000327e-05,1.000000000000000082e-05,3.000000000000000000e+00,1.700000000000000000e+01
3.830400000000000000e+04,-2.999999999999999737e-05,-2.000000000000000164e-05,-4.000000000000000327e-05,-2.999999999999999737e-05,2.999999999999999737e-05,2.999999999999999737e-05,4.000000000000000327e-05,1.000000000000000082e-05,3.000000000000000000e+00,1.700000000000000000e+01
3.830500000000000000e+04,-2.999999999999999737e-05,-2.000000000000000164e-05,-4.000000000000000327e-05,-2.999999999999999737e-05,2.999999999999999737e-05,2.999999999999999737e-05,4.000000000000000327e-05,1.000000000000000082e-05,3.000000000000000000e+00,1.700000000000000000e+01
3.830600000000000000e+04,-2.999999999999999737e-05,-2.000000000000000164e-05,-4.000000000000000327e-05,-2.999999999999999737e-05,2.999999999999999737e-05,2.999999999999999737e-05,4.000000000000000327e-05,1.000000000000000082e-05,3.000000000000000000e+00,1.700000000000000000e+01
3.830700000000000000e+04,-2.999999999999999737e-05,-2.000000000000000164e-05,-4.000000000000000327e-05,-2.999999999999999737e-05,2.999999999999999737e-05,2.999999999999999737e-05,4.000000000000000327e-05,1.000000000000000082e-05,3.000000000000000000e+00,1.700000000000000000e+01
3.830800000000000000e+04,-2.999999999999999737e-05,-2.000000000000000164e-05,-4.000000000000000327e-05,-2.999999999999999737e-05,2.999999999999999737e-05,2.999999999999999737e-05,4.000000000000000327e-05,1.000000000000000082e-05,3.000000000000000000e+00,1.700000000000000000e+01
3.830900000000000000e+04,8.000000000000000654e-05,1.000000000000000082e-05,0.000000000000000000e+00,2.999999999999999737e-05,-2.999999999999999737e-05,-6.999999999999999387e-05,-2.999999999999999737e-05,5.000000000000000240e-05,3.000000000000000000e+00,1.700000000000000000e+01
3.831000000000000000e+04,8.000000000000000654e-05,1.000000000000000082e-05,0.000000000000000000e+00,2.999999999999999737e-05,-2.999999999999999737e-05,-6.999999999999999387e-05,-2.999999999999999737e-05,5.000000000000000240e-05,3.000000000000000000e+00,1.700000000000000000e+01
3.831100000000000000e+04,-4.000000000000000327e-05,0.000000000000000000e+00,2.000000000000000164e-05,1.000000000000000082e-05,5.000000000000000240e-05,1.000000000000000082e-05,2.000000000000000164e-05,-2.999999999999999737e-05,3.000000000000000000e+00,1.700000000000000000e+01
3.831200000000000000e+04,-4.000000000000000327e-05,0.000000000000000000e+00,2.000000000000000164e-05,1.000000000000000082e-05,5.000000000000000240e-05,1.000000000000000082e-05,2.000000000000000164e-05,-2.999999999999999737e-05,3.000000000000000000e+00,1.700000000000000000e+01
3.831300000000000000e+04,-4.000000000000000327e-05,0.000000000000000000e+00,2.000000000000000164e-05,1.000000000000000082e-05,5.000000000000000240e-05,1.000000000000000082e-05,2.000000000000000164e-05,-2.999999999999999737e-05,3.000000000000000000e+00,1.700000000000000000e+01
3.831400000000000000e+04,-4.000000000000000327e-05,0.000000000000000000e+00,2.000000000000000164e-05,1.000000000000000082e-05,5.000000000000000240e-05,1.000000000000000082e-05,2.000000000000000164e-05,-2.999999999999999737e-05,3.000000000000000000e+00,1.700000000000000000e+01
3.831500000000000000e+04,-4.000000000000000327e-05,0.000000000000000000e+00,2.000000000000000164e-05,1.000000000000000082e-05,5.000000000000000240e-05,1.000000000000000082e-05,2.000000000000000164e-05,-2.999999999999999737e-05,3.000000000000000000e+00,1.700000000000000000e+01
3.831600000000000000e+04,-4.000000000000000327e-05,0.000000000000000000e+00,2.000000000000000164e-05,1.000000000000000082e-05,5.000000000000000240e-05,1.000000000000000082e-05,2.000000000000000164e-05,-2.999999999999999737e-05,3.000000000000000000e+00,1.700000000000000000e+01
3.831700000000000000e+04,-4.000000000000000327e-05,0.000000000000000000e+00,2.000000000000000164e-05,1.000000000000000082e-05,5.000000000000000240e-05,1.000000000000000082e-05,2.000000000000000164e-05,-2.999999999999999737e-05,3.000000000000000000e+00,1.700000000000000000e+01
3.831800000000000000e+04,-4.000000000000000327e-05,0.000000000000000000e+00,2.000000000000000164e-05,1.000000000000000082e-05,5.000000000000000240e-05,1.000000000000000082e-05,2.000000000000000164e-05,-2.999999999999999737e-05,3.000000000000000000e+00,1.700000000000000000e+01
3.831900000000000000e+04,-4.000000000000000327e-05,0.000000000000000000e+00,2.000000000000000164e-05,1.000000000000000082e-05,5.000000000000000240e-05,1.000000000000000082e-05,2.000000000000000164e-05,-2.999999999999999737e-05,3.000000000000000000e+00,1.700000000000000000e+01
3.832000000000000000e+04,-4.000000000000000327e-05,0.000000000000000000e+00,2.000000000000000164e-05,1.000000000000000082e-05,5.000000000000000240e-05,1.000000000000000082e-05,2.000000000000000164e-05,-2.999999999999999737e-05,3.000000000000000000e+00,1.700000000000000000e+01
3.832100000000000000e+04,-4.000000000000000327e-05,0.000000000000000000e+00,2.000000000000000164e-05,1.000000000000000082e-05,5.000000000000000240e-05,1.000000000000000082e-05,2.000000000000000164e-05,-2.999999999999999737e-05,3.000000000000000000e+00,1.700000000000000000e+01
3.832200000000000000e+04,-4.000000000000000327e-05,0.000000000000000000e+00,2.000000000000000164e-05,1.000000000000000082e-05,5.000000000000000240e-05,1.000000000000000082e-05,2.000000000000000164e-05,-2.999999999999999737e-05,3.000000000000000000e+00,1.700000000000000000e+01
3.832300000000000000e+04,-4.000000000000000327e-05,0.000000000000000000e+00,2.000000000000000164e-05,1.000000000000000082e-05,5.000000000000000240e-05,1.000000000000000082e-05,2.000000000000000164e-05,-2.999999999999999737e-05,3.000000000000000000e+00,1.700000000000000000e+01
3.832400000000000000e+04,-4.000000000000000327e-05,0.000000000000000000e+00,2.000000000000000164e-05,1.000000000000000082e-05,5.000000000000000240e-05,1.000000000000000082e-05,2.000000000000000164e-05,-2.999999999999999737e-05,3.000000000000000000e+00,1.700000000000000000e+01
3.832500000000000000e+04,-4.000000000000000327e-05,0.000000000000000000e+00,2.000000000000000164e-05,1.000000000000000082e-05,5.000000000000000240e-05,1.000000000000000082e-05,2.000000000000000164e-05,-2.999999999999999737e-05,3.000000000000000000e+00,1.700000000000000000e+01
3.832600000000000000e+04,-4.000000000000000327e-05,0.000000000000000000e+00,2.000000000000000164e-05,1.000000000000000082e-05,5.000000000000000240e-05,1.000000000000000082e-05,2.000000000000000164e-05,-2.999999999999999737e-05,3.000000000000000000e+00,1.700000000000000000e+01
3.832700000000000000e+04,-4.000000000000000327e-05,0.000000000000000000e+00,2.000000000000000164e-05,1.000000000000000082e-05,5.000000000000000240e-05,1.000000000000000082e-05,2.000000000000000164e-05,-2.999999999999999737e-05,3.000000000000000000e+00,1.700000000000000000e+01
3.832800000000000000e+04,-4.000000000000000327e-05,0.000000000000000000e+00,2.000000000000000164e-05,1.000000000000000082e-05,5.000000000000000240e-05,1.000000000000000082e-05,2.000000000000000164e-05,-2.999999999999999737e-05,3.000000000000000000e+00,1.700000000000000000e+01
3.832900000000000000e+04,-4.000000000000000327e-05,0.000000000000000000e+00,2.000000000000000164e-05,1.000000000000000082e-05,5.000000000000000240e-05,1.000000000000000082e-05,2.000000000000000164e-05,-2.999999999999999737e-05,3.000000000000000000e+00,1.700000000000000000e+01
3.833000000000000000e+04,-4.000000000000000327e-05,0.000000000000000000e+00,2.000000000000000164e-05,1.000000000000000082e-05,5.000000000000000240e-05,1.000000000000000082e-05,2.000000000000000164e-05,-2.999999999999999737e-05,3.000000000000000000e+00,1.700000000000000000e+01
3.833100000000000000e+04,-4.000000000000000327e-05,0.000000000000000000e+00,2.000000000000000164e-05,1.000000000000000082e-05,5.000000000000000240e-05,1.000000000000000082e-05,2.000000000000000164e-05,-2.999999999999999737e-05,3.000000000000000000e+00,1.700000000000000000e+01
3.833200000000000000e+04,-1.100000000000000039e-04,-2.000000000000000164e-05,2.999999999999999737e-05,8.000000000000000654e-05,1.300000000000000157e-04,5.000000000000000240e-05,1.000000000000000082e-05,-5.999999999999999474e-05,3.000000000000000000e+00,1.700000000000000000e+01
3.833300000000000000e+04,-9.000000000000000567e-05,-2.999999999999999737e-05,-1.000000000000000082e-05,-4.000000000000000327e-05,-5.999999999999999474e-05,-9.000000000000000567e-05,-2.000000000000000164e-05,2.999999999999999737e-05,3.000000000000000000e+00,1.700000000000000000e+01
3.833400000000000000e+04,-9.000000000000000567e-05,-2.999999999999999737e-05,-1.000000000000000082e-05,-4.000000000000000327e-05,-5.999999999999999474e-05,-9.000000000000000567e-05,-2.000000000000000164e-05,2.999999999999999737e-05,3.000000000000000000e+00,1.700000000000000000e+01
3.833500000000000000e+04,-9.000000000000000567e-05,-2.999999999999999737e-05,-1.000000000000000082e-05,-4.000000000000000327e-05,-5.999999999999999474e-05,-9.000000000000000567e-05,-2.000000000000000164e-05,2.999999999999999737e-05,3.000000000000000000e+00,1.700000000000000000e+01
3.833800000000000000e+04,-9.000000000000000567e-05,-2.999999999999999737e-05,-1.000000000000000082e-05,-4.000000000000000327e-05,-5.999999999999999474e-05,-9.000000000000000567e-05,-2.000000000000000164e-05,2.999999999999999737e-05,3.000000000000000000e+00,1.700000000000000000e+01
3.834000000000000000e+04,-9.000000000000000567e-05,-2.999999999999999737e-05,-1.000000000000000082e-05,-4.000000000000000327e-05,-5.999999999999999474e-05,-9.000000000000000567e-05,-2.000000000000000164e-05,2.999999999999999737e-05,3.000000000000000000e+00,1.700000000000000000e+01
3.834100000000000000e+04,-9.000000000000000567e-05,-2.999999999999999737e-05,-1.000000000000000082e-05,-4.000000000000000327e-05,-5.999999999999999474e-05,-9.000000000000000567e-05,-2.000000000000000164e-05,2.999999999999999737e-05,3.000000000000000000e+00,1.700000000000000000e+01
3.834200000000000000e+04,-9.000000000000000567e-05,-2.999999999999999737e-05,-1.000000000000000082e-05,-4.000000000000000327e-05,-5.999999999999999474e-05,-9.000000000000000567e-05,-2.000000000000000164e-05,2.999999999999999737e-05,3.000000000000000000e+00,1.700000000000000000e+01
3.834300000000000000e+04,-9.000000000000000567e-05,-2.999999999999999737e-05,-1.000000000000000082e-05,-4.000000000000000327e-05,-5.999999999999999474e-05,-9.000000000000000567e-05,-2.000000000000000164e-05,2.999999999999999737e-05,3.000000000000000000e+00,1.700000000000000000e+01
3.834400000000000000e+04,-9.000000000000000567e-05,-2.999999999999999737e-05,-1.000000000000000082e-05,-4.000000000000000327e-05,-5.999999999999999474e-05,-9.000000000000000567e-05,-2.000000000000000164e-05,2.999999999999999737e-05,3.000000000000000000e+00,1.700000000000000000e+01
3.834500000000000000e+04,4.000000000000000327e-05,-1.000000000000000082e-05,-2.999999999999999737e-05,-5.999999999999999474e-05,-5.000000000000000240e-05,0.000000000000000000e+00,-1.000000000000000082e-05,-1.600000000000000131e-04,3.000000000000000000e+00,1.700000000000000000e+01
3.834600000000000000e+04,-5.999999999999999474e-05,-1.000000000000000082e-05,-2.999999999999999737e-05,-1.000000000000000082e-05,-2.999999999999999737e-05,-2.000000000000000164e-05,0.000000000000000000e+00,1.000000000000000048e-04,3.000000000000000000e+00,1.700000000000000000e+01
3.834700000000000000e+04,-5.999999999999999474e-05,-1.000000000000000082e-05,-2.999999999999999737e-05,-1.000000000000000082e-05,-2.999999999999999737e-05,-2.000000000000000164e-05,0.000000000000000000e+00,1.000000000000000048e-04,3.000000000000000000e+00,1.700000000000000000e+01
3.834800000000000000e+04,-5.999999999999999474e-05,-1.000000000000000082e-05,-2.999999999999999737e-05,-1.000000000000000082e-05,-2.999999999999999737e-05,-2.000000000000000164e-05,0.000000000000000000e+00,1.000000000000000048e-04,3.000000000000000000e+00,1.700000000000000000e+01
3.834900000000000000e+04,-5.999999999999999474e-05,-1.000000000000000082e-05,-2.999999999999999737e-05,-1.000000000000000082e-05,-2.999999999999999737e-05,-2.000000000000000164e-05,0.000000000000000000e+00,1.000000000000000048e-04,3.000000000000000000e+00,1.700000000000000000e+01
3.835000000000000000e+04,-5.999999999999999474e-05,-1.000000000000000082e-05,-2.999999999999999737e-05,-1.000000000000000082e-05,-2.999999999999999737e-05,-2.000000000000000164e-05,0.000000000000000000e+00,1.000000000000000048e-04,3.000000000000000000e+00,1.700000000000000000e+01
3.835100000000000000e+04,-5.999999999999999474e-05,-1.000000000000000082e-05,-2.999999999999999737e-05,-1.000000000000000082e-05,-2.999999999999999737e-05,-2.000000000000000164e-05,0.000000000000000000e+00,1.000000000000000048e-04,3.000000000000000000e+00,1.700000000000000000e+01
3.835200000000000000e+04,-5.999999999999999474e-05,-1.000000000000000082e-05,-2.999999999999999737e-05,-1.000000000000000082e-05,-2.999999999999999737e-05,-2.000000000000000164e-05,0.000000000000000000e+00,1.000000000000000048e-04,3.000000000000000000e+00,1.700000000000000000e+01
3.835300000000000000e+04,-5.999999999999999474e-05,-1.000000000000000082e-05,-2.999999999999999737e-05,-1.000000000000000082e-05,-2.999999999999999737e-05,-2.000000000000000164e-05,0.000000000000000000e+00,1.000000000000000048e-04,3.000000000000000000e+00,1.700000000000000000e+01
3.835400000000000000e+04,-5.999999999999999474e-05,-1.000000000000000082e-05,-2.999999999999999737e-05,-1.000000000000000082e-05,-2.999999999999999737e-05,-2.000000000000000164e-05,0.000000000000000000e+00,1.000000000000000048e-04,3.000000000000000000e+00,1.700000000000000000e+01
3.835500000000000000e+04,4.000000000000000327e-05,-1.000000000000000082e-05,-2.999999999999999737e-05,2.000000000000000164e-05,-2.999999999999999737e-05,0.000000000000000000e+00,-2.000000000000000164e-05,1.199999999999999895e-04,3.000000000000000000e+00,1.700000000000000000e+01
3.835600000000000000e+04,4.000000000000000327e-05,-1.000000000000000082e-05,-2.999999999999999737e-05,2.000000000000000164e-05,-2.999999999999999737e-05,0.000000000000000000e+00,-2.000000000000000164e-05,1.199999999999999895e-04,3.000000000000000000e+00,1.700000000000000000e+01
3.835700000000000000e+04,4.000000000000000327e-05,-1.000000000000000082e-05,-2.999999999999999737e-05,2.000000000000000164e-05,-2.999999999999999737e-05,0.000000000000000000e+00,-2.000000000000000164e-05,1.199999999999999895e-04,3.000000000000000000e+00,1.700000000000000000e+01
3.835800000000000000e+04,4.000000000000000327e-05,-1.000000000000000082e-05,-2.999999999999999737e-05,2.000000000000000164e-05,-2.999999999999999737e-05,0.000000000000000000e+00,-2.000000000000000164e-05,1.199999999999999895e-04,3.000000000000000000e+00,1.700000000000000000e+01
3.835900000000000000e+04,4.000000000000000327e-05,-1.000000000000000082e-05,-2.999999999999999737e-05,2.000000000000000164e-05,-2.999999999999999737e-05,0.000000000000000000e+00,-2.000000000000000164e-05,1.199999999999999895e-04,3.000000000000000000e+00,1.700000000000000000e+01
3.836000000000000000e+04,4.000000000000000327e-05,-1.000000000000000082e-05,-2.999999999999999737e-05,2.000000000000000164e-05,-2.999999999999999737e-05,0.000000000000000000e+00,-2.000000000000000164e-05,1.199999999999999895e-04,3.000000000000000000e+00,1.700000000000000000e+01
3.836100000000000000e+04,4.000000000000000327e-05,-1.000000000000000082e-05,-2.999999999999999737e-05,2.000000000000000164e-05,-2.999999999999999737e-05,0.000000000000000000e+00,-2.000000000000000164e-05,1.199999999999999895e-04,3.000000000000000000e+00,1.700000000000000000e+01
3.836200000000000000e+04,4.000000000000000327e-05,-1.000000000000000082e-05,-2.999999999999999737e-05,2.000000000000000164e-05,-2.999999999999999737e-05,0.000000000000000000e+00,-2.000000000000000164e-05,1.199999999999999895e-04,3.000000000000000000e+00,1.700000000000000000e+01
3.836300000000000000e+04,4.000000000000000327e-05,-1.000000000000000082e-05,-2.999999999999999737e-05,2.000000000000000164e-05,-2.999999999999999737e-05,0.000000000000000000e+00,-2.000000000000000164e-05,1.199999999999999895e-04,3.000000000000000000e+00,1.700000000000000000e+01
3.836400000000000000e+04,4.000000000000000327e-05,-1.000000000000000082e-05,-2.999999999999999737e-05,2.000000000000000164e-05,-2.999999999999999737e-05,0.000000000000000000e+00,-2.000000000000000164e-05,1.199999999999999895e-04,3.000000000000000000e+00,1.700000000000000000e+01
3.836500000000000000e+04,4.000000000000000327e-05,-1.000000000000000082e-05,-2.999999999999999737e-05,2.000000000000000164e-05,-2.999999999999999737e-05,0.000000000000000000e+00,-2.000000000000000164e-05,1.199999999999999895e-04,3.000000000000000000e+00,1.700000000000000000e+01
3.836600000000000000e+04,4.000000000000000327e-05,-1.000000000000000082e-05,-2.999999999999999737e-05,2.000000000000000164e-05,-2.999999999999999737e-05,0.000000000000000000e+00,-2.000000000000000164e-05,1.199999999999999895e-04,3.000000000000000000e+00,1.700000000000000000e+01
3.836700000000000000e+04,4.000000000000000327e-05,-1.000000000000000082e-05,-2.999999999999999737e-05,2.000000000000000164e-05,-2.999999999999999737e-05,0.000000000000000000e+00,-2.000000000000000164e-05,1.199999999999999895e-04,3.000000000000000000e+00,1.700000000000000000e+01
3.836800000000000000e+04,4.000000000000000327e-05,-1.000000000000000082e-05,-2.999999999999999737e-05,2.000000000000000164e-05,-2.999999999999999737e-05,0.000000000000000000e+00,-2.000000000000000164e-05,1.199999999999999895e-04,3.000000000000000000e+00,1.700000000000000000e+01
3.836900000000000000e+04,2.999999999999999737e-05,2.000000000000000164e-05,-2.999999999999999737e-05,-6.999999999999999387e-05,-1.399999999999999877e-04,-5.999999999999999474e-05,-2.000000000000000164e-05,-2.999999999999999737e-05,3.000000000000000000e+00,1.700000000000000000e+01
3.837000000000000000e+04,2.999999999999999737e-05,2.000000000000000164e-05,-2.999999999999999737e-05,-6.999999999999999387e-05,-1.399999999999999877e-04,-5.999999999999999474e-05,-2.000000000000000164e-05,-2.999999999999999737e-05,3.000000000000000000e+00,1.700000000000000000e+01
3.837100000000000000e+04,-1.399999999999999877e-04,-5.999999999999999474e-05,-6.999999999999999387e-05,-1.000000000000000082e-05,-2.000000000000000164e-05,-6.999999999999999387e-05,-1.000000000000000048e-04,0.000000000000000000e+00,3.000000000000000000e+00,1.700000000000000000e+01
3.837200000000000000e+04,-1.399999999999999877e-04,-5.999999999999999474e-05,-6.999999999999999387e-05,-1.000000000000000082e-05,-2.000000000000000164e-05,-6.999999999999999387e-05,-1.000000000000000048e-04,0.000000000000000000e+00,3.000000000000000000e+00,1.700000000000000000e+01
3.837300000000000000e+04,-1.399999999999999877e-04,-5.999999999999999474e-05,-6.999999999999999387e-05,-1.000000000000000082e-05,-2.000000000000000164e-05,-6.999999999999999387e-05,-1.000000000000000048e-04,0.000000000000000000e+00,3.000000000000000000e+00,1.700000000000000000e+01
3.837400000000000000e+04,-1.399999999999999877e-04,-5.999999999999999474e-05,-6.999999999999999387e-05,-1.000000000000000082e-05,-2.000000000000000164e-05,-6.999999999999999387e-05,-1.000000000000000048e-04,0.000000000000000000e+00,3.000000000000000000e+00,1.700000000000000000e+01
3.837500000000000000e+04,-1.399999999999999877e-04,-5.999999999999999474e-05,-6.999999999999999387e-05,-1.000000000000000082e-05,-2.000000000000000164e-05,-6.999999999999999387e-05,-1.000000000000000048e-04,0.000000000000000000e+00,3.000000000000000000e+00,1.700000000000000000e+01
3.837600000000000000e+04,-1.399999999999999877e-04,-5.999999999999999474e-05,-6.999999999999999387e-05,-1.000000000000000082e-05,-2.000000000000000164e-05,-6.999999999999999387e-05,-1.000000000000000048e-04,0.000000000000000000e+00,3.000000000000000000e+00,1.700000000000000000e+01
3.837700000000000000e+04,-1.399999999999999877e-04,-5.999999999999999474e-05,-6.999999999999999387e-05,-1.000000000000000082e-05,-2.000000000000000164e-05,-6.999999999999999387e-05,-1.000000000000000048e-04,0.000000000000000000e+00,3.000000000000000000e+00,1.700000000000000000e+01
3.837800000000000000e+04,-1.399999999999999877e-04,-5.999999999999999474e-05,-6.999999999999999387e-05,-1.000000000000000082e-05,-2.000000000000000164e-05,-6.999999999999999387e-05,-1.000000000000000048e-04,0.000000000000000000e+00,3.000000000000000000e+00,1.700000000000000000e+01
3.837900000000000000e+04,-1.399999999999999877e-04,-5.999999999999999474e-05,-6.999999999999999387e-05,-1.000000000000000082e-05,-2.000000000000000164e-05,-6.999999999999999387e-05,-1.000000000000000048e-04,0.000000000000000000e+00,3.000000000000000000e+00,1.700000000000000000e+01
3.838000000000000000e+04,-1.399999999999999877e-04,-5.999999999999999474e-05,-6.999999999999999387e-05,-1.000000000000000082e-05,-2.000000000000000164e-05,-6.999999999999999387e-05,-1.000000000000000048e-04,0.000000000000000000e+00,3.000000000000000000e+00,1.700000000000000000e+01
3.838100000000000000e+04,-1.399999999999999877e-04,-5.999999999999999474e-05,-6.999999999999999387e-05,-1.000000000000000082e-05,-2.000000000000000164e-05,-6.999999999999999387e-05,-1.000000000000000048e-04,0.000000000000000000e+00,3.000000000000000000e+00,1.700000000000000000e+01
3.838200000000000000e+04,-1.399999999999999877e-04,-5.999999999999999474e-05,-6.999999999999999387e-05,-1.000000000000000082e-05,-2.000000000000000164e-05,-6.999999999999999387e-05,-1.000000000000000048e-04,0.000000000000000000e+00,3.000000000000000000e+00,1.700000000000000000e+01
3.838400000000000000e+04,-1.399999999999999877e-04,-5.999999999999999474e-05,-6.999999999999999387e-05,-1.000000000000000082e-05,-2.000000000000000164e-05,-6.999999999999999387e-05,-1.000000000000000048e-04,0.000000000000000000e+00,3.000000000000000000e+00,1.700000000000000000e+01
3.838500000000000000e+04,-1.399999999999999877e-04,-5.999999999999999474e-05,-6.999999999999999387e-05,-1.000000000000000082e-05,-2.000000000000000164e-05,-6.999999999999999387e-05,-1.000000000000000048e-04,0.000000000000000000e+00,3.000000000000000000e+00,1.700000000000000000e+01
3.838600000000000000e+04,-1.399999999999999877e-04,-5.999999999999999474e-05,-6.999999999999999387e-05,-1.000000000000000082e-05,-2.000000000000000164e-05,-6.999999999999999387e-05,-1.000000000000000048e-04,0.000000000000000000e+00,3.000000000000000000e+00,1.700000000000000000e+01
3.838800000000000000e+04,-1.399999999999999877e-04,-5.999999999999999474e-05,-6.999999999999999387e-05,-1.000000000000000082e-05,-2.000000000000000164e-05,-6.999999999999999387e-05,-1.000000000000000048e-04,0.000000000000000000e+00,3.000000000000000000e+00,1.700000000000000000e+01
3.838900000000000000e+04,-1.399999999999999877e-04,-5.999999999999999474e-05,-6.999999999999999387e-05,-1.000000000000000082e-05,-2.000000000000000164e-05,-6.999999999999999387e-05,-1.000000000000000048e-04,0.000000000000000000e+00,3.000000000000000000e+00,1.700000000000000000e+01
3.839000000000000000e+04,-1.399999999999999877e-04,-5.999999999999999474e-05,-6.999999999999999387e-05,-1.000000000000000082e-05,-2.000000000000000164e-05,-6.999999999999999387e-05,-1.000000000000000048e-04,0.000000000000000000e+00,3.000000000000000000e+00,1.700000000000000000e+01
3.839100000000000000e+04,-1.399999999999999877e-04,-5.999999999999999474e-05,-6.999999999999999387e-05,-1.000000000000000082e-05,-2.000000000000000164e-05,-6.999999999999999387e-05,-1.000000000000000048e-04,0.000000000000000000e+00,3.000000000000000000e+00,1.700000000000000000e+01
3.839200000000000000e+04,2.999999999999999737e-05,-1.000000000000000082e-05,-2.000000000000000164e-05,-1.000000000000000082e-05,-5.999999999999999474e-05,-2.000000000000000164e-05,0.000000000000000000e+00,-2.999999999999999737e-05,3.000000000000000000e+00,1.700000000000000000e+01
3.839300000000000000e+04,1.300000000000000157e-04,2.000000000000000164e-05,2.000000000000000164e-05,2.000000000000000164e-05,4.000000000000000327e-05,0.000000000000000000e+00,1.000000000000000082e-05,6.999999999999999387e-05,3.000000000000000000e+00,1.700000000000000000e+01
3.839400000000000000e+04,1.300000000000000157e-04,2.000000000000000164e-05,2.000000000000000164e-05,2.000000000000000164e-05,4.000000000000000327e-05,0.000000000000000000e+00,1.000000000000000082e-05,6.999999999999999387e-05,3.000000000000000000e+00,1.700000000000000000e+01
3.839500000000000000e+04,1.300000000000000157e-04,2.000000000000000164e-05,2.000000000000000164e-05,2.000000000000000164e-05,4.000000000000000327e-05,0.000000000000000000e+00,1.000000000000000082e-05,6.999999999999999387e-05,3.000000000000000000e+00,1.700000000000000000e+01
3.839600000000000000e+04,1.300000000000000157e-04,2.000000000000000164e-05,2.000000000000000164e-05,2.000000000000000164e-05,4.000000000000000327e-05,0.000000000000000000e+00,1.000000000000000082e-05,6.999999999999999387e-05,3.000000000000000000e+00,1.700000000000000000e+01
3.839700000000000000e+04,1.300000000000000157e-04,2.000000000000000164e-05,2.000000000000000164e-05,2.000000000000000164e-05,4.000000000000000327e-05,0.000000000000000000e+00,1.000000000000000082e-05,6.999999999999999387e-05,3.000000000000000000e+00,1.700000000000000000e+01
3.839800000000000000e+04,1.300000000000000157e-04,2.000000000000000164e-05,2.000000000000000164e-05,2.000000000000000164e-05,4.000000000000000327e-05,0.000000000000000000e+00,1.000000000000000082e-05,6.999999999999999387e-05,3.000000000000000000e+00,1.700000000000000000e+01
3.839900000000000000e+04,1.300000000000000157e-04,2.000000000000000164e-05,2.000000000000000164e-05,2.000000000000000164e-05,4.000000000000000327e-05,0.000000000000000000e+00,1.000000000000000082e-05,6.999999999999999387e-05,3.000000000000000000e+00,1.700000000000000000e+01
3.840000000000000000e+04,1.300000000000000157e-04,2.000000000000000164e-05,2.000000000000000164e-05,2.000000000000000164e-05,4.000000000000000327e-05,0.000000000000000000e+00,1.000000000000000082e-05,6.999999999999999387e-05,3.000000000000000000e+00,1.700000000000000000e+01
3.840100000000000000e+04,1.300000000000000157e-04,2.000000000000000164e-05,2.000000000000000164e-05,2.000000000000000164e-05,4.000000000000000327e-05,0.000000000000000000e+00,1.000000000000000082e-05,6.999999999999999387e-05,3.000000000000000000e+00,1.700000000000000000e+01
3.840200000000000000e+04,1.300000000000000157e-04,2.000000000000000164e-05,2.000000000000000164e-05,2.000000000000000164e-05,4.000000000000000327e-05,0.000000000000000000e+00,1.000000000000000082e-05,6.999999999999999387e-05,3.000000000000000000e+00,1.700000000000000000e+01
3.840300000000000000e+04,1.300000000000000157e-04,2.000000000000000164e-05,2.000000000000000164e-05,2.000000000000000164e-05,4.000000000000000327e-05,0.000000000000000000e+00,1.000000000000000082e-05,6.999999999999999387e-05,3.000000000000000000e+00,1.700000000000000000e+01
3.840400000000000000e+04,1.300000000000000157e-04,2.000000000000000164e-05,2.000000000000000164e-05,2.000000000000000164e-05,4.000000000000000327e-05,0.000000000000000000e+00,1.000000000000000082e-05,6.999999999999999387e-05,3.000000000000000000e+00,1.700000000000000000e+01
3.840500000000000000e+04,0.000000000000000000e+00,1.000000000000000082e-05,1.000000000000000082e-05,4.000000000000000327e-05,-1.000000000000000082e-05,5.999999999999999474e-05,1.000000000000000082e-05,2.000000000000000164e-05,3.000000000000000000e+00,1.700000000000000000e+01
3.840700000000000000e+04,0.000000000000000000e+00,1.000000000000000082e-05,1.000000000000000082e-05,4.000000000000000327e-05,-1.000000000000000082e-05,5.999999999999999474e-05,1.000000000000000082e-05,2.000000000000000164e-05,3.000000000000000000e+00,1.700000000000000000e+01
3.840800000000000000e+04,0.000000000000000000e+00,1.000000000000000082e-05,1.000000000000000082e-05,4.000000000000000327e-05,-1.000000000000000082e-05,5.999999999999999474e-05,1.000000000000000082e-05,2.000000000000000164e-05,3.000000000000000000e+00,1.700000000000000000e+01
3.840900000000000000e+04,0.000000000000000000e+00,1.000000000000000082e-05,1.000000000000000082e-05,4.000000000000000327e-05,-1.000000000000000082e-05,5.999999999999999474e-05,1.000000000000000082e-05,2.000000000000000164e-05,3.000000000000000000e+00,1.700000000000000000e+01
3.841000000000000000e+04,0.000000000000000000e+00,1.000000000000000082e-05,1.000000000000000082e-05,4.000000000000000327e-05,-1.000000000000000082e-05,5.999999999999999474e-05,1.000000000000000082e-05,2.000000000000000164e-05,3.000000000000000000e+00,1.700000000000000000e+01
3.841100000000000000e+04,0.000000000000000000e+00,1.000000000000000082e-05,1.000000000000000082e-05,4.000000000000000327e-05,-1.000000000000000082e-05,5.999999999999999474e-05,1.000000000000000082e-05,2.000000000000000164e-05,3.000000000000000000e+00,1.700000000000000000e+01
3.841200000000000000e+04,0.000000000000000000e+00,1.000000000000000082e-05,1.000000000000000082e-05,4.000000000000000327e-05,-1.000000000000000082e-05,5.999999999999999474e-05,1.000000000000000082e-05,2.000000000000000164e-05,3.000000000000000000e+00,1.700000000000000000e+01
3.841300000000000000e+04,0.000000000000000000e+00,1.000000000000000082e-05,1.000000000000000082e-05,4.000000000000000327e-05,-1.000000000000000082e-05,5.999999999999999474e-05,1.000000000000000082e-05,2.000000000000000164e-05,3.000000000000000000e+00,1.700000000000000000e+01
3.841400000000000000e+04,0.000000000000000000e+00,1.000000000000000082e-05,1.000000000000000082e-05,4.000000000000000327e-05,-1.000000000000000082e-05,5.999999999999999474e-05,1.000000000000000082e-05,2.000000000000000164e-05,3.000000000000000000e+00,1.700000000000000000e+01
3.841500000000000000e+04,0.000000000000000000e+00,1.000000000000000082e-05,1.000000000000000082e-05,4.000000000000000327e-05,-1.000000000000000082e-05,5.999999999999999474e-05,1.000000000000000082e-05,2.000000000000000164e-05,3.000000000000000000e+00,1.700000000000000000e+01
3.841600000000000000e+04,0.000000000000000000e+00,1.000000000000000082e-05,1.000000000000000082e-05,4.000000000000000327e-05,-1.000000000000000082e-05,5.999999999999999474e-05,1.000000000000000082e-05,2.000000000000000164e-05,3.000000000000000000e+00,1.700000000000000000e+01
3.841700000000000000e+04,0.000000000000000000e+00,1.000000000000000082e-05,1.000000000000000082e-05,4.000000000000000327e-05,-1.000000000000000082e-05,5.999999999999999474e-05,1.000000000000000082e-05,2.000000000000000164e-05,3.000000000000000000e+00,1.700000000000000000e+01
3.841800000000000000e+04,0.000000000000000000e+00,1.000000000000000082e-05,1.000000000000000082e-05,4.000000000000000327e-05,-1.000000000000000082e-05,5.999999999999999474e-05,1.000000000000000082e-05,2.000000000000000164e-05,3.000000000000000000e+00,1.700000000000000000e+01
3.841900000000000000e+04,0.000000000000000000e+00,1.000000000000000082e-05,1.000000000000000082e-05,4.000000000000000327e-05,-1.000000000000000082e-05,5.999999999999999474e-05,1.000000000000000082e-05,2.000000000000000164e-05,3.000000000000000000e+00,1.700000000000000000e+01
3.842000000000000000e+04,0.000000000000000000e+00,1.000000000000000082e-05,1.000000000000000082e-05,4.000000000000000327e-05,-1.000000000000000082e-05,5.999999999999999474e-05,1.000000000000000082e-05,2.000000000000000164e-05,3.000000000000000000e+00,1.700000000000000000e+01
3.842100000000000000e+04,0.000000000000000000e+00,1.000000000000000082e-05,1.000000000000000082e-05,4.000000000000000327e-05,-1.000000000000000082e-05,5.999999999999999474e-05,1.000000000000000082e-05,2.000000000000000164e-05,3.000000000000000000e+00,1.700000000000000000e+01
3.842200000000000000e+04,-1.600000000000000131e-04,-2.000000000000000164e-05,-2.999999999999999737e-05,2.999999999999999737e-05,2.000000000000000164e-05,0.000000000000000000e+00,-2.000000000000000164e-05,-1.300000000000000157e-04,3.000000000000000000e+00,1.700000000000000000e+01
3.842300000000000000e+04,-1.600000000000000131e-04,-2.000000000000000164e-05,-2.999999999999999737e-05,2.999999999999999737e-05,2.000000000000000164e-05,0.000000000000000000e+00,-2.000000000000000164e-05,-1.300000000000000157e-04,3.000000000000000000e+00,1.700000000000000000e+01
3.842400000000000000e+04,-1.600000000000000131e-04,-2.000000000000000164e-05,-2.999999999999999737e-05,2.999999999999999737e-05,2.000000000000000164e-05,0.000000000000000000e+00,-2.000000000000000164e-05,-1.300000000000000157e-04,3.000000000000000000e+00,1.700000000000000000e+01
3.842500000000000000e+04,-1.600000000000000131e-04,-2.000000000000000164e-05,-2.999999999999999737e-05,2.999999999999999737e-05,2.000000000000000164e-05,0.000000000000000000e+00,-2.000000000000000164e-05,-1.300000000000000157e-04,3.000000000000000000e+00,1.700000000000000000e+01
3.842600000000000000e+04,-1.600000000000000131e-04,-2.000000000000000164e-05,-2.999999999999999737e-05,2.999999999999999737e-05,2.000000000000000164e-05,0.000000000000000000e+00,-2.000000000000000164e-05,-1.300000000000000157e-04,3.000000000000000000e+00,1.700000000000000000e+01
3.842700000000000000e+04,-1.600000000000000131e-04,-2.000000000000000164e-05,-2.999999999999999737e-05,2.999999999999999737e-05,2.000000000000000164e-05,0.000000000000000000e+00,-2.000000000000000164e-05,-1.300000000000000157e-04,3.000000000000000000e+00,1.700000000000000000e+01
3.842800000000000000e+04,-1.600000000000000131e-04,-2.000000000000000164e-05,-2.999999999999999737e-05,2.999999999999999737e-05,2.000000000000000164e-05,0.000000000000000000e+00,-2.000000000000000164e-05,-1.300000000000000157e-04,3.000000000000000000e+00,1.700000000000000000e+01
3.842900000000000000e+04,-8.000000000000000654e-05,-2.999999999999999737e-05,-2.999999999999999737e-05,2.999999999999999737e-05,0.000000000000000000e+00,2.000000000000000164e-05,0.000000000000000000e+00,-5.999999999999999474e-05,3.000000000000000000e+00,1.700000000000000000e+01
3.843000000000000000e+04,1.499999999999999869e-04,0.000000000000000000e+00,-2.000000000000000164e-05,-6.999999999999999387e-05,-4.000000000000000327e-05,-2.999999999999999737e-05,1.000000000000000082e-05,-2.000000000000000164e-05,3.000000000000000000e+00,1.700000000000000000e+01
3.843100000000000000e+04,4.000000000000000327e-05,-2.999999999999999737e-05,0.000000000000000000e+00,-1.000000000000000082e-05,-5.999999999999999474e-05,4.000000000000000327e-05,0.000000000000000000e+00,-9.000000000000000567e-05,3.000000000000000000e+00,1.700000000000000000e+01
3.843200000000000000e+04,4.000000000000000327e-05,-2.999999999999999737e-05,0.000000000000000000e+00,-1.000000000000000082e-05,-5.999999999999999474e-05,4.000000000000000327e-05,0.000000000000000000e+00,-9.000000000000000567e-05,3.000000000000000000e+00,1.700000000000000000e+01
3.843300000000000000e+04,4.000000000000000327e-05,-2.999999999999999737e-05,0.000000000000000000e+00,-1.000000000000000082e-05,-5.999999999999999474e-05,4.000000000000000327e-05,0.000000000000000000e+00,-9.000000000000000567e-05,3.000000000000000000e+00,1.700000000000000000e+01
3.843400000000000000e+04,4.000000000000000327e-05,-2.999999999999999737e-05,0.000000000000000000e+00,-1.000000000000000082e-05,-5.999999999999999474e-05,4.000000000000000327e-05,0.000000000000000000e+00,-9.000000000000000567e-05,3.000000000000000000e+00,1.700000000000000000e+01
3.843500000000000000e+04,4.000000000000000327e-05,-2.999999999999999737e-05,0.000000000000000000e+00,-1.000000000000000082e-05,-5.999999999999999474e-05,4.000000000000000327e-05,0.000000000000000000e+00,-9.000000000000000567e-05,3.000000000000000000e+00,1.700000000000000000e+01
3.843600000000000000e+04,4.000000000000000327e-05,-2.999999999999999737e-05,0.000000000000000000e+00,-1.000000000000000082e-05,-5.999999999999999474e-05,4.000000000000000327e-05,0.000000000000000000e+00,-9.000000000000000567e-05,3.000000000000000000e+00,1.700000000000000000e+01
3.843900000000000000e+04,4.000000000000000327e-05,-2.999999999999999737e-05,0.000000000000000000e+00,-1.000000000000000082e-05,-5.999999999999999474e-05,4.000000000000000327e-05,0.000000000000000000e+00,-9.000000000000000567e-05,3.000000000000000000e+00,1.700000000000000000e+01
3.844000000000000000e+04,4.000000000000000327e-05,-2.999999999999999737e-05,0.000000000000000000e+00,-1.000000000000000082e-05,-5.999999999999999474e-05,4.000000000000000327e-05,0.000000000000000000e+00,-9.000000000000000567e-05,3.000000000000000000e+00,1.700000000000000000e+01
3.844100000000000000e+04,4.000000000000000327e-05,-2.999999999999999737e-05,0.000000000000000000e+00,-1.000000000000000082e-05,-5.999999999999999474e-05,4.000000000000000327e-05,0.000000000000000000e+00,-9.000000000000000567e-05,3.000000000000000000e+00,1.700000000000000000e+01
3.844200000000000000e+04,4.000000000000000327e-05,-2.999999999999999737e-05,0.000000000000000000e+00,-1.000000000000000082e-05,-5.999999999999999474e-05,4.000000000000000327e-05,0.000000000000000000e+00,-9.000000000000000567e-05,3.000000000000000000e+00,1.700000000000000000e+01
3.844300000000000000e+04,4.000000000000000327e-05,-2.999999999999999737e-05,0.000000000000000000e+00,-1.000000000000000082e-05,-5.999999999999999474e-05,4.000000000000000327e-05,0.000000000000000000e+00,-9.000000000000000567e-05,3.000000000000000000e+00,1.700000000000000000e+01
3.844400000000000000e+04,4.000000000000000327e-05,-2.999999999999999737e-05,0.000000000000000000e+00,-1.000000000000000082e-05,-5.999999999999999474e-05,4.000000000000000327e-05,0.000000000000000000e+00,-9.000000000000000567e-05,3.000000000000000000e+00,1.700000000000000000e+01
3.844500000000000000e+04,4.000000000000000327e-05,-2.999999999999999737e-05,0.000000000000000000e+00,-1.000000000000000082e-05,-5.999999999999999474e-05,4.000000000000000327e-05,0.000000000000000000e+00,-9.000000000000000567e-05,3.000000000000000000e+00,1.700000000000000000e+01
3.844600000000000000e+04,4.000000000000000327e-05,-2.999999999999999737e-05,0.000000000000000000e+00,-1.000000000000000082e-05,-5.999999999999999474e-05,4.000000000000000327e-05,0.000000000000000000e+00,-9.000000000000000567e-05,3.000000000000000000e+00,1.700000000000000000e+01
3.844700000000000000e+04,4.000000000000000327e-05,-2.999999999999999737e-05,0.000000000000000000e+00,-1.000000000000000082e-05,-5.999999999999999474e-05,4.000000000000000327e-05,0.000000000000000000e+00,-9.000000000000000567e-05,3.000000000000000000e+00,1.700000000000000000e+01
3.844800000000000000e+04,4.000000000000000327e-05,-2.999999999999999737e-05,0.000000000000000000e+00,-1.000000000000000082e-05,-5.999999999999999474e-05,4.000000000000000327e-05,0.000000000000000000e+00,-9.000000000000000567e-05,3.000000000000000000e+00,1.700000000000000000e+01
3.844900000000000000e+04,4.000000000000000327e-05,-2.999999999999999737e-05,0.000000000000000000e+00,-1.000000000000000082e-05,-5.999999999999999474e-05,4.000000000000000327e-05,0.000000000000000000e+00,-9.000000000000000567e-05,3.000000000000000000e+00,1.700000000000000000e+01
3.845000000000000000e+04,4.000000000000000327e-05,-2.999999999999999737e-05,0.000000000000000000e+00,-1.000000000000000082e-05,-5.999999999999999474e-05,4.000000000000000327e-05,0.000000000000000000e+00,-9.000000000000000567e-05,3.000000000000000000e+00,1.700000000000000000e+01
3.845100000000000000e+04,4.000000000000000327e-05,-2.999999999999999737e-05,0.000000000000000000e+00,-1.000000000000000082e-05,-5.999999999999999474e-05,4.000000000000000327e-05,0.000000000000000000e+00,-9.000000000000000567e-05,3.000000000000000000e+00,1.700000000000000000e+01
3.845200000000000000e+04,-5.000000000000000240e-05,-2.000000000000000164e-05,-1.000000000000000082e-05,2.000000000000000164e-05,1.399999999999999877e-04,5.999999999999999474e-05,1.000000000000000082e-05,-2.000000000000000164e-05,3.000000000000000000e+00,1.700000000000000000e+01
3.845300000000000000e+04,-5.000000000000000240e-05,-2.000000000000000164e-05,-1.000000000000000082e-05,2.000000000000000164e-05,1.399999999999999877e-04,5.999999999999999474e-05,1.000000000000000082e-05,-2.000000000000000164e-05,3.000000000000000000e+00,1.700000000000000000e+01
3.845400000000000000e+04,0.000000000000000000e+00,-1.000000000000000082e-05,0.000000000000000000e+00,-5.999999999999999474e-05,-1.100000000000000039e-04,-6.999999999999999387e-05,-2.999999999999999737e-05,-2.000000000000000164e-05,3.000000000000000000e+00,1.700000000000000000e+01
3.845500000000000000e+04,0.000000000000000000e+00,-1.000000000000000082e-05,0.000000000000000000e+00,-5.999999999999999474e-05,-1.100000000000000039e-04,-6.999999999999999387e-05,-2.999999999999999737e-05,-2.000000000000000164e-05,3.000000000000000000e+00,1.700000000000000000e+01
3.845600000000000000e+04,0.000000000000000000e+00,-1.000000000000000082e-05,0.000000000000000000e+00,-5.999999999999999474e-05,-1.100000000000000039e-04,-6.999999999999999387e-05,-2.999999999999999737e-05,-2.000000000000000164e-05,3.000000000000000000e+00,1.700000000000000000e+01
3.845700000000000000e+04,0.000000000000000000e+00,-1.000000000000000082e-05,0.000000000000000000e+00,-5.999999999999999474e-05,-1.100000000000000039e-04,-6.999999999999999387e-05,-2.999999999999999737e-05,-2.000000000000000164e-05,3.000000000000000000e+00,1.700000000000000000e+01
3.845800000000000000e+04,0.000000000000000000e+00,-1.000000000000000082e-05,0.000000000000000000e+00,-5.999999999999999474e-05,-1.100000000000000039e-04,-6.999999999999999387e-05,-2.999999999999999737e-05,-2.000000000000000164e-05,3.000000000000000000e+00,1.700000000000000000e+01
3.845900000000000000e+04,0.000000000000000000e+00,-1.000000000000000082e-05,0.000000000000000000e+00,-5.999999999999999474e-05,-1.100000000000000039e-04,-6.999999999999999387e-05,-2.999999999999999737e-05,-2.000000000000000164e-05,3.000000000000000000e+00,1.700000000000000000e+01
3.846000000000000000e+04,0.000000000000000000e+00,-1.000000000000000082e-05,0.000000000000000000e+00,-5.999999999999999474e-05,-1.100000000000000039e-04,-6.999999999999999387e-05,-2.999999999999999737e-05,-2.000000000000000164e-05,3.000000000000000000e+00,1.700000000000000000e+01
3.846100000000000000e+04,0.000000000000000000e+00,-1.000000000000000082e-05,0.000000000000000000e+00,-5.999999999999999474e-05,-1.100000000000000039e-04,-6.999999999999999387e-05,-2.999999999999999737e-05,-2.000000000000000164e-05,3.000000000000000000e+00,1.700000000000000000e+01
3.846200000000000000e+04,0.000000000000000000e+00,-1.000000000000000082e-05,0.000000000000000000e+00,-5.999999999999999474e-05,-1.100000000000000039e-04,-6.999999999999999387e-05,-2.999999999999999737e-05,-2.000000000000000164e-05,3.000000000000000000e+00,1.700000000000000000e+01
3.846300000000000000e+04,0.000000000000000000e+00,-1.000000000000000082e-05,0.000000000000000000e+00,-5.999999999999999474e-05,-1.100000000000000039e-04,-6.999999999999999387e-05,-2.999999999999999737e-05,-2.000000000000000164e-05,3.000000000000000000e+00,1.700000000000000000e+01
3.846400000000000000e+04,0.000000000000000000e+00,-1.000000000000000082e-05,0.000000000000000000e+00,-5.999999999999999474e-05,-1.100000000000000039e-04,-6.999999999999999387e-05,-2.999999999999999737e-05,-2.000000000000000164e-05,3.000000000000000000e+00,1.700000000000000000e+01
3.846500000000000000e+04,-5.999999999999999474e-05,-1.000000000000000082e-05,-1.000000000000000082e-05,-2.000000000000000164e-05,-4.000000000000000327e-05,4.000000000000000327e-05,1.000000000000000082e-05,1.000000000000000048e-04,3.000000000000000000e+00,1.700000000000000000e+01
3.846700000000000000e+04,-5.999999999999999474e-05,-1.000000000000000082e-05,-1.000000000000000082e-05,-2.000000000000000164e-05,-4.000000000000000327e-05,4.000000000000000327e-05,1.000000000000000082e-05,1.000000000000000048e-04,3.000000000000000000e+00,1.700000000000000000e+01
3.846800000000000000e+04,-5.999999999999999474e-05,-1.000000000000000082e-05,-1.000000000000000082e-05,-2.000000000000000164e-05,-4.000000000000000327e-05,4.000000000000000327e-05,1.000000000000000082e-05,1.000000000000000048e-04,3.000000000000000000e+00,1.700000000000000000e+01
3.846900000000000000e+04,-5.999999999999999474e-05,-1.000000000000000082e-05,-1.000000000000000082e-05,-2.000000000000000164e-05,-4.000000000000000327e-05,4.000000000000000327e-05,1.000000000000000082e-05,1.000000000000000048e-04,3.000000000000000000e+00,1.700000000000000000e+01
3.847000000000000000e+04,-5.999999999999999474e-05,-1.000000000000000082e-05,-1.000000000000000082e-05,-2.000000000000000164e-05,-4.000000000000000327e-05,4.000000000000000327e-05,1.000000000000000082e-05,1.000000000000000048e-04,3.000000000000000000e+00,1.700000000000000000e+01
3.847100000000000000e+04,-5.999999999999999474e-05,-1.000000000000000082e-05,-1.000000000000000082e-05,-2.000000000000000164e-05,-4.000000000000000327e-05,4.000000000000000327e-05,1.000000000000000082e-05,1.000000000000000048e-04,3.000000000000000000e+00,1.700000000000000000e+01
3.847200000000000000e+04,-5.999999999999999474e-05,-1.000000000000000082e-05,-1.000000000000000082e-05,-2.000000000000000164e-05,-4.000000000000000327e-05,4.000000000000000327e-05,1.000000000000000082e-05,1.000000000000000048e-04,3.000000000000000000e+00,1.700000000000000000e+01
3.847300000000000000e+04,-5.999999999999999474e-05,-1.000000000000000082e-05,-1.000000000000000082e-05,-2.000000000000000164e-05,-4.000000000000000327e-05,4.000000000000000327e-05,1.000000000000000082e-05,1.000000000000000048e-04,3.000000000000000000e+00,1.700000000000000000e+01
3.847400000000000000e+04,-6.999999999999999387e-05,-2.999999999999999737e-05,-2.000000000000000164e-05,-2.000000000000000164e-05,-4.000000000000000327e-05,2.999999999999999737e-05,-1.000000000000000082e-05,1.000000000000000048e-04,3.000000000000000000e+00,1.700000000000000000e+01
3.847600000000000000e+04,-6.999999999999999387e-05,-2.999999999999999737e-05,-2.000000000000000164e-05,-2.000000000000000164e-05,-4.000000000000000327e-05,2.999999999999999737e-05,-1.000000000000000082e-05,1.000000000000000048e-04,3.000000000000000000e+00,1.700000000000000000e+01
3.847700000000000000e+04,-6.999999999999999387e-05,-2.999999999999999737e-05,-2.000000000000000164e-05,-2.000000000000000164e-05,-4.000000000000000327e-05,2.999999999999999737e-05,-1.000000000000000082e-05,1.000000000000000048e-04,3.000000000000000000e+00,1.700000000000000000e+01
3.847800000000000000e+04,-6.999999999999999387e-05,-2.999999999999999737e-05,-2.000000000000000164e-05,-2.000000000000000164e-05,-4.000000000000000327e-05,2.999999999999999737e-05,-1.000000000000000082e-05,1.000000000000000048e-04,3.000000000000000000e+00,1.700000000000000000e+01
3.847900000000000000e+04,-6.999999999999999387e-05,-2.999999999999999737e-05,-2.000000000000000164e-05,-2.000000000000000164e-05,-4.000000000000000327e-05,2.999999999999999737e-05,-1.000000000000000082e-05,1.000000000000000048e-04,3.000000000000000000e+00,1.700000000000000000e+01
3.848000000000000000e+04,-6.999999999999999387e-05,-2.999999999999999737e-05,-2.000000000000000164e-05,-2.000000000000000164e-05,-4.000000000000000327e-05,2.999999999999999737e-05,-1.000000000000000082e-05,1.000000000000000048e-04,3.000000000000000000e+00,1.700000000000000000e+01
3.848100000000000000e+04,-6.999999999999999387e-05,-2.999999999999999737e-05,-2.000000000000000164e-05,-2.000000000000000164e-05,-4.000000000000000327e-05,2.999999999999999737e-05,-1.000000000000000082e-05,1.000000000000000048e-04,3.000000000000000000e+00,1.700000000000000000e+01
3.848200000000000000e+04,-6.999999999999999387e-05,-2.999999999999999737e-05,-2.000000000000000164e-05,-2.000000000000000164e-05,-4.000000000000000327e-05,2.999999999999999737e-05,-1.000000000000000082e-05,1.000000000000000048e-04,3.000000000000000000e+00,1.700000000000000000e+01
3.848300000000000000e+04,-6.999999999999999387e-05,-2.999999999999999737e-05,-2.000000000000000164e-05,-2.000000000000000164e-05,-4.000000000000000327e-05,2.999999999999999737e-05,-1.000000000000000082e-05,1.000000000000000048e-04,3.000000000000000000e+00,1.700000000000000000e+01
3.848400000000000000e+04,-6.999999999999999387e-05,-2.999999999999999737e-05,-2.000000000000000164e-05,-2.000000000000000164e-05,-4.000000000000000327e-05,2.999999999999999737e-05,-1.000000000000000082e-05,1.000000000000000048e-04,3.000000000000000000e+00,1.700000000000000000e+01
3.848500000000000000e+04,-6.999999999999999387e-05,-2.999999999999999737e-05,-2.000000000000000164e-05,-2.000000000000000164e-05,-4.000000000000000327e-05,2.999999999999999737e-05,-1.000000000000000082e-05,1.000000000000000048e-04,3.000000000000000000e+00,1.700000000000000000e+01
3.848600000000000000e+04,-6.999999999999999387e-05,-2.999999999999999737e-05,-2.000000000000000164e-05,-2.000000000000000164e-05,-4.000000000000000327e-05,2.999999999999999737e-05,-1.000000000000000082e-05,1.000000000000000048e-04,3.000000000000000000e+00,1.700000000000000000e+01
3.848900000000000000e+04,-1.600000000000000131e-04,-5.999999999999999474e-05,0.000000000000000000e+00,5.000000000000000240e-05,1.300000000000000157e-04,-2.999999999999999737e-05,-2.999999999999999737e-05,-1.000000000000000082e-05,3.000000000000000000e+00,1.700000000000000000e+01
3.849000000000000000e+04,-1.600000000000000131e-04,-5.999999999999999474e-05,0.000000000000000000e+00,5.000000000000000240e-05,1.300000000000000157e-04,-2.999999999999999737e-05,-2.999999999999999737e-05,-1.000000000000000082e-05,3.000000000000000000e+00,1.700000000000000000e+01
3.849100000000000000e+04,5.000000000000000240e-05,2.999999999999999737e-05,2.000000000000000164e-05,5.999999999999999474e-05,-2.999999999999999737e-05,1.000000000000000082e-05,0.000000000000000000e+00,2.000000000000000164e-05,3.000000000000000000e+00,1.700000000000000000e+01
3.849200000000000000e+04,5.000000000000000240e-05,2.999999999999999737e-05,2.000000000000000164e-05,5.999999999999999474e-05,-2.999999999999999737e-05,1.000000000000000082e-05,0.000000000000000000e+00,2.000000000000000164e-05,3.000000000000000000e+00,1.700000000000000000e+01
3.849300000000000000e+04,5.000000000000000240e-05,2.999999999999999737e-05,2.000000000000000164e-05,5.999999999999999474e-05,-2.999999999999999737e-05,1.000000000000000082e-05,0.000000000000000000e+00,2.000000000000000164e-05,3.000000000000000000e+00,1.700000000000000000e+01
3.849400000000000000e+04,5.000000000000000240e-05,2.999999999999999737e-05,2.000000000000000164e-05,5.999999999999999474e-05,-2.999999999999999737e-05,1.000000000000000082e-05,0.000000000000000000e+00,2.000000000000000164e-05,3.000000000000000000e+00,1.700000000000000000e+01
3.849500000000000000e+04,5.000000000000000240e-05,2.999999999999999737e-05,2.000000000000000164e-05,5.999999999999999474e-05,-2.999999999999999737e-05,1.000000000000000082e-05,0.000000000000000000e+00,2.000000000000000164e-05,3.000000000000000000e+00,1.700000000000000000e+01
3.849600000000000000e+04,5.000000000000000240e-05,2.999999999999999737e-05,2.000000000000000164e-05,5.999999999999999474e-05,-2.999999999999999737e-05,1.000000000000000082e-05,0.000000000000000000e+00,2.000000000000000164e-05,3.000000000000000000e+00,1.700000000000000000e+01
3.849700000000000000e+04,5.000000000000000240e-05,2.999999999999999737e-05,2.000000000000000164e-05,5.999999999999999474e-05,-2.999999999999999737e-05,1.000000000000000082e-05,0.000000000000000000e+00,2.000000000000000164e-05,3.000000000000000000e+00,1.700000000000000000e+01
3.849800000000000000e+04,5.000000000000000240e-05,2.999999999999999737e-05,2.000000000000000164e-05,5.999999999999999474e-05,-2.999999999999999737e-05,1.000000000000000082e-05,0.000000000000000000e+00,2.000000000000000164e-05,3.000000000000000000e+00,1.700000000000000000e+01
3.849900000000000000e+04,5.000000000000000240e-05,2.999999999999999737e-05,2.000000000000000164e-05,5.999999999999999474e-05,-2.999999999999999737e-05,1.000000000000000082e-05,0.000000000000000000e+00,2.000000000000000164e-05,3.000000000000000000e+00,1.700000000000000000e+01
3.850000000000000000e+04,5.000000000000000240e-05,2.999999999999999737e-05,2.000000000000000164e-05,5.999999999999999474e-05,-2.999999999999999737e-05,1.000000000000000082e-05,0.000000000000000000e+00,2.000000000000000164e-05,3.000000000000000000e+00,1.700000000000000000e+01
3.850100000000000000e+04,5.000000000000000240e-05,2.999999999999999737e-05,2.000000000000000164e-05,5.999999999999999474e-05,-2.999999999999999737e-05,1.000000000000000082e-05,0.000000000000000000e+00,2.000000000000000164e-05,3.000000000000000000e+00,1.700000000000000000e+01
3.850200000000000000e+04,5.000000000000000240e-05,2.999999999999999737e-05,2.000000000000000164e-05,5.999999999999999474e-05,-2.999999999999999737e-05,1.000000000000000082e-05,0.000000000000000000e+00,2.000000000000000164e-05,3.000000000000000000e+00,1.700000000000000000e+01
3.850300000000000000e+04,5.000000000000000240e-05,2.999999999999999737e-05,2.000000000000000164e-05,5.999999999999999474e-05,-2.999999999999999737e-05,1.000000000000000082e-05,0.000000000000000000e+00,2.000000000000000164e-05,3.000000000000000000e+00,1.700000000000000000e+01
3.850400000000000000e+04,5.000000000000000240e-05,2.999999999999999737e-05,2.000000000000000164e-05,5.999999999999999474e-05,-2.999999999999999737e-05,1.000000000000000082e-05,0.000000000000000000e+00,2.000000000000000164e-05,3.000000000000000000e+00,1.700000000000000000e+01
3.850500000000000000e+04,5.000000000000000240e-05,2.999999999999999737e-05,2.000000000000000164e-05,5.999999999999999474e-05,-2.999999999999999737e-05,1.000000000000000082e-05,0.000000000000000000e+00,2.000000000000000164e-05,3.000000000000000000e+00,1.700000000000000000e+01
3.850600000000000000e+04,5.000000000000000240e-05,2.999999999999999737e-05,2.000000000000000164e-05,5.999999999999999474e-05,-2.999999999999999737e-05,1.000000000000000082e-05,0.000000000000000000e+00,2.000000000000000164e-05,3.000000000000000000e+00,1.700000000000000000e+01
3.850700000000000000e+04,5.000000000000000240e-05,2.999999999999999737e-05,2.000000000000000164e-05,5.999999999999999474e-05,-2.999999999999999737e-05,1.000000000000000082e-05,0.000000000000000000e+00,2.000000000000000164e-05,3.000000000000000000e+00,1.700000000000000000e+01
3.850800000000000000e+04,5.000000000000000240e-05,2.999999999999999737e-05,2.000000000000000164e-05,5.999999999999999474e-05,-2.999999999999999737e-05,1.000000000000000082e-05,0.000000000000000000e+00,2.000000000000000164e-05,3.000000000000000000e+00,1.700000000000000000e+01
3.850900000000000000e+04,5.000000000000000240e-05,2.999999999999999737e-05,2.000000000000000164e-05,5.999999999999999474e-05,-2.999999999999999737e-05,1.000000000000000082e-05,0.000000000000000000e+00,2.000000000000000164e-05,3.000000000000000000e+00,1.700000000000000000e+01
3.851000000000000000e+04,5.000000000000000240e-05,2.999999999999999737e-05,2.000000000000000164e-05,5.999999999999999474e-05,-2.999999999999999737e-05,1.000000000000000082e-05,0.000000000000000000e+00,2.000000000000000164e-05,3.000000000000000000e+00,1.700000000000000000e+01
3.851100000000000000e+04,5.000000000000000240e-05,2.999999999999999737e-05,2.000000000000000164e-05,5.999999999999999474e-05,-2.999999999999999737e-05,1.000000000000000082e-05,0.000000000000000000e+00,2.000000000000000164e-05,3.000000000000000000e+00,1.700000000000000000e+01
3.851200000000000000e+04,-4.000000000000000327e-05,-1.000000000000000082e-05,-2.000000000000000164e-05,0.000000000000000000e+00,6.999999999999999387e-05,-1.000000000000000082e-05,5.000000000000000240e-05,-4.000000000000000327e-05,3.000000000000000000e+00,1.700000000000000000e+01
3.851300000000000000e+04,-1.899999999999999834e-04,-2.999999999999999737e-05,0.000000000000000000e+00,-5.999999999999999474e-05,-2.999999999999999737e-05,-9.000000000000000567e-05,-5.000000000000000240e-05,-2.500000000000000052e-04,3.000000000000000000e+00,1.700000000000000000e+01
3.851400000000000000e+04,-1.899999999999999834e-04,-2.999999999999999737e-05,0.000000000000000000e+00,-5.999999999999999474e-05,-2.999999999999999737e-05,-9.000000000000000567e-05,-5.000000000000000240e-05,-2.500000000000000052e-04,3.000000000000000000e+00,1.700000000000000000e+01
3.851500000000000000e+04,-1.899999999999999834e-04,-2.999999999999999737e-05,0.000000000000000000e+00,-5.999999999999999474e-05,-2.999999999999999737e-05,-9.000000000000000567e-05,-5.000000000000000240e-05,-2.500000000000000052e-04,3.000000000000000000e+00,1.700000000000000000e+01
3.851600000000000000e+04,-1.899999999999999834e-04,-2.999999999999999737e-05,0.000000000000000000e+00,-5.999999999999999474e-05,-2.999999999999999737e-05,-9.000000000000000567e-05,-5.000000000000000240e-05,-2.500000000000000052e-04,3.000000000000000000e+00,1.700000000000000000e+01
3.851700000000000000e+04,-1.899999999999999834e-04,-2.999999999999999737e-05,0.000000000000000000e+00,-5.999999999999999474e-05,-2.999999999999999737e-05,-9.000000000000000567e-05,-5.000000000000000240e-05,-2.500000000000000052e-04,3.000000000000000000e+00,1.700000000000000000e+01
3.851800000000000000e+04,-1.899999999999999834e-04,-2.999999999999999737e-05,0.000000000000000000e+00,-5.999999999999999474e-05,-2.999999999999999737e-05,-9.000000000000000567e-05,-5.000000000000000240e-05,-2.500000000000000052e-04,3.000000000000000000e+00,1.700000000000000000e+01
3.851900000000000000e+04,-1.899999999999999834e-04,-2.999999999999999737e-05,0.000000000000000000e+00,-5.999999999999999474e-05,-2.999999999999999737e-05,-9.000000000000000567e-05,-5.000000000000000240e-05,-2.500000000000000052e-04,3.000000000000000000e+00,1.700000000000000000e+01
3.852000000000000000e+04,-1.899999999999999834e-04,-2.999999999999999737e-05,0.000000000000000000e+00,-5.999999999999999474e-05,-2.999999999999999737e-05,-9.000000000000000567e-05,-5.000000000000000240e-05,-2.500000000000000052e-04,3.000000000000000000e+00,1.700000000000000000e+01
3.852100000000000000e+04,-1.899999999999999834e-04,-2.999999999999999737e-05,0.000000000000000000e+00,-5.999999999999999474e-05,-2.999999999999999737e-05,-9.000000000000000567e-05,-5.000000000000000240e-05,-2.500000000000000052e-04,3.000000000000000000e+00,1.700000000000000000e+01
3.852200000000000000e+04,-1.899999999999999834e-04,-2.999999999999999737e-05,0.000000000000000000e+00,-5.999999999999999474e-05,-2.999999999999999737e-05,-9.000000000000000567e-05,-5.000000000000000240e-05,-2.500000000000000052e-04,3.000000000000000000e+00,1.700000000000000000e+01
3.852300000000000000e+04,-1.899999999999999834e-04,-2.999999999999999737e-05,0.000000000000000000e+00,-5.999999999999999474e-05,-2.999999999999999737e-05,-9.000000000000000567e-05,-5.000000000000000240e-05,-2.500000000000000052e-04,3.000000000000000000e+00,1.700000000000000000e+01
3.852400000000000000e+04,-1.899999999999999834e-04,-2.999999999999999737e-05,0.000000000000000000e+00,-5.999999999999999474e-05,-2.999999999999999737e-05,-9.000000000000000567e-05,-5.000000000000000240e-05,-2.500000000000000052e-04,3.000000000000000000e+00,1.700000000000000000e+01
3.852500000000000000e+04,4.000000000000000327e-05,1.000000000000000082e-05,-2.999999999999999737e-05,2.999999999999999737e-05,1.000000000000000082e-05,1.000000000000000082e-05,1.000000000000000082e-05,4.000000000000000327e-05,3.000000000000000000e+00,1.700000000000000000e+01
3.852600000000000000e+04,4.000000000000000327e-05,1.000000000000000082e-05,-2.999999999999999737e-05,2.999999999999999737e-05,1.000000000000000082e-05,1.000000000000000082e-05,1.000000000000000082e-05,4.000000000000000327e-05,3.000000000000000000e+00,1.700000000000000000e+01
3.852700000000000000e+04,4.000000000000000327e-05,1.000000000000000082e-05,-2.999999999999999737e-05,2.999999999999999737e-05,1.000000000000000082e-05,1.000000000000000082e-05,1.000000000000000082e-05,4.000000000000000327e-05,3.000000000000000000e+00,1.700000000000000000e+01
3.852800000000000000e+04,4.000000000000000327e-05,1.000000000000000082e-05,-2.999999999999999737e-05,2.999999999999999737e-05,1.000000000000000082e-05,1.000000000000000082e-05,1.000000000000000082e-05,4.000000000000000327e-05,3.000000000000000000e+00,1.700000000000000000e+01
3.852900000000000000e+04,4.000000000000000327e-05,1.000000000000000082e-05,-2.999999999999999737e-05,2.999999999999999737e-05,1.000000000000000082e-05,1.000000000000000082e-05,1.000000000000000082e-05,4.000000000000000327e-05,3.000000000000000000e+00,1.700000000000000000e+01
3.853000000000000000e+04,4.000000000000000327e-05,1.000000000000000082e-05,-2.999999999999999737e-05,2.999999999999999737e-05,1.000000000000000082e-05,1.000000000000000082e-05,1.000000000000000082e-05,4.000000000000000327e-05,3.000000000000000000e+00,1.700000000000000000e+01
3.853100000000000000e+04,4.000000000000000327e-05,1.000000000000000082e-05,-2.999999999999999737e-05,2.999999999999999737e-05,1.000000000000000082e-05,1.000000000000000082e-05,1.000000000000000082e-05,4.000000000000000327e-05,3.000000000000000000e+00,1.700000000000000000e+01
3.853200000000000000e+04,4.000000000000000327e-05,1.000000000000000082e-05,-2.999999999999999737e-05,2.999999999999999737e-05,1.000000000000000082e-05,1.000000000000000082e-05,1.000000000000000082e-05,4.000000000000000327e-05,3.000000000000000000e+00,1.700000000000000000e+01
3.853300000000000000e+04,4.000000000000000327e-05,1.000000000000000082e-05,-2.999999999999999737e-05,2.999999999999999737e-05,1.000000000000000082e-05,1.000000000000000082e-05,1.000000000000000082e-05,4.000000000000000327e-05,3.000000000000000000e+00,1.700000000000000000e+01
3.853400000000000000e+04,5.000000000000000240e-05,-2.000000000000000164e-05,-2.000000000000000164e-05,0.000000000000000000e+00,1.199999999999999895e-04,0.000000000000000000e+00,-1.000000000000000082e-05,-1.000000000000000082e-05,3.000000000000000000e+00,1.700000000000000000e+01
3.853500000000000000e+04,5.000000000000000240e-05,-2.000000000000000164e-05,-2.000000000000000164e-05,0.000000000000000000e+00,1.199999999999999895e-04,0.000000000000000000e+00,-1.000000000000000082e-05,-1.000000000000000082e-05,3.000000000000000000e+00,1.700000000000000000e+01
3.853600000000000000e+04,5.000000000000000240e-05,-2.000000000000000164e-05,-2.000000000000000164e-05,0.000000000000000000e+00,1.199999999999999895e-04,0.000000000000000000e+00,-1.000000000000000082e-05,-1.000000000000000082e-05,3.000000000000000000e+00,1.700000000000000000e+01
3.853900000000000000e+04,5.000000000000000240e-05,-2.000000000000000164e-05,-2.000000000000000164e-05,0.000000000000000000e+00,1.199999999999999895e-04,0.000000000000000000e+00,-1.000000000000000082e-05,-1.000000000000000082e-05,3.000000000000000000e+00,1.700000000000000000e+01
3.854000000000000000e+04,5.000000000000000240e-05,-2.000000000000000164e-05,-2.000000000000000164e-05,0.000000000000000000e+00,1.199999999999999895e-04,0.000000000000000000e+00,-1.000000000000000082e-05,-1.000000000000000082e-05,3.000000000000000000e+00,1.700000000000000000e+01
3.854100000000000000e+04,5.000000000000000240e-05,-2.000000000000000164e-05,-2.000000000000000164e-05,0.000000000000000000e+00,1.199999999999999895e-04,0.000000000000000000e+00,-1.000000000000000082e-05,-1.000000000000000082e-05,3.000000000000000000e+00,1.700000000000000000e+01
3.854200000000000000e+04,5.000000000000000240e-05,-2.000000000000000164e-05,-2.000000000000000164e-05,0.000000000000000000e+00,1.199999999999999895e-04,0.000000000000000000e+00,-1.000000000000000082e-05,-1.000000000000000082e-05,3.000000000000000000e+00,1.700000000000000000e+01
3.854300000000000000e+04,5.000000000000000240e-05,-2.000000000000000164e-05,-2.000000000000000164e-05,0.000000000000000000e+00,1.199999999999999895e-04,0.000000000000000000e+00,-1.000000000000000082e-05,-1.000000000000000082e-05,3.000000000000000000e+00,1.700000000000000000e+01
3.854400000000000000e+04,5.000000000000000240e-05,-2.000000000000000164e-05,-2.000000000000000164e-05,0.000000000000000000e+00,1.199999999999999895e-04,0.000000000000000000e+00,-1.000000000000000082e-05,-1.000000000000000082e-05,3.000000000000000000e+00,1.700000000000000000e+01
3.854500000000000000e+04,5.000000000000000240e-05,-2.000000000000000164e-05,-2.000000000000000164e-05,0.000000000000000000e+00,1.199999999999999895e-04,0.000000000000000000e+00,-1.000000000000000082e-05,-1.000000000000000082e-05,3.000000000000000000e+00,1.700000000000000000e+01
3.854600000000000000e+04,5.000000000000000240e-05,-2.000000000000000164e-05,-2.000000000000000164e-05,0.000000000000000000e+00,1.199999999999999895e-04,0.000000000000000000e+00,-1.000000000000000082e-05,-1.000000000000000082e-05,3.000000000000000000e+00,1.700000000000000000e+01
3.854700000000000000e+04,5.000000000000000240e-05,-2.000000000000000164e-05,-2.000000000000000164e-05,0.000000000000000000e+00,1.199999999999999895e-04,0.000000000000000000e+00,-1.000000000000000082e-05,-1.000000000000000082e-05,3.000000000000000000e+00,1.700000000000000000e+01
3.854800000000000000e+04,5.000000000000000240e-05,-2.000000000000000164e-05,-2.000000000000000164e-05,0.000000000000000000e+00,1.199999999999999895e-04,0.000000000000000000e+00,-1.000000000000000082e-05,-1.000000000000000082e-05,3.000000000000000000e+00,1.700000000000000000e+01
3.854900000000000000e+04,5.999999999999999474e-05,0.000000000000000000e+00,1.000000000000000082e-05,1.000000000000000082e-05,2.000000000000000164e-05,0.000000000000000000e+00,-2.999999999999999737e-05,1.000000000000000082e-05,3.000000000000000000e+00,1.700000000000000000e+01
3.855000000000000000e+04,5.999999999999999474e-05,0.000000000000000000e+00,1.000000000000000082e-05,1.000000000000000082e-05,2.000000000000000164e-05,0.000000000000000000e+00,-2.999999999999999737e-05,1.000000000000000082e-05,3.000000000000000000e+00,1.700000000000000000e+01
3.855100000000000000e+04,-2.700000000000000035e-04,-2.000000000000000164e-05,-2.000000000000000164e-05,-2.999999999999999737e-05,-2.000000000000000164e-05,2.000000000000000164e-05,-4.000000000000000327e-05,-1.600000000000000131e-04,3.000000000000000000e+00,1.700000000000000000e+01
3.855200000000000000e+04,-2.700000000000000035e-04,-2.000000000000000164e-05,-2.000000000000000164e-05,-2.999999999999999737e-05,-2.000000000000000164e-05,2.000000000000000164e-05,-4.000000000000000327e-05,-1.600000000000000131e-04,3.000000000000000000e+00,1.700000000000000000e+01
3.855300000000000000e+04,-2.700000000000000035e-04,-2.000000000000000164e-05,-2.000000000000000164e-05,-2.999999999999999737e-05,-2.000000000000000164e-05,2.000000000000000164e-05,-4.000000000000000327e-05,-1.600000000000000131e-04,3.000000000000000000e+00,1.700000000000000000e+01
3.855400000000000000e+04,-2.700000000000000035e-04,-2.000000000000000164e-05,-2.000000000000000164e-05,-2.999999999999999737e-05,-2.000000000000000164e-05,2.000000000000000164e-05,-4.000000000000000327e-05,-1.600000000000000131e-04,3.000000000000000000e+00,1.700000000000000000e+01
3.855500000000000000e+04,-2.700000000000000035e-04,-2.000000000000000164e-05,-2.000000000000000164e-05,-2.999999999999999737e-05,-2.000000000000000164e-05,2.000000000000000164e-05,-4.000000000000000327e-05,-1.600000000000000131e-04,3.000000000000000000e+00,1.700000000000000000e+01
3.855600000000000000e+04,-2.700000000000000035e-04,-2.000000000000000164e-05,-2.000000000000000164e-05,-2.999999999999999737e-05,-2.000000000000000164e-05,2.000000000000000164e-05,-4.000000000000000327e-05,-1.600000000000000131e-04,3.000000000000000000e+00,1.700000000000000000e+01
3.855700000000000000e+04,-2.700000000000000035e-04,-2.000000000000000164e-05,-2.000000000000000164e-05,-2.999999999999999737e-05,-2.000000000000000164e-05,2.000000000000000164e-05,-4.000000000000000327e-05,-1.600000000000000131e-04,3.000000000000000000e+00,1.700000000000000000e+01
3.855800000000000000e+04,-2.700000000000000035e-04,-2.000000000000000164e-05,-2.000000000000000164e-05,-2.999999999999999737e-05,-2.000000000000000164e-05,2.000000000000000164e-05,-4.000000000000000327e-05,-1.600000000000000131e-04,3.000000000000000000e+00,1.700000000000000000e+01
3.855900000000000000e+04,-2.700000000000000035e-04,-2.000000000000000164e-05,-2.000000000000000164e-05,-2.999999999999999737e-05,-2.000000000000000164e-05,2.000000000000000164e-05,-4.000000000000000327e-05,-1.600000000000000131e-04,3.000000000000000000e+00,1.700000000000000000e+01
3.856000000000000000e+04,-2.700000000000000035e-04,-2.000000000000000164e-05,-2.000000000000000164e-05,-2.999999999999999737e-05,-2.000000000000000164e-05,2.000000000000000164e-05,-4.000000000000000327e-05,-1.600000000000000131e-04,3.000000000000000000e+00,1.700000000000000000e+01
3.856100000000000000e+04,-2.700000000000000035e-04,-2.000000000000000164e-05,-2.000000000000000164e-05,-2.999999999999999737e-05,-2.000000000000000164e-05,2.000000000000000164e-05,-4.000000000000000327e-05,-1.600000000000000131e-04,3.000000000000000000e+00,1.700000000000000000e+01
3.856200000000000000e+04,-2.700000000000000035e-04,-2.000000000000000164e-05,-2.000000000000000164e-05,-2.999999999999999737e-05,-2.000000000000000164e-05,2.000000000000000164e-05,-4.000000000000000327e-05,-1.600000000000000131e-04,3.000000000000000000e+00,1.700000000000000000e+01
3.856300000000000000e+04,-2.700000000000000035e-04,-2.000000000000000164e-05,-2.000000000000000164e-05,-2.999999999999999737e-05,-2.000000000000000164e-05,2.000000000000000164e-05,-4.000000000000000327e-05,-1.600000000000000131e-04,3.000000000000000000e+00,1.700000000000000000e+01
3.856400000000000000e+04,-2.700000000000000035e-04,-2.000000000000000164e-05,-2.000000000000000164e-05,-2.999999999999999737e-05,-2.000000000000000164e-05,2.000000000000000164e-05,-4.000000000000000327e-05,-1.600000000000000131e-04,3.000000000000000000e+00,1.700000000000000000e+01
3.856500000000000000e+04,-2.700000000000000035e-04,-2.000000000000000164e-05,-2.000000000000000164e-05,-2.999999999999999737e-05,-2.000000000000000164e-05,2.000000000000000164e-05,-4.000000000000000327e-05,-1.600000000000000131e-04,3.000000000000000000e+00,1.700000000000000000e+01
3.856600000000000000e+04,-2.700000000000000035e-04,-2.000000000000000164e-05,-2.000000000000000164e-05,-2.999999999999999737e-05,-2.000000000000000164e-05,2.000000000000000164e-05,-4.000000000000000327e-05,-1.600000000000000131e-04,3.000000000000000000e+00,1.700000000000000000e+01
3.856700000000000000e+04,-2.700000000000000035e-04,-2.000000000000000164e-05,-2.000000000000000164e-05,-2.999999999999999737e-05,-2.000000000000000164e-05,2.000000000000000164e-05,-4.000000000000000327e-05,-1.600000000000000131e-04,3.000000000000000000e+00,1.700000000000000000e+01
3.856800000000000000e+04,-2.700000000000000035e-04,-2.000000000000000164e-05,-2.000000000000000164e-05,-2.999999999999999737e-05,-2.000000000000000164e-05,2.000000000000000164e-05,-4.000000000000000327e-05,-1.600000000000000131e-04,3.000000000000000000e+00,1.700000000000000000e+01
3.856900000000000000e+04,-2.700000000000000035e-04,-2.000000000000000164e-05,-2.000000000000000164e-05,-2.999999999999999737e-05,-2.000000000000000164e-05,2.000000000000000164e-05,-4.000000000000000327e-05,-1.600000000000000131e-04,3.000000000000000000e+00,1.700000000000000000e+01
3.857000000000000000e+04,-2.700000000000000035e-04,-2.000000000000000164e-05,-2.000000000000000164e-05,-2.999999999999999737e-05,-2.000000000000000164e-05,2.000000000000000164e-05,-4.000000000000000327e-05,-1.600000000000000131e-04,3.000000000000000000e+00,1.700000000000000000e+01
3.857200000000000000e+04,5.999999999999999474e-05,2.999999999999999737e-05,0.000000000000000000e+00,-2.000000000000000164e-05,-4.000000000000000327e-05,-1.000000000000000082e-05,-1.000000000000000082e-05,-2.000000000000000164e-05,3.000000000000000000e+00,1.700000000000000000e+01
3.857300000000000000e+04,1.600000000000000131e-04,-1.000000000000000082e-05,-2.999999999999999737e-05,-5.999999999999999474e-05,-1.399999999999999877e-04,-5.999999999999999474e-05,-1.000000000000000082e-05,1.100000000000000039e-04,3.000000000000000000e+00,1.700000000000000000e+01
3.857400000000000000e+04,1.600000000000000131e-04,-1.000000000000000082e-05,-2.999999999999999737e-05,-5.999999999999999474e-05,-1.399999999999999877e-04,-5.999999999999999474e-05,-1.000000000000000082e-05,1.100000000000000039e-04,3.000000000000000000e+00,1.700000000000000000e+01
3.857500000000000000e+04,1.600000000000000131e-04,-1.000000000000000082e-05,-2.999999999999999737e-05,-5.999999999999999474e-05,-1.399999999999999877e-04,-5.999999999999999474e-05,-1.000000000000000082e-05,1.100000000000000039e-04,3.000000000000000000e+00,1.700000000000000000e+01
3.857600000000000000e+04,1.600000000000000131e-04,-1.000000000000000082e-05,-2.999999999999999737e-05,-5.999999999999999474e-05,-1.399999999999999877e-04,-5.999999999999999474e-05,-1.000000000000000082e-05,1.100000000000000039e-04,3.000000000000000000e+00,1.700000000000000000e+01
3.857700000000000000e+04,1.600000000000000131e-04,-1.000000000000000082e-05,-2.999999999999999737e-05,-5.999999999999999474e-05,-1.399999999999999877e-04,-5.999999999999999474e-05,-1.000000000000000082e-05,1.100000000000000039e-04,3.000000000000000000e+00,1.700000000000000000e+01
3.857800000000000000e+04,1.600000000000000131e-04,-1.000000000000000082e-05,-2.999999999999999737e-05,-5.999999999999999474e-05,-1.399999999999999877e-04,-5.999999999999999474e-05,-1.000000000000000082e-05,1.100000000000000039e-04,3.000000000000000000e+00,1.700000000000000000e+01
3.857900000000000000e+04,1.600000000000000131e-04,-1.000000000000000082e-05,-2.999999999999999737e-05,-5.999999999999999474e-05,-1.399999999999999877e-04,-5.999999999999999474e-05,-1.000000000000000082e-05,1.100000000000000039e-04,3.000000000000000000e+00,1.700000000000000000e+01
3.858000000000000000e+04,1.600000000000000131e-04,-1.000000000000000082e-05,-2.999999999999999737e-05,-5.999999999999999474e-05,-1.399999999999999877e-04,-5.999999999999999474e-05,-1.000000000000000082e-05,1.100000000000000039e-04,3.000000000000000000e+00,1.700000000000000000e+01
3.858100000000000000e+04,1.600000000000000131e-04,-1.000000000000000082e-05,-2.999999999999999737e-05,-5.999999999999999474e-05,-1.399999999999999877e-04,-5.999999999999999474e-05,-1.000000000000000082e-05,1.100000000000000039e-04,3.000000000000000000e+00,1.700000000000000000e+01
3.858200000000000000e+04,1.600000000000000131e-04,-1.000000000000000082e-05,-2.999999999999999737e-05,-5.999999999999999474e-05,-1.399999999999999877e-04,-5.999999999999999474e-05,-1.000000000000000082e-05,1.100000000000000039e-04,3.000000000000000000e+00,1.700000000000000000e+01
3.858300000000000000e+04,1.600000000000000131e-04,-1.000000000000000082e-05,-2.999999999999999737e-05,-5.999999999999999474e-05,-1.399999999999999877e-04,-5.999999999999999474e-05,-1.000000000000000082e-05,1.100000000000000039e-04,3.000000000000000000e+00,1.700000000000000000e+01
3.858400000000000000e+04,1.600000000000000131e-04,-1.000000000000000082e-05,-2.999999999999999737e-05,-5.999999999999999474e-05,-1.399999999999999877e-04,-5.999999999999999474e-05,-1.000000000000000082e-05,1.100000000000000039e-04,3.000000000000000000e+00,1.700000000000000000e+01
3.858500000000000000e+04,-4.000000000000000327e-05,2.999999999999999737e-05,2.999999999999999737e-05,-1.000000000000000082e-05,-9.000000000000000567e-05,-8.000000000000000654e-05,-1.000000000000000082e-05,-8.000000000000000654e-05,3.000000000000000000e+00,1.700000000000000000e+01
3.858600000000000000e+04,-4.000000000000000327e-05,2.999999999999999737e-05,2.999999999999999737e-05,-1.000000000000000082e-05,-9.000000000000000567e-05,-8.000000000000000654e-05,-1.000000000000000082e-05,-8.000000000000000654e-05,3.000000000000000000e+00,1.700000000000000000e+01
3.858900000000000000e+04,-4.000000000000000327e-05,2.999999999999999737e-05,2.999999999999999737e-05,-1.000000000000000082e-05,-9.000000000000000567e-05,-8.000000000000000654e-05,-1.000000000000000082e-05,-8.000000000000000654e-05,3.000000000000000000e+00,1.700000000000000000e+01
3.859000000000000000e+04,-4.000000000000000327e-05,2.999999999999999737e-05,2.999999999999999737e-05,-1.000000000000000082e-05,-9.000000000000000567e-05,-8.000000000000000654e-05,-1.000000000000000082e-05,-8.000000000000000654e-05,3.000000000000000000e+00,1.700000000000000000e+01
3.859100000000000000e+04,-4.000000000000000327e-05,2.999999999999999737e-05,2.999999999999999737e-05,-1.000000000000000082e-05,-9.000000000000000567e-05,-8.000000000000000654e-05,-1.000000000000000082e-05,-8.000000000000000654e-05,3.000000000000000000e+00,1.700000000000000000e+01
3.859200000000000000e+04,-4.000000000000000327e-05,2.999999999999999737e-05,2.999999999999999737e-05,-1.000000000000000082e-05,-9.000000000000000567e-05,-8.000000000000000654e-05,-1.000000000000000082e-05,-8.000000000000000654e-05,3.000000000000000000e+00,1.700000000000000000e+01
3.859300000000000000e+04,-4.000000000000000327e-05,2.999999999999999737e-05,2.999999999999999737e-05,-1.000000000000000082e-05,-9.000000000000000567e-05,-8.000000000000000654e-05,-1.000000000000000082e-05,-8.000000000000000654e-05,3.000000000000000000e+00,1.700000000000000000e+01
3.859400000000000000e+04,1.300000000000000157e-04,2.999999999999999737e-05,0.000000000000000000e+00,-2.999999999999999737e-05,-1.000000000000000082e-05,2.000000000000000164e-05,-2.000000000000000164e-05,-6.999999999999999387e-05,3.000000000000000000e+00,1.700000000000000000e+01
3.859500000000000000e+04,1.300000000000000157e-04,2.999999999999999737e-05,0.000000000000000000e+00,-2.999999999999999737e-05,-1.000000000000000082e-05,2.000000000000000164e-05,-2.000000000000000164e-05,-6.999999999999999387e-05,3.000000000000000000e+00,1.700000000000000000e+01
3.859600000000000000e+04,1.300000000000000157e-04,2.999999999999999737e-05,0.000000000000000000e+00,-2.999999999999999737e-05,-1.000000000000000082e-05,2.000000000000000164e-05,-2.000000000000000164e-05,-6.999999999999999387e-05,3.000000000000000000e+00,1.700000000000000000e+01
3.859700000000000000e+04,1.300000000000000157e-04,2.999999999999999737e-05,0.000000000000000000e+00,-2.999999999999999737e-05,-1.000000000000000082e-05,2.000000000000000164e-05,-2.000000000000000164e-05,-6.999999999999999387e-05,3.000000000000000000e+00,1.700000000000000000e+01
3.859800000000000000e+04,1.300000000000000157e-04,2.999999999999999737e-05,0.000000000000000000e+00,-2.999999999999999737e-05,-1.000000000000000082e-05,2.000000000000000164e-05,-2.000000000000000164e-05,-6.999999999999999387e-05,3.000000000000000000e+00,1.700000000000000000e+01
3.859900000000000000e+04,1.300000000000000157e-04,2.999999999999999737e-05,0.000000000000000000e+00,-2.999999999999999737e-05,-1.000000000000000082e-05,2.000000000000000164e-05,-2.000000000000000164e-05,-6.999999999999999387e-05,3.000000000000000000e+00,1.700000000000000000e+01
3.860000000000000000e+04,1.300000000000000157e-04,2.999999999999999737e-05,0.000000000000000000e+00,-2.999999999999999737e-05,-1.000000000000000082e-05,2.000000000000000164e-05,-2.000000000000000164e-05,-6.999999999999999387e-05,3.000000000000000000e+00,1.700000000000000000e+01
3.860100000000000000e+04,1.300000000000000157e-04,2.999999999999999737e-05,0.000000000000000000e+00,-2.999999999999999737e-05,-1.000000000000000082e-05,2.000000000000000164e-05,-2.000000000000000164e-05,-6.999999999999999387e-05,3.000000000000000000e+00,1.700000000000000000e+01
3.860200000000000000e+04,1.300000000000000157e-04,2.999999999999999737e-05,0.000000000000000000e+00,-2.999999999999999737e-05,-1.000000000000000082e-05,2.000000000000000164e-05,-2.000000000000000164e-05,-6.999999999999999387e-05,3.000000000000000000e+00,1.700000000000000000e+01
3.860300000000000000e+04,1.300000000000000157e-04,2.999999999999999737e-05,0.000000000000000000e+00,-2.999999999999999737e-05,-1.000000000000000082e-05,2.000000000000000164e-05,-2.000000000000000164e-05,-6.999999999999999387e-05,3.000000000000000000e+00,1.700000000000000000e+01
3.860400000000000000e+04,1.300000000000000157e-04,2.999999999999999737e-05,0.000000000000000000e+00,-2.999999999999999737e-05,-1.000000000000000082e-05,2.000000000000000164e-05,-2.000000000000000164e-05,-6.999999999999999387e-05,3.000000000000000000e+00,1.700000000000000000e+01
3.860500000000000000e+04,1.300000000000000157e-04,2.999999999999999737e-05,0.000000000000000000e+00,-2.999999999999999737e-05,-1.000000000000000082e-05,2.000000000000000164e-05,-2.000000000000000164e-05,-6.999999999999999387e-05,3.000000000000000000e+00,1.700000000000000000e+01
3.860600000000000000e+04,1.300000000000000157e-04,2.999999999999999737e-05,0.000000000000000000e+00,-2.999999999999999737e-05,-1.000000000000000082e-05,2.000000000000000164e-05,-2.000000000000000164e-05,-6.999999999999999387e-05,3.000000000000000000e+00,1.700000000000000000e+01
3.860700000000000000e+04,1.300000000000000157e-04,2.999999999999999737e-05,0.000000000000000000e+00,-2.999999999999999737e-05,-1.000000000000000082e-05,2.000000000000000164e-05,-2.000000000000000164e-05,-6.999999999999999387e-05,3.000000000000000000e+00,1.700000000000000000e+01
3.860800000000000000e+04,1.300000000000000157e-04,2.999999999999999737e-05,0.000000000000000000e+00,-2.999999999999999737e-05,-1.000000000000000082e-05,2.000000000000000164e-05,-2.000000000000000164e-05,-6.999999999999999387e-05,3.000000000000000000e+00,1.700000000000000000e+01
3.860900000000000000e+04,5.999999999999999474e-05,-4.000000000000000327e-05,-2.999999999999999737e-05,-6.999999999999999387e-05,-5.999999999999999474e-05,-2.000000000000000164e-05,-2.999999999999999737e-05,0.000000000000000000e+00,3.000000000000000000e+00,1.700000000000000000e+01
3.861000000000000000e+04,5.999999999999999474e-05,-4.000000000000000327e-05,-2.999999999999999737e-05,-6.999999999999999387e-05,-5.999999999999999474e-05,-2.000000000000000164e-05,-2.999999999999999737e-05,0.000000000000000000e+00,3.000000000000000000e+00,1.700000000000000000e+01
3.861100000000000000e+04,2.399999999999999790e-04,2.000000000000000164e-05,0.000000000000000000e+00,4.000000000000000327e-05,6.999999999999999387e-05,2.000000000000000164e-05,2.000000000000000164e-05,5.000000000000000240e-05,3.000000000000000000e+00,1.700000000000000000e+01
3.861200000000000000e+04,2.399999999999999790e-04,2.000000000000000164e-05,0.000000000000000000e+00,4.000000000000000327e-05,6.999999999999999387e-05,2.000000000000000164e-05,2.000000000000000164e-05,5.000000000000000240e-05,3.000000000000000000e+00,1.700000000000000000e+01
3.861300000000000000e+04,2.399999999999999790e-04,2.000000000000000164e-05,0.000000000000000000e+00,4.000000000000000327e-05,6.999999999999999387e-05,2.000000000000000164e-05,2.000000000000000164e-05,5.000000000000000240e-05,3.000000000000000000e+00,1.700000000000000000e+01
3.861400000000000000e+04,2.399999999999999790e-04,2.000000000000000164e-05,0.000000000000000000e+00,4.000000000000000327e-05,6.999999999999999387e-05,2.000000000000000164e-05,2.000000000000000164e-05,5.000000000000000240e-05,3.000000000000000000e+00,1.700000000000000000e+01
3.861500000000000000e+04,2.399999999999999790e-04,2.000000000000000164e-05,0.000000000000000000e+00,4.000000000000000327e-05,6.999999999999999387e-05,2.000000000000000164e-05,2.000000000000000164e-05,5.000000000000000240e-05,3.000000000000000000e+00,1.700000000000000000e+01
3.861600000000000000e+04,2.399999999999999790e-04,2.000000000000000164e-05,0.000000000000000000e+00,4.000000000000000327e-05,6.999999999999999387e-05,2.000000000000000164e-05,2.000000000000000164e-05,5.000000000000000240e-05,3.000000000000000000e+00,1.700000000000000000e+01
3.861700000000000000e+04,2.399999999999999790e-04,2.000000000000000164e-05,0.000000000000000000e+00,4.000000000000000327e-05,6.999999999999999387e-05,2.000000000000000164e-05,2.000000000000000164e-05,5.000000000000000240e-05,3.000000000000000000e+00,1.700000000000000000e+01
3.861800000000000000e+04,2.399999999999999790e-04,2.000000000000000164e-05,0.000000000000000000e+00,4.000000000000000327e-05,6.999999999999999387e-05,2.000000000000000164e-05,2.000000000000000164e-05,5.000000000000000240e-05,3.000000000000000000e+00,1.700000000000000000e+01
3.861900000000000000e+04,2.399999999999999790e-04,2.000000000000000164e-05,0.000000000000000000e+00,4.000000000000000327e-05,6.999999999999999387e-05,2.000000000000000164e-05,2.000000000000000164e-05,5.000000000000000240e-05,3.000000000000000000e+00,1.700000000000000000e+01
3.862000000000000000e+04,2.399999999999999790e-04,2.000000000000000164e-05,0.000000000000000000e+00,4.000000000000000327e-05,6.999999999999999387e-05,2.000000000000000164e-05,2.000000000000000164e-05,5.000000000000000240e-05,3.000000000000000000e+00,1.700000000000000000e+01
3.862100000000000000e+04,2.399999999999999790e-04,2.000000000000000164e-05,0.000000000000000000e+00,4.000000000000000327e-05,6.999999999999999387e-05,2.000000000000000164e-05,2.000000000000000164e-05,5.000000000000000240e-05,3.000000000000000000e+00,1.700000000000000000e+01
3.862200000000000000e+04,2.399999999999999790e-04,2.000000000000000164e-05,0.000000000000000000e+00,4.000000000000000327e-05,6.999999999999999387e-05,2.000000000000000164e-05,2.000000000000000164e-05,5.000000000000000240e-05,3.000000000000000000e+00,1.700000000000000000e+01
3.862300000000000000e+04,2.399999999999999790e-04,2.000000000000000164e-05,0.000000000000000000e+00,4.000000000000000327e-05,6.999999999999999387e-05,2.000000000000000164e-05,2.000000000000000164e-05,5.000000000000000240e-05,3.000000000000000000e+00,1.700000000000000000e+01
3.862400000000000000e+04,2.399999999999999790e-04,2.000000000000000164e-05,0.000000000000000000e+00,4.000000000000000327e-05,6.999999999999999387e-05,2.000000000000000164e-05,2.000000000000000164e-05,5.000000000000000240e-05,3.000000000000000000e+00,1.700000000000000000e+01
3.862500000000000000e+04,2.399999999999999790e-04,2.000000000000000164e-05,0.000000000000000000e+00,4.000000000000000327e-05,6.999999999999999387e-05,2.000000000000000164e-05,2.000000000000000164e-05,5.000000000000000240e-05,3.000000000000000000e+00,1.700000000000000000e+01
3.862600000000000000e+04,2.399999999999999790e-04,2.000000000000000164e-05,0.000000000000000000e+00,4.000000000000000327e-05,6.999999999999999387e-05,2.000000000000000164e-05,2.000000000000000164e-05,5.000000000000000240e-05,3.000000000000000000e+00,1.700000000000000000e+01
3.862700000000000000e+04,2.399999999999999790e-04,2.000000000000000164e-05,0.000000000000000000e+00,4.000000000000000327e-05,6.999999999999999387e-05,2.000000000000000164e-05,2.000000000000000164e-05,5.000000000000000240e-05,3.000000000000000000e+00,1.700000000000000000e+01
3.862800000000000000e+04,2.399999999999999790e-04,2.000000000000000164e-05,0.000000000000000000e+00,4.000000000000000327e-05,6.999999999999999387e-05,2.000000000000000164e-05,2.000000000000000164e-05,5.000000000000000240e-05,3.000000000000000000e+00,1.700000000000000000e+01
3.862900000000000000e+04,2.399999999999999790e-04,2.000000000000000164e-05,0.000000000000000000e+00,4.000000000000000327e-05,6.999999999999999387e-05,2.000000000000000164e-05,2.000000000000000164e-05,5.000000000000000240e-05,3.000000000000000000e+00,1.700000000000000000e+01
3.863000000000000000e+04,2.399999999999999790e-04,2.000000000000000164e-05,0.000000000000000000e+00,4.000000000000000327e-05,6.999999999999999387e-05,2.000000000000000164e-05,2.000000000000000164e-05,5.000000000000000240e-05,3.000000000000000000e+00,1.700000000000000000e+01
3.863100000000000000e+04,2.399999999999999790e-04,2.000000000000000164e-05,0.000000000000000000e+00,4.000000000000000327e-05,6.999999999999999387e-05,2.000000000000000164e-05,2.000000000000000164e-05,5.000000000000000240e-05,3.000000000000000000e+00,1.700000000000000000e+01
3.863200000000000000e+04,2.999999999999999737e-05,2.000000000000000164e-05,-2.999999999999999737e-05,8.000000000000000654e-05,4.000000000000000327e-05,6.999999999999999387e-05,-2.000000000000000164e-05,-2.999999999999999737e-05,3.000000000000000000e+00,1.700000000000000000e+01
3.863300000000000000e+04,-5.999999999999999474e-05,-5.000000000000000240e-05,-2.999999999999999737e-05,-2.999999999999999737e-05,-8.000000000000000654e-05,-4.000000000000000327e-05,1.000000000000000082e-05,5.999999999999999474e-05,3.000000000000000000e+00,1.700000000000000000e+01
3.863400000000000000e+04,-5.999999999999999474e-05,-5.000000000000000240e-05,-2.999999999999999737e-05,-2.999999999999999737e-05,-8.000000000000000654e-05,-4.000000000000000327e-05,1.000000000000000082e-05,5.999999999999999474e-05,3.000000000000000000e+00,1.700000000000000000e+01
3.863500000000000000e+04,-5.999999999999999474e-05,-5.000000000000000240e-05,-2.999999999999999737e-05,-2.999999999999999737e-05,-8.000000000000000654e-05,-4.000000000000000327e-05,1.000000000000000082e-05,5.999999999999999474e-05,3.000000000000000000e+00,1.700000000000000000e+01
3.863600000000000000e+04,-5.999999999999999474e-05,-5.000000000000000240e-05,-2.999999999999999737e-05,-2.999999999999999737e-05,-8.000000000000000654e-05,-4.000000000000000327e-05,1.000000000000000082e-05,5.999999999999999474e-05,3.000000000000000000e+00,1.700000000000000000e+01
3.864000000000000000e+04,-5.999999999999999474e-05,-5.000000000000000240e-05,-2.999999999999999737e-05,-2.999999999999999737e-05,-8.000000000000000654e-05,-4.000000000000000327e-05,1.000000000000000082e-05,5.999999999999999474e-05,3.000000000000000000e+00,1.700000000000000000e+01
3.864100000000000000e+04,-5.999999999999999474e-05,-5.000000000000000240e-05,-2.999999999999999737e-05,-2.999999999999999737e-05,-8.000000000000000654e-05,-4.000000000000000327e-05,1.000000000000000082e-05,5.999999999999999474e-05,3.000000000000000000e+00,1.700000000000000000e+01
3.864200000000000000e+04,-5.999999999999999474e-05,-5.000000000000000240e-05,-2.999999999999999737e-05,-2.999999999999999737e-05,-8.000000000000000654e-05,-4.000000000000000327e-05,1.000000000000000082e-05,5.999999999999999474e-05,3.000000000000000000e+00,1.700000000000000000e+01
3.864300000000000000e+04,-5.999999999999999474e-05,-5.000000000000000240e-05,-2.999999999999999737e-05,-2.999999999999999737e-05,-8.000000000000000654e-05,-4.000000000000000327e-05,1.000000000000000082e-05,5.999999999999999474e-05,3.000000000000000000e+00,1.700000000000000000e+01
3.864400000000000000e+04,-5.999999999999999474e-05,-5.000000000000000240e-05,-2.999999999999999737e-05,-2.999999999999999737e-05,-8.000000000000000654e-05,-4.000000000000000327e-05,1.000000000000000082e-05,5.999999999999999474e-05,3.000000000000000000e+00,1.700000000000000000e+01
3.864500000000000000e+04,-2.000000000000000164e-05,-1.000000000000000082e-05,-1.000000000000000082e-05,-5.000000000000000240e-05,-9.000000000000000567e-05,-5.000000000000000240e-05,-5.000000000000000240e-05,-5.000000000000000240e-05,3.000000000000000000e+00,1.700000000000000000e+01
3.864600000000000000e+04,-2.000000000000000164e-05,-1.000000000000000082e-05,-1.000000000000000082e-05,-5.000000000000000240e-05,-9.000000000000000567e-05,-5.000000000000000240e-05,-5.000000000000000240e-05,-5.000000000000000240e-05,3.000000000000000000e+00,1.700000000000000000e+01
3.864700000000000000e+04,-2.000000000000000164e-05,-1.000000000000000082e-05,-1.000000000000000082e-05,-5.000000000000000240e-05,-9.000000000000000567e-05,-5.000000000000000240e-05,-5.000000000000000240e-05,-5.000000000000000240e-05,3.000000000000000000e+00,1.700000000000000000e+01
3.864800000000000000e+04,-2.000000000000000164e-05,-1.000000000000000082e-05,-1.000000000000000082e-05,-5.000000000000000240e-05,-9.000000000000000567e-05,-5.000000000000000240e-05,-5.000000000000000240e-05,-5.000000000000000240e-05,3.000000000000000000e+00,1.700000000000000000e+01
3.864900000000000000e+04,-2.000000000000000164e-05,-1.000000000000000082e-05,-1.000000000000000082e-05,-5.000000000000000240e-05,-9.000000000000000567e-05,-5.000000000000000240e-05,-5.000000000000000240e-05,-5.000000000000000240e-05,3.000000000000000000e+00,1.700000000000000000e+01
3.865000000000000000e+04,-2.000000000000000164e-05,-1.000000000000000082e-05,-1.000000000000000082e-05,-5.000000000000000240e-05,-9.000000000000000567e-05,-5.000000000000000240e-05,-5.000000000000000240e-05,-5.000000000000000240e-05,3.000000000000000000e+00,1.700000000000000000e+01
3.865100000000000000e+04,-2.000000000000000164e-05,-1.000000000000000082e-05,-1.000000000000000082e-05,-5.000000000000000240e-05,-9.000000000000000567e-05,-5.000000000000000240e-05,-5.000000000000000240e-05,-5.000000000000000240e-05,3.000000000000000000e+00,1.700000000000000000e+01
3.865200000000000000e+04,-2.000000000000000164e-05,-1.000000000000000082e-05,-1.000000000000000082e-05,-5.000000000000000240e-05,-9.000000000000000567e-05,-5.000000000000000240e-05,-5.000000000000000240e-05,-5.000000000000000240e-05,3.000000000000000000e+00,1.700000000000000000e+01
3.865300000000000000e+04,-2.000000000000000164e-05,-1.000000000000000082e-05,-1.000000000000000082e-05,-5.000000000000000240e-05,-9.000000000000000567e-05,-5.000000000000000240e-05,-5.000000000000000240e-05,-5.000000000000000240e-05,3.000000000000000000e+00,1.700000000000000000e+01
3.865400000000000000e+04,-5.000000000000000240e-05,-1.000000000000000082e-05,0.000000000000000000e+00,1.000000000000000082e-05,-1.000000000000000082e-05,0.000000000000000000e+00,-4.000000000000000327e-05,4.000000000000000327e-05,3.000000000000000000e+00,1.700000000000000000e+01
3.865500000000000000e+04,2.999999999999999737e-05,1.000000000000000082e-05,4.000000000000000327e-05,-1.000000000000000082e-05,-2.000000000000000164e-05,4.000000000000000327e-05,1.000000000000000082e-05,-1.000000000000000048e-04,3.000000000000000000e+00,1.700000000000000000e+01
3.865600000000000000e+04,2.999999999999999737e-05,1.000000000000000082e-05,4.000000000000000327e-05,-1.000000000000000082e-05,-2.000000000000000164e-05,4.000000000000000327e-05,1.000000000000000082e-05,-1.000000000000000048e-04,3.000000000000000000e+00,1.700000000000000000e+01
3.865700000000000000e+04,2.999999999999999737e-05,1.000000000000000082e-05,4.000000000000000327e-05,-1.000000000000000082e-05,-2.000000000000000164e-05,4.000000000000000327e-05,1.000000000000000082e-05,-1.000000000000000048e-04,3.000000000000000000e+00,1.700000000000000000e+01
3.865800000000000000e+04,2.999999999999999737e-05,1.000000000000000082e-05,4.000000000000000327e-05,-1.000000000000000082e-05,-2.000000000000000164e-05,4.000000000000000327e-05,1.000000000000000082e-05,-1.000000000000000048e-04,3.000000000000000000e+00,1.700000000000000000e+01
3.865900000000000000e+04,2.999999999999999737e-05,1.000000000000000082e-05,4.000000000000000327e-05,-1.000000000000000082e-05,-2.000000000000000164e-05,4.000000000000000327e-05,1.000000000000000082e-05,-1.000000000000000048e-04,3.000000000000000000e+00,1.700000000000000000e+01
3.866000000000000000e+04,2.999999999999999737e-05,1.000000000000000082e-05,4.000000000000000327e-05,-1.000000000000000082e-05,-2.000000000000000164e-05,4.000000000000000327e-05,1.000000000000000082e-05,-1.000000000000000048e-04,3.000000000000000000e+00,1.700000000000000000e+01
3.866100000000000000e+04,2.999999999999999737e-05,1.000000000000000082e-05,4.000000000000000327e-05,-1.000000000000000082e-05,-2.000000000000000164e-05,4.000000000000000327e-05,1.000000000000000082e-05,-1.000000000000000048e-04,3.000000000000000000e+00,1.700000000000000000e+01
3.866200000000000000e+04,2.999999999999999737e-05,1.000000000000000082e-05,4.000000000000000327e-05,-1.000000000000000082e-05,-2.000000000000000164e-05,4.000000000000000327e-05,1.000000000000000082e-05,-1.000000000000000048e-04,3.000000000000000000e+00,1.700000000000000000e+01
3.866300000000000000e+04,2.999999999999999737e-05,1.000000000000000082e-05,4.000000000000000327e-05,-1.000000000000000082e-05,-2.000000000000000164e-05,4.000000000000000327e-05,1.000000000000000082e-05,-1.000000000000000048e-04,3.000000000000000000e+00,1.700000000000000000e+01
3.866400000000000000e+04,2.999999999999999737e-05,1.000000000000000082e-05,4.000000000000000327e-05,-1.000000000000000082e-05,-2.000000000000000164e-05,4.000000000000000327e-05,1.000000000000000082e-05,-1.000000000000000048e-04,3.000000000000000000e+00,1.700000000000000000e+01
3.866500000000000000e+04,2.999999999999999737e-05,1.000000000000000082e-05,4.000000000000000327e-05,-1.000000000000000082e-05,-2.000000000000000164e-05,4.000000000000000327e-05,1.000000000000000082e-05,-1.000000000000000048e-04,3.000000000000000000e+00,1.700000000000000000e+01
3.866600000000000000e+04,2.999999999999999737e-05,1.000000000000000082e-05,4.000000000000000327e-05,-1.000000000000000082e-05,-2.000000000000000164e-05,4.000000000000000327e-05,1.000000000000000082e-05,-1.000000000000000048e-04,3.000000000000000000e+00,1.700000000000000000e+01
3.866700000000000000e+04,2.999999999999999737e-05,1.000000000000000082e-05,4.000000000000000327e-05,-1.000000000000000082e-05,-2.000000000000000164e-05,4.000000000000000327e-05,1.000000000000000082e-05,-1.000000000000000048e-04,3.000000000000000000e+00,1.700000000000000000e+01
3.866800000000000000e+04,2.999999999999999737e-05,1.000000000000000082e-05,4.000000000000000327e-05,-1.000000000000000082e-05,-2.000000000000000164e-05,4.000000000000000327e-05,1.000000000000000082e-05,-1.000000000000000048e-04,3.000000000000000000e+00,1.700000000000000000e+01
3.866900000000000000e+04,1.000000000000000048e-04,2.000000000000000164e-05,2.000000000000000164e-05,0.000000000000000000e+00,2.000000000000000164e-05,-1.000000000000000082e-05,5.000000000000000240e-05,2.900000000000000017e-04,3.000000000000000000e+00,1.700000000000000000e+01
3.867000000000000000e+04,1.000000000000000048e-04,2.000000000000000164e-05,2.000000000000000164e-05,0.000000000000000000e+00,2.000000000000000164e-05,-1.000000000000000082e-05,5.000000000000000240e-05,2.900000000000000017e-04,3.000000000000000000e+00,1.700000000000000000e+01
3.867100000000000000e+04,-6.999999999999999387e-05,-2.000000000000000164e-05,-5.000000000000000240e-05,-5.000000000000000240e-05,-5.999999999999999474e-05,-4.000000000000000327e-05,-5.000000000000000240e-05,-2.799999999999999755e-04,3.000000000000000000e+00,1.700000000000000000e+01
3.867200000000000000e+04,-8.000000000000000654e-05,0.000000000000000000e+00,0.000000000000000000e+00,-1.000000000000000082e-05,6.999999999999999387e-05,0.000000000000000000e+00,0.000000000000000000e+00,4.000000000000000327e-05,3.000000000000000000e+00,1.700000000000000000e+01
3.867300000000000000e+04,-8.000000000000000654e-05,0.000000000000000000e+00,0.000000000000000000e+00,-1.000000000000000082e-05,6.999999999999999387e-05,0.000000000000000000e+00,0.000000000000000000e+00,4.000000000000000327e-05,3.000000000000000000e+00,1.700000000000000000e+01
3.867400000000000000e+04,-8.000000000000000654e-05,0.000000000000000000e+00,0.000000000000000000e+00,-1.000000000000000082e-05,6.999999999999999387e-05,0.000000000000000000e+00,0.000000000000000000e+00,4.000000000000000327e-05,3.000000000000000000e+00,1.700000000000000000e+01
3.867500000000000000e+04,-8.000000000000000654e-05,0.000000000000000000e+00,0.000000000000000000e+00,-1.000000000000000082e-05,6.999999999999999387e-05,0.000000000000000000e+00,0.000000000000000000e+00,4.000000000000000327e-05,3.000000000000000000e+00,1.700000000000000000e+01
3.867600000000000000e+04,-8.000000000000000654e-05,0.000000000000000000e+00,0.000000000000000000e+00,-1.000000000000000082e-05,6.999999999999999387e-05,0.000000000000000000e+00,0.000000000000000000e+00,4.000000000000000327e-05,3.000000000000000000e+00,1.700000000000000000e+01
3.867700000000000000e+04,-8.000000000000000654e-05,0.000000000000000000e+00,0.000000000000000000e+00,-1.000000000000000082e-05,6.999999999999999387e-05,0.000000000000000000e+00,0.000000000000000000e+00,4.000000000000000327e-05,3.000000000000000000e+00,1.700000000000000000e+01
3.867800000000000000e+04,-8.000000000000000654e-05,0.000000000000000000e+00,0.000000000000000000e+00,-1.000000000000000082e-05,6.999999999999999387e-05,0.000000000000000000e+00,0.000000000000000000e+00,4.000000000000000327e-05,3.000000000000000000e+00,1.700000000000000000e+01
3.867900000000000000e+04,-8.000000000000000654e-05,0.000000000000000000e+00,0.000000000000000000e+00,-1.000000000000000082e-05,6.999999999999999387e-05,0.000000000000000000e+00,0.000000000000000000e+00,4.000000000000000327e-05,3.000000000000000000e+00,1.700000000000000000e+01
3.868000000000000000e+04,-8.000000000000000654e-05,0.000000000000000000e+00,0.000000000000000000e+00,-1.000000000000000082e-05,6.999999999999999387e-05,0.000000000000000000e+00,0.000000000000000000e+00,4.000000000000000327e-05,3.000000000000000000e+00,1.700000000000000000e+01
3.868100000000000000e+04,-8.000000000000000654e-05,0.000000000000000000e+00,0.000000000000000000e+00,-1.000000000000000082e-05,6.999999999999999387e-05,0.000000000000000000e+00,0.000000000000000000e+00,4.000000000000000327e-05,3.000000000000000000e+00,1.700000000000000000e+01
3.868200000000000000e+04,-8.000000000000000654e-05,0.000000000000000000e+00,0.000000000000000000e+00,-1.000000000000000082e-05,6.999999999999999387e-05,0.000000000000000000e+00,0.000000000000000000e+00,4.000000000000000327e-05,3.000000000000000000e+00,1.700000000000000000e+01
3.868300000000000000e+04,-8.000000000000000654e-05,0.000000000000000000e+00,0.000000000000000000e+00,-1.000000000000000082e-05,6.999999999999999387e-05,0.000000000000000000e+00,0.000000000000000000e+00,4.000000000000000327e-05,3.000000000000000000e+00,1.700000000000000000e+01
3.868400000000000000e+04,-8.000000000000000654e-05,0.000000000000000000e+00,0.000000000000000000e+00,-1.000000000000000082e-05,6.999999999999999387e-05,0.000000000000000000e+00,0.000000000000000000e+00,4.000000000000000327e-05,3.000000000000000000e+00,1.700000000000000000e+01
3.868500000000000000e+04,-8.000000000000000654e-05,0.000000000000000000e+00,0.000000000000000000e+00,-1.000000000000000082e-05,6.999999999999999387e-05,0.000000000000000000e+00,0.000000000000000000e+00,4.000000000000000327e-05,3.000000000000000000e+00,1.700000000000000000e+01
3.868600000000000000e+04,-8.000000000000000654e-05,0.000000000000000000e+00,0.000000000000000000e+00,-1.000000000000000082e-05,6.999999999999999387e-05,0.000000000000000000e+00,0.000000000000000000e+00,4.000000000000000327e-05,3.000000000000000000e+00,1.700000000000000000e+01
3.868900000000000000e+04,-8.000000000000000654e-05,0.000000000000000000e+00,0.000000000000000000e+00,-1.000000000000000082e-05,6.999999999999999387e-05,0.000000000000000000e+00,0.000000000000000000e+00,4.000000000000000327e-05,3.000000000000000000e+00,1.700000000000000000e+01
3.869000000000000000e+04,-8.000000000000000654e-05,0.000000000000000000e+00,0.000000000000000000e+00,-1.000000000000000082e-05,6.999999999999999387e-05,0.000000000000000000e+00,0.000000000000000000e+00,4.000000000000000327e-05,3.000000000000000000e+00,1.700000000000000000e+01
3.869100000000000000e+04,-8.000000000000000654e-05,0.000000000000000000e+00,0.000000000000000000e+00,-1.000000000000000082e-05,6.999999999999999387e-05,0.000000000000000000e+00,0.000000000000000000e+00,4.000000000000000327e-05,3.000000000000000000e+00,1.700000000000000000e+01
3.869200000000000000e+04,-4.000000000000000327e-05,-2.999999999999999737e-05,-2.000000000000000164e-05,2.999999999999999737e-05,6.999999999999999387e-05,-2.999999999999999737e-05,-2.999999999999999737e-05,-2.000000000000000164e-05,3.000000000000000000e+00,1.700000000000000000e+01
3.869300000000000000e+04,1.199999999999999895e-04,1.000000000000000082e-05,-5.000000000000000240e-05,-2.000000000000000164e-05,-5.000000000000000240e-05,4.000000000000000327e-05,2.999999999999999737e-05,1.600000000000000131e-04,3.000000000000000000e+00,1.700000000000000000e+01
3.869400000000000000e+04,1.199999999999999895e-04,1.000000000000000082e-05,-5.000000000000000240e-05,-2.000000000000000164e-05,-5.000000000000000240e-05,4.000000000000000327e-05,2.999999999999999737e-05,1.600000000000000131e-04,3.000000000000000000e+00,1.700000000000000000e+01
3.869500000000000000e+04,1.199999999999999895e-04,1.000000000000000082e-05,-5.000000000000000240e-05,-2.000000000000000164e-05,-5.000000000000000240e-05,4.000000000000000327e-05,2.999999999999999737e-05,1.600000000000000131e-04,3.000000000000000000e+00,1.700000000000000000e+01
3.869600000000000000e+04,1.199999999999999895e-04,1.000000000000000082e-05,-5.000000000000000240e-05,-2.000000000000000164e-05,-5.000000000000000240e-05,4.000000000000000327e-05,2.999999999999999737e-05,1.600000000000000131e-04,3.000000000000000000e+00,1.700000000000000000e+01
3.869700000000000000e+04,1.199999999999999895e-04,1.000000000000000082e-05,-5.000000000000000240e-05,-2.000000000000000164e-05,-5.000000000000000240e-05,4.000000000000000327e-05,2.999999999999999737e-05,1.600000000000000131e-04,3.000000000000000000e+00,1.700000000000000000e+01
3.869800000000000000e+04,1.199999999999999895e-04,1.000000000000000082e-05,-5.000000000000000240e-05,-2.000000000000000164e-05,-5.000000000000000240e-05,4.000000000000000327e-05,2.999999999999999737e-05,1.600000000000000131e-04,3.000000000000000000e+00,1.700000000000000000e+01
3.869900000000000000e+04,1.199999999999999895e-04,1.000000000000000082e-05,-5.000000000000000240e-05,-2.000000000000000164e-05,-5.000000000000000240e-05,4.000000000000000327e-05,2.999999999999999737e-05,1.600000000000000131e-04,3.000000000000000000e+00,1.700000000000000000e+01
3.870000000000000000e+04,1.199999999999999895e-04,1.000000000000000082e-05,-5.000000000000000240e-05,-2.000000000000000164e-05,-5.000000000000000240e-05,4.000000000000000327e-05,2.999999999999999737e-05,1.600000000000000131e-04,3.000000000000000000e+00,1.700000000000000000e+01
3.870100000000000000e+04,1.199999999999999895e-04,1.000000000000000082e-05,-5.000000000000000240e-05,-2.000000000000000164e-05,-5.000000000000000240e-05,4.000000000000000327e-05,2.999999999999999737e-05,1.600000000000000131e-04,3.000000000000000000e+00,1.700000000000000000e+01
3.870200000000000000e+04,1.199999999999999895e-04,1.000000000000000082e-05,-5.000000000000000240e-05,-2.000000000000000164e-05,-5.000000000000000240e-05,4.000000000000000327e-05,2.999999999999999737e-05,1.600000000000000131e-04,3.000000000000000000e+00,1.700000000000000000e+01
3.870300000000000000e+04,1.199999999999999895e-04,1.000000000000000082e-05,-5.000000000000000240e-05,-2.000000000000000164e-05,-5.000000000000000240e-05,4.000000000000000327e-05,2.999999999999999737e-05,1.600000000000000131e-04,3.000000000000000000e+00,1.700000000000000000e+01
3.870400000000000000e+04,1.199999999999999895e-04,1.000000000000000082e-05,-5.000000000000000240e-05,-2.000000000000000164e-05,-5.000000000000000240e-05,4.000000000000000327e-05,2.999999999999999737e-05,1.600000000000000131e-04,3.000000000000000000e+00,1.700000000000000000e+01
3.870500000000000000e+04,-2.000000000000000164e-05,-1.000000000000000082e-05,0.000000000000000000e+00,-4.000000000000000327e-05,-1.000000000000000082e-05,-2.000000000000000164e-05,-1.000000000000000082e-05,-4.000000000000000327e-05,3.000000000000000000e+00,1.700000000000000000e+01
3.870600000000000000e+04,-2.000000000000000164e-05,-1.000000000000000082e-05,0.000000000000000000e+00,-4.000000000000000327e-05,-1.000000000000000082e-05,-2.000000000000000164e-05,-1.000000000000000082e-05,-4.000000000000000327e-05,3.000000000000000000e+00,1.700000000000000000e+01
3.870700000000000000e+04,-2.000000000000000164e-05,-1.000000000000000082e-05,0.000000000000000000e+00,-4.000000000000000327e-05,-1.000000000000000082e-05,-2.000000000000000164e-05,-1.000000000000000082e-05,-4.000000000000000327e-05,3.000000000000000000e+00,1.700000000000000000e+01
3.870800000000000000e+04,-2.000000000000000164e-05,-1.000000000000000082e-05,0.000000000000000000e+00,-4.000000000000000327e-05,-1.000000000000000082e-05,-2.000000000000000164e-05,-1.000000000000000082e-05,-4.000000000000000327e-05,3.000000000000000000e+00,1.700000000000000000e+01
3.870900000000000000e+04,-2.000000000000000164e-05,-1.000000000000000082e-05,0.000000000000000000e+00,-4.000000000000000327e-05,-1.000000000000000082e-05,-2.000000000000000164e-05,-1.000000000000000082e-05,-4.000000000000000327e-05,3.000000000000000000e+00,1.700000000000000000e+01
3.871000000000000000e+04,-2.000000000000000164e-05,-1.000000000000000082e-05,0.000000000000000000e+00,-4.000000000000000327e-05,-1.000000000000000082e-05,-2.000000000000000164e-05,-1.000000000000000082e-05,-4.000000000000000327e-05,3.000000000000000000e+00,1.700000000000000000e+01
3.871100000000000000e+04,-2.000000000000000164e-05,-1.000000000000000082e-05,0.000000000000000000e+00,-4.000000000000000327e-05,-1.000000000000000082e-05,-2.000000000000000164e-05,-1.000000000000000082e-05,-4.000000000000000327e-05,3.000000000000000000e+00,1.700000000000000000e+01
3.871200000000000000e+04,-2.000000000000000164e-05,-1.000000000000000082e-05,0.000000000000000000e+00,-4.000000000000000327e-05,-1.000000000000000082e-05,-2.000000000000000164e-05,-1.000000000000000082e-05,-4.000000000000000327e-05,3.000000000000000000e+00,1.700000000000000000e+01
3.871300000000000000e+04,-2.000000000000000164e-05,-1.000000000000000082e-05,0.000000000000000000e+00,-4.000000000000000327e-05,-1.000000000000000082e-05,-2.000000000000000164e-05,-1.000000000000000082e-05,-4.000000000000000327e-05,3.000000000000000000e+00,1.700000000000000000e+01
3.871400000000000000e+04,-6.999999999999999387e-05,-2.999999999999999737e-05,2.000000000000000164e-05,0.000000000000000000e+00,4.000000000000000327e-05,-5.000000000000000240e-05,-4.000000000000000327e-05,2.999999999999999737e-05,3.000000000000000000e+00,1.700000000000000000e+01
3.871600000000000000e+04,-6.999999999999999387e-05,-2.999999999999999737e-05,2.000000000000000164e-05,0.000000000000000000e+00,4.000000000000000327e-05,-5.000000000000000240e-05,-4.000000000000000327e-05,2.999999999999999737e-05,3.000000000000000000e+00,1.700000000000000000e+01
3.871700000000000000e+04,-6.999999999999999387e-05,-2.999999999999999737e-05,2.000000000000000164e-05,0.000000000000000000e+00,4.000000000000000327e-05,-5.000000000000000240e-05,-4.000000000000000327e-05,2.999999999999999737e-05,3.000000000000000000e+00,1.700000000000000000e+01
3.871800000000000000e+04,-6.999999999999999387e-05,-2.999999999999999737e-05,2.000000000000000164e-05,0.000000000000000000e+00,4.000000000000000327e-05,-5.000000000000000240e-05,-4.000000000000000327e-05,2.999999999999999737e-05,3.000000000000000000e+00,1.700000000000000000e+01
3.871900000000000000e+04,-6.999999999999999387e-05,-2.999999999999999737e-05,2.000000000000000164e-05,0.000000000000000000e+00,4.000000000000000327e-05,-5.000000000000000240e-05,-4.000000000000000327e-05,2.999999999999999737e-05,3.000000000000000000e+00,1.700000000000000000e+01
3.872000000000000000e+04,-6.999999999999999387e-05,-2.999999999999999737e-05,2.000000000000000164e-05,0.000000000000000000e+00,4.000000000000000327e-05,-5.000000000000000240e-05,-4.000000000000000327e-05,2.999999999999999737e-05,3.000000000000000000e+00,1.700000000000000000e+01
3.872100000000000000e+04,-6.999999999999999387e-05,-2.999999999999999737e-05,2.000000000000000164e-05,0.000000000000000000e+00,4.000000000000000327e-05,-5.000000000000000240e-05,-4.000000000000000327e-05,2.999999999999999737e-05,3.000000000000000000e+00,1.700000000000000000e+01
3.872200000000000000e+04,-6.999999999999999387e-05,-2.999999999999999737e-05,2.000000000000000164e-05,0.000000000000000000e+00,4.000000000000000327e-05,-5.000000000000000240e-05,-4.000000000000000327e-05,2.999999999999999737e-05,3.000000000000000000e+00,1.700000000000000000e+01
3.872300000000000000e+04,-6.999999999999999387e-05,-2.999999999999999737e-05,2.000000000000000164e-05,0.000000000000000000e+00,4.000000000000000327e-05,-5.000000000000000240e-05,-4.000000000000000327e-05,2.999999999999999737e-05,3.000000000000000000e+00,1.700000000000000000e+01
3.872400000000000000e+04,-6.999999999999999387e-05,-2.999999999999999737e-05,2.000000000000000164e-05,0.000000000000000000e+00,4.000000000000000327e-05,-5.000000000000000240e-05,-4.000000000000000327e-05,2.999999999999999737e-05,3.000000000000000000e+00,1.700000000000000000e+01
3.872500000000000000e+04,-6.999999999999999387e-05,-2.999999999999999737e-05,2.000000000000000164e-05,0.000000000000000000e+00,4.000000000000000327e-05,-5.000000000000000240e-05,-4.000000000000000327e-05,2.999999999999999737e-05,3.000000000000000000e+00,1.700000000000000000e+01
3.872600000000000000e+04,-6.999999999999999387e-05,-2.999999999999999737e-05,2.000000000000000164e-05,0.000000000000000000e+00,4.000000000000000327e-05,-5.000000000000000240e-05,-4.000000000000000327e-05,2.999999999999999737e-05,3.000000000000000000e+00,1.700000000000000000e+01
3.872700000000000000e+04,-6.999999999999999387e-05,-2.999999999999999737e-05,2.000000000000000164e-05,0.000000000000000000e+00,4.000000000000000327e-05,-5.000000000000000240e-05,-4.000000000000000327e-05,2.999999999999999737e-05,3.000000000000000000e+00,1.700000000000000000e+01
3.872800000000000000e+04,-6.999999999999999387e-05,-2.999999999999999737e-05,2.000000000000000164e-05,0.000000000000000000e+00,4.000000000000000327e-05,-5.000000000000000240e-05,-4.000000000000000327e-05,2.999999999999999737e-05,3.000000000000000000e+00,1.700000000000000000e+01
3.872900000000000000e+04,-4.000000000000000327e-05,-4.000000000000000327e-05,-2.999999999999999737e-05,-5.000000000000000240e-05,-2.000000000000000164e-05,-6.999999999999999387e-05,-6.999999999999999387e-05,-1.399999999999999877e-04,3.000000000000000000e+00,1.700000000000000000e+01
3.873000000000000000e+04,-4.000000000000000327e-05,-4.000000000000000327e-05,-2.999999999999999737e-05,-5.000000000000000240e-05,-2.000000000000000164e-05,-6.999999999999999387e-05,-6.999999999999999387e-05,-1.399999999999999877e-04,3.000000000000000000e+00,1.700000000000000000e+01
3.873100000000000000e+04,-1.000000000000000082e-05,2.000000000000000164e-05,-2.999999999999999737e-05,5.999999999999999474e-05,-2.000000000000000164e-05,2.999999999999999737e-05,2.000000000000000164e-05,8.000000000000000654e-05,3.000000000000000000e+00,1.700000000000000000e+01
3.873200000000000000e+04,-1.000000000000000082e-05,2.000000000000000164e-05,-2.999999999999999737e-05,5.999999999999999474e-05,-2.000000000000000164e-05,2.999999999999999737e-05,2.000000000000000164e-05,8.000000000000000654e-05,3.000000000000000000e+00,1.700000000000000000e+01
3.873300000000000000e+04,-1.000000000000000082e-05,2.000000000000000164e-05,-2.999999999999999737e-05,5.999999999999999474e-05,-2.000000000000000164e-05,2.999999999999999737e-05,2.000000000000000164e-05,8.000000000000000654e-05,3.000000000000000000e+00,1.700000000000000000e+01
3.873400000000000000e+04,-1.000000000000000082e-05,2.000000000000000164e-05,-2.999999999999999737e-05,5.999999999999999474e-05,-2.000000000000000164e-05,2.999999999999999737e-05,2.000000000000000164e-05,8.000000000000000654e-05,3.000000000000000000e+00,1.700000000000000000e+01
3.873500000000000000e+04,-1.000000000000000082e-05,2.000000000000000164e-05,-2.999999999999999737e-05,5.999999999999999474e-05,-2.000000000000000164e-05,2.999999999999999737e-05,2.000000000000000164e-05,8.000000000000000654e-05,3.000000000000000000e+00,1.700000000000000000e+01
3.873600000000000000e+04,-1.000000000000000082e-05,2.000000000000000164e-05,-2.999999999999999737e-05,5.999999999999999474e-05,-2.000000000000000164e-05,2.999999999999999737e-05,2.000000000000000164e-05,8.000000000000000654e-05,3.000000000000000000e+00,1.700000000000000000e+01
3.873900000000000000e+04,-1.000000000000000082e-05,2.000000000000000164e-05,-2.999999999999999737e-05,5.999999999999999474e-05,-2.000000000000000164e-05,2.999999999999999737e-05,2.000000000000000164e-05,8.000000000000000654e-05,3.000000000000000000e+00,1.700000000000000000e+01
3.874000000000000000e+04,-1.000000000000000082e-05,2.000000000000000164e-05,-2.999999999999999737e-05,5.999999999999999474e-05,-2.000000000000000164e-05,2.999999999999999737e-05,2.000000000000000164e-05,8.000000000000000654e-05,3.000000000000000000e+00,1.700000000000000000e+01
3.874100000000000000e+04,-1.000000000000000082e-05,2.000000000000000164e-05,-2.999999999999999737e-05,5.999999999999999474e-05,-2.000000000000000164e-05,2.999999999999999737e-05,2.000000000000000164e-05,8.000000000000000654e-05,3.000000000000000000e+00,1.700000000000000000e+01
3.874200000000000000e+04,-1.000000000000000082e-05,2.000000000000000164e-05,-2.999999999999999737e-05,5.999999999999999474e-05,-2.000000000000000164e-05,2.999999999999999737e-05,2.000000000000000164e-05,8.000000000000000654e-05,3.000000000000000000e+00,1.700000000000000000e+01
3.874300000000000000e+04,-1.000000000000000082e-05,2.000000000000000164e-05,-2.999999999999999737e-05,5.999999999999999474e-05,-2.000000000000000164e-05,2.999999999999999737e-05,2.000000000000000164e-05,8.000000000000000654e-05,3.000000000000000000e+00,1.700000000000000000e+01
3.874400000000000000e+04,-1.000000000000000082e-05,2.000000000000000164e-05,-2.999999999999999737e-05,5.999999999999999474e-05,-2.000000000000000164e-05,2.999999999999999737e-05,2.000000000000000164e-05,8.000000000000000654e-05,3.000000000000000000e+00,1.700000000000000000e+01
3.874500000000000000e+04,-1.000000000000000082e-05,2.000000000000000164e-05,-2.999999999999999737e-05,5.999999999999999474e-05,-2.000000000000000164e-05,2.999999999999999737e-05,2.000000000000000164e-05,8.000000000000000654e-05,3.000000000000000000e+00,1.700000000000000000e+01
3.874600000000000000e+04,-1.000000000000000082e-05,2.000000000000000164e-05,-2.999999999999999737e-05,5.999999999999999474e-05,-2.000000000000000164e-05,2.999999999999999737e-05,2.000000000000000164e-05,8.000000000000000654e-05,3.000000000000000000e+00,1.700000000000000000e+01
3.874700000000000000e+04,-1.000000000000000082e-05,2.000000000000000164e-05,-2.999999999999999737e-05,5.999999999999999474e-05,-2.000000000000000164e-05,2.999999999999999737e-05,2.000000000000000164e-05,8.000000000000000654e-05,3.000000000000000000e+00,1.700000000000000000e+01
3.874800000000000000e+04,-1.000000000000000082e-05,2.000000000000000164e-05,-2.999999999999999737e-05,5.999999999999999474e-05,-2.000000000000000164e-05,2.999999999999999737e-05,2.000000000000000164e-05,8.000000000000000654e-05,3.000000000000000000e+00,1.700000000000000000e+01
3.874900000000000000e+04,-1.000000000000000082e-05,2.000000000000000164e-05,-2.999999999999999737e-05,5.999999999999999474e-05,-2.000000000000000164e-05,2.999999999999999737e-05,2.000000000000000164e-05,8.000000000000000654e-05,3.000000000000000000e+00,1.700000000000000000e+01
3.875000000000000000e+04,-1.000000000000000082e-05,2.000000000000000164e-05,-2.999999999999999737e-05,5.999999999999999474e-05,-2.000000000000000164e-05,2.999999999999999737e-05,2.000000000000000164e-05,8.000000000000000654e-05,3.000000000000000000e+00,1.700000000000000000e+01
3.875100000000000000e+04,-1.000000000000000082e-05,2.000000000000000164e-05,-2.999999999999999737e-05,5.999999999999999474e-05,-2.000000000000000164e-05,2.999999999999999737e-05,2.000000000000000164e-05,8.000000000000000654e-05,3.000000000000000000e+00,1.700000000000000000e+01
3.875200000000000000e+04,-5.999999999999999474e-05,-5.000000000000000240e-05,1.000000000000000082e-05,-1.000000000000000082e-05,-6.999999999999999387e-05,-2.999999999999999737e-05,-4.000000000000000327e-05,-1.000000000000000048e-04,3.000000000000000000e+00,1.700000000000000000e+01
3.875300000000000000e+04,-1.000000000000000082e-05,-4.000000000000000327e-05,-1.000000000000000082e-05,-2.000000000000000164e-05,-5.000000000000000240e-05,-2.000000000000000164e-05,0.000000000000000000e+00,1.199999999999999895e-04,3.000000000000000000e+00,1.700000000000000000e+01
3.875400000000000000e+04,-1.000000000000000082e-05,-4.000000000000000327e-05,-1.000000000000000082e-05,-2.000000000000000164e-05,-5.000000000000000240e-05,-2.000000000000000164e-05,0.000000000000000000e+00,1.199999999999999895e-04,3.000000000000000000e+00,1.700000000000000000e+01
3.875500000000000000e+04,-1.000000000000000082e-05,-4.000000000000000327e-05,-1.000000000000000082e-05,-2.000000000000000164e-05,-5.000000000000000240e-05,-2.000000000000000164e-05,0.000000000000000000e+00,1.199999999999999895e-04,3.000000000000000000e+00,1.700000000000000000e+01
3.875600000000000000e+04,-1.000000000000000082e-05,-4.000000000000000327e-05,-1.000000000000000082e-05,-2.000000000000000164e-05,-5.000000000000000240e-05,-2.000000000000000164e-05,0.000000000000000000e+00,1.199999999999999895e-04,3.000000000000000000e+00,1.700000000000000000e+01
3.875700000000000000e+04,-1.000000000000000082e-05,-4.000000000000000327e-05,-1.000000000000000082e-05,-2.000000000000000164e-05,-5.000000000000000240e-05,-2.000000000000000164e-05,0.000000000000000000e+00,1.199999999999999895e-04,3.000000000000000000e+00,1.700000000000000000e+01
