7.234300000000000000e+04,-1.199999999999999895e-04,2.000000000000000164e-05,2.999999999999999737e-05,-6.999999999999999387e-05,-4.799999999999999580e-04,7.099999999999999107e-04,5.999999999999999474e-05,9.400000000000000803e-04,7.000000000000000000e+00,2.700000000000000000e+01
7.234400000000000000e+04,-1.199999999999999895e-04,2.000000000000000164e-05,2.999999999999999737e-05,-6.999999999999999387e-05,-4.799999999999999580e-04,7.099999999999999107e-04,5.999999999999999474e-05,9.400000000000000803e-04,7.000000000000000000e+00,2.700000000000000000e+01
7.234500000000000000e+04,-1.199999999999999895e-04,2.000000000000000164e-05,2.999999999999999737e-05,-6.999999999999999387e-05,-4.799999999999999580e-04,7.099999999999999107e-04,5.999999999999999474e-05,9.400000000000000803e-04,7.000000000000000000e+00,2.700000000000000000e+01
7.234600000000000000e+04,-1.199999999999999895e-04,2.000000000000000164e-05,2.999999999999999737e-05,-6.999999999999999387e-05,-4.799999999999999580e-04,7.099999999999999107e-04,5.999999999999999474e-05,9.400000000000000803e-04,7.000000000000000000e+00,2.700000000000000000e+01
7.234700000000000000e+04,-1.199999999999999895e-04,2.000000000000000164e-05,2.999999999999999737e-05,-6.999999999999999387e-05,-4.799999999999999580e-04,7.099999999999999107e-04,5.999999999999999474e-05,9.400000000000000803e-04,7.000000000000000000e+00,2.700000000000000000e+01
7.234800000000000000e+04,-1.199999999999999895e-04,2.000000000000000164e-05,2.999999999999999737e-05,-6.999999999999999387e-05,-4.799999999999999580e-04,7.099999999999999107e-04,5.999999999999999474e-05,9.400000000000000803e-04,7.000000000000000000e+00,2.700000000000000000e+01
7.234900000000000000e+04,-1.199999999999999895e-04,2.000000000000000164e-05,2.999999999999999737e-05,-6.999999999999999387e-05,-4.799999999999999580e-04,7.099999999999999107e-04,5.999999999999999474e-05,9.400000000000000803e-04,7.000000000000000000e+00,2.700000000000000000e+01
7.235000000000000000e+04,-1.199999999999999895e-04,2.000000000000000164e-05,2.999999999999999737e-05,-6.999999999999999387e-05,-4.799999999999999580e-04,7.099999999999999107e-04,5.999999999999999474e-05,9.400000000000000803e-04,7.000000000000000000e+00,2.700000000000000000e+01
7.235100000000000000e+04,-1.199999999999999895e-04,2.000000000000000164e-05,2.999999999999999737e-05,-6.999999999999999387e-05,-4.799999999999999580e-04,7.099999999999999107e-04,5.999999999999999474e-05,9.400000000000000803e-04,7.000000000000000000e+00,2.700000000000000000e+01
7.235200000000000000e+04,-1.199999999999999895e-04,2.000000000000000164e-05,2.999999999999999737e-05,-6.999999999999999387e-05,-4.799999999999999580e-04,7.099999999999999107e-04,5.999999999999999474e-05,9.400000000000000803e-04,7.000000000000000000e+00,2.700000000000000000e+01
7.235300000000000000e+04,-1.199999999999999895e-04,2.000000000000000164e-05,2.999999999999999737e-05,-6.999999999999999387e-05,-4.799999999999999580e-04,7.099999999999999107e-04,5.999999999999999474e-05,9.400000000000000803e-04,7.000000000000000000e+00,2.700000000000000000e+01
7.235400000000000000e+04,-1.199999999999999895e-04,2.000000000000000164e-05,2.999999999999999737e-05,-6.999999999999999387e-05,-4.799999999999999580e-04,7.099999999999999107e-04,5.999999999999999474e-05,9.400000000000000803e-04,7.000000000000000000e+00,2.700000000000000000e+01
7.235500000000000000e+04,-1.199999999999999895e-04,2.000000000000000164e-05,2.999999999999999737e-05,-6.999999999999999387e-05,-4.799999999999999580e-04,7.099999999999999107e-04,5.999999999999999474e-05,9.400000000000000803e-04,7.000000000000000000e+00,2.700000000000000000e+01
7.235600000000000000e+04,-1.199999999999999895e-04,2.000000000000000164e-05,2.999999999999999737e-05,-6.999999999999999387e-05,-4.799999999999999580e-04,7.099999999999999107e-04,5.999999999999999474e-05,9.400000000000000803e-04,7.000000000000000000e+00,2.700000000000000000e+01
7.235700000000000000e+04,-1.199999999999999895e-04,2.000000000000000164e-05,2.999999999999999737e-05,-6.999999999999999387e-05,-4.799999999999999580e-04,7.099999999999999107e-04,5.999999999999999474e-05,9.400000000000000803e-04,7.000000000000000000e+00,2.700000000000000000e+01
7.235800000000000000e+04,-1.199999999999999895e-04,2.000000000000000164e-05,2.999999999999999737e-05,-6.999999999999999387e-05,-4.799999999999999580e-04,7.099999999999999107e-04,5.999999999999999474e-05,9.400000000000000803e-04,7.000000000000000000e+00,2.700000000000000000e+01
7.235900000000000000e+04,-1.199999999999999895e-04,2.000000000000000164e-05,2.999999999999999737e-05,-6.999999999999999387e-05,-4.799999999999999580e-04,7.099999999999999107e-04,5.999999999999999474e-05,9.400000000000000803e-04,7.000000000000000000e+00,2.700000000000000000e+01
7.236000000000000000e+04,-3.399999999999999702e-04,-9.000000000000000567e-05,-5.999999999999999474e-05,1.000000000000000082e-05,-2.100000000000000087e-04,-6.300000000000000261e-04,-1.199999999999999895e-04,-5.000000000000000240e-05,7.000000000000000000e+00,2.700000000000000000e+01
7.236100000000000000e+04,-3.399999999999999702e-04,-9.000000000000000567e-05,-5.999999999999999474e-05,1.000000000000000082e-05,-2.100000000000000087e-04,-6.300000000000000261e-04,-1.199999999999999895e-04,-5.000000000000000240e-05,7.000000000000000000e+00,2.700000000000000000e+01
7.236200000000000000e+04,-3.399999999999999702e-04,-9.000000000000000567e-05,-5.999999999999999474e-05,1.000000000000000082e-05,-2.100000000000000087e-04,-6.300000000000000261e-04,-1.199999999999999895e-04,-5.000000000000000240e-05,7.000000000000000000e+00,2.700000000000000000e+01
7.236300000000000000e+04,-3.399999999999999702e-04,-9.000000000000000567e-05,-5.999999999999999474e-05,1.000000000000000082e-05,-2.100000000000000087e-04,-6.300000000000000261e-04,-1.199999999999999895e-04,-5.000000000000000240e-05,7.000000000000000000e+00,2.700000000000000000e+01
7.236400000000000000e+04,-3.399999999999999702e-04,-9.000000000000000567e-05,-5.999999999999999474e-05,1.000000000000000082e-05,-2.100000000000000087e-04,-6.300000000000000261e-04,-1.199999999999999895e-04,-5.000000000000000240e-05,7.000000000000000000e+00,2.700000000000000000e+01
7.236500000000000000e+04,-3.399999999999999702e-04,-9.000000000000000567e-05,-5.999999999999999474e-05,1.000000000000000082e-05,-2.100000000000000087e-04,-6.300000000000000261e-04,-1.199999999999999895e-04,-5.000000000000000240e-05,7.000000000000000000e+00,2.700000000000000000e+01
7.236600000000000000e+04,-3.399999999999999702e-04,-9.000000000000000567e-05,-5.999999999999999474e-05,1.000000000000000082e-05,-2.100000000000000087e-04,-6.300000000000000261e-04,-1.199999999999999895e-04,-5.000000000000000240e-05,7.000000000000000000e+00,2.700000000000000000e+01
7.236700000000000000e+04,-3.399999999999999702e-04,-9.000000000000000567e-05,-5.999999999999999474e-05,1.000000000000000082e-05,-2.100000000000000087e-04,-6.300000000000000261e-04,-1.199999999999999895e-04,-5.000000000000000240e-05,7.000000000000000000e+00,2.700000000000000000e+01
7.236800000000000000e+04,3.399999999999999702e-04,1.000000000000000082e-05,2.999999999999999737e-05,2.999999999999999737e-05,8.199999999999999824e-04,1.899999999999999834e-04,5.999999999999999474e-05,-2.900000000000000017e-04,7.000000000000000000e+00,2.700000000000000000e+01
7.236900000000000000e+04,3.399999999999999702e-04,1.000000000000000082e-05,2.999999999999999737e-05,2.999999999999999737e-05,8.199999999999999824e-04,1.899999999999999834e-04,5.999999999999999474e-05,-2.900000000000000017e-04,7.000000000000000000e+00,2.700000000000000000e+01
7.237000000000000000e+04,3.399999999999999702e-04,1.000000000000000082e-05,2.999999999999999737e-05,2.999999999999999737e-05,8.199999999999999824e-04,1.899999999999999834e-04,5.999999999999999474e-05,-2.900000000000000017e-04,7.000000000000000000e+00,2.700000000000000000e+01
7.237100000000000000e+04,3.399999999999999702e-04,1.000000000000000082e-05,2.999999999999999737e-05,2.999999999999999737e-05,8.199999999999999824e-04,1.899999999999999834e-04,5.999999999999999474e-05,-2.900000000000000017e-04,7.000000000000000000e+00,2.700000000000000000e+01
7.237200000000000000e+04,3.399999999999999702e-04,1.000000000000000082e-05,2.999999999999999737e-05,2.999999999999999737e-05,8.199999999999999824e-04,1.899999999999999834e-04,5.999999999999999474e-05,-2.900000000000000017e-04,7.000000000000000000e+00,2.700000000000000000e+01
7.237300000000000000e+04,3.399999999999999702e-04,1.000000000000000082e-05,2.999999999999999737e-05,2.999999999999999737e-05,8.199999999999999824e-04,1.899999999999999834e-04,5.999999999999999474e-05,-2.900000000000000017e-04,7.000000000000000000e+00,2.700000000000000000e+01
7.237400000000000000e+04,3.399999999999999702e-04,1.000000000000000082e-05,2.999999999999999737e-05,2.999999999999999737e-05,8.199999999999999824e-04,1.899999999999999834e-04,5.999999999999999474e-05,-2.900000000000000017e-04,7.000000000000000000e+00,2.700000000000000000e+01
7.237500000000000000e+04,3.399999999999999702e-04,1.000000000000000082e-05,2.999999999999999737e-05,2.999999999999999737e-05,8.199999999999999824e-04,1.899999999999999834e-04,5.999999999999999474e-05,-2.900000000000000017e-04,7.000000000000000000e+00,2.700000000000000000e+01
7.237600000000000000e+04,-1.399999999999999877e-04,-8.000000000000000654e-05,-5.999999999999999474e-05,5.999999999999999474e-05,4.499999999999999877e-04,1.180000000000000059e-03,1.399999999999999877e-04,2.799999999999999755e-04,7.000000000000000000e+00,2.700000000000000000e+01
7.237700000000000000e+04,-1.000000000000000048e-04,-4.000000000000000327e-05,-5.999999999999999474e-05,-5.000000000000000240e-05,6.099999999999999737e-04,-3.699999999999999947e-04,-2.299999999999999799e-04,-2.900000000000000017e-04,7.000000000000000000e+00,2.700000000000000000e+01
7.237800000000000000e+04,-1.000000000000000048e-04,-4.000000000000000327e-05,-5.999999999999999474e-05,-5.000000000000000240e-05,6.099999999999999737e-04,-3.699999999999999947e-04,-2.299999999999999799e-04,-2.900000000000000017e-04,7.000000000000000000e+00,2.700000000000000000e+01
7.237900000000000000e+04,-1.000000000000000048e-04,-4.000000000000000327e-05,-5.999999999999999474e-05,-5.000000000000000240e-05,6.099999999999999737e-04,-3.699999999999999947e-04,-2.299999999999999799e-04,-2.900000000000000017e-04,7.000000000000000000e+00,2.700000000000000000e+01
7.238000000000000000e+04,-1.000000000000000048e-04,-4.000000000000000327e-05,-5.999999999999999474e-05,-5.000000000000000240e-05,6.099999999999999737e-04,-3.699999999999999947e-04,-2.299999999999999799e-04,-2.900000000000000017e-04,7.000000000000000000e+00,2.700000000000000000e+01
7.238100000000000000e+04,-1.000000000000000048e-04,-4.000000000000000327e-05,-5.999999999999999474e-05,-5.000000000000000240e-05,6.099999999999999737e-04,-3.699999999999999947e-04,-2.299999999999999799e-04,-2.900000000000000017e-04,7.000000000000000000e+00,2.700000000000000000e+01
7.238200000000000000e+04,-1.000000000000000048e-04,-4.000000000000000327e-05,-5.999999999999999474e-05,-5.000000000000000240e-05,6.099999999999999737e-04,-3.699999999999999947e-04,-2.299999999999999799e-04,-2.900000000000000017e-04,7.000000000000000000e+00,2.700000000000000000e+01
7.238300000000000000e+04,-1.000000000000000048e-04,-4.000000000000000327e-05,-5.999999999999999474e-05,-5.000000000000000240e-05,6.099999999999999737e-04,-3.699999999999999947e-04,-2.299999999999999799e-04,-2.900000000000000017e-04,7.000000000000000000e+00,2.700000000000000000e+01
7.238400000000000000e+04,-1.000000000000000048e-04,-4.000000000000000327e-05,-5.999999999999999474e-05,-5.000000000000000240e-05,6.099999999999999737e-04,-3.699999999999999947e-04,-2.299999999999999799e-04,-2.900000000000000017e-04,7.000000000000000000e+00,2.700000000000000000e+01
7.238500000000000000e+04,-1.000000000000000048e-04,-4.000000000000000327e-05,-5.999999999999999474e-05,-5.000000000000000240e-05,6.099999999999999737e-04,-3.699999999999999947e-04,-2.299999999999999799e-04,-2.900000000000000017e-04,7.000000000000000000e+00,2.700000000000000000e+01
7.238600000000000000e+04,-1.000000000000000048e-04,-4.000000000000000327e-05,-5.999999999999999474e-05,-5.000000000000000240e-05,6.099999999999999737e-04,-3.699999999999999947e-04,-2.299999999999999799e-04,-2.900000000000000017e-04,7.000000000000000000e+00,2.700000000000000000e+01
7.238800000000000000e+04,-1.000000000000000048e-04,-4.000000000000000327e-05,-5.999999999999999474e-05,-5.000000000000000240e-05,6.099999999999999737e-04,-3.699999999999999947e-04,-2.299999999999999799e-04,-2.900000000000000017e-04,7.000000000000000000e+00,2.700000000000000000e+01
7.238900000000000000e+04,-1.000000000000000048e-04,-4.000000000000000327e-05,-5.999999999999999474e-05,-5.000000000000000240e-05,6.099999999999999737e-04,-3.699999999999999947e-04,-2.299999999999999799e-04,-2.900000000000000017e-04,7.000000000000000000e+00,2.700000000000000000e+01
7.239000000000000000e+04,-1.000000000000000048e-04,-4.000000000000000327e-05,-5.999999999999999474e-05,-5.000000000000000240e-05,6.099999999999999737e-04,-3.699999999999999947e-04,-2.299999999999999799e-04,-2.900000000000000017e-04,7.000000000000000000e+00,2.700000000000000000e+01
7.239100000000000000e+04,-1.199999999999999895e-04,-5.000000000000000240e-05,5.999999999999999474e-05,1.100000000000000039e-04,-1.800000000000000113e-04,1.800000000000000113e-04,8.000000000000000654e-05,-2.399999999999999790e-04,7.000000000000000000e+00,2.700000000000000000e+01
7.239200000000000000e+04,-1.800000000000000113e-04,-2.999999999999999737e-05,-2.999999999999999737e-05,-5.999999999999999474e-05,-9.000000000000000567e-05,-4.700000000000000401e-04,-5.000000000000000240e-05,0.000000000000000000e+00,7.000000000000000000e+00,2.700000000000000000e+01
7.239300000000000000e+04,-1.800000000000000113e-04,-2.999999999999999737e-05,-2.999999999999999737e-05,-5.999999999999999474e-05,-9.000000000000000567e-05,-4.700000000000000401e-04,-5.000000000000000240e-05,0.000000000000000000e+00,7.000000000000000000e+00,2.700000000000000000e+01
7.239400000000000000e+04,-1.800000000000000113e-04,-2.999999999999999737e-05,-2.999999999999999737e-05,-5.999999999999999474e-05,-9.000000000000000567e-05,-4.700000000000000401e-04,-5.000000000000000240e-05,0.000000000000000000e+00,7.000000000000000000e+00,2.700000000000000000e+01
7.239500000000000000e+04,-1.800000000000000113e-04,-2.999999999999999737e-05,-2.999999999999999737e-05,-5.999999999999999474e-05,-9.000000000000000567e-05,-4.700000000000000401e-04,-5.000000000000000240e-05,0.000000000000000000e+00,7.000000000000000000e+00,2.700000000000000000e+01
7.239600000000000000e+04,-1.800000000000000113e-04,-2.999999999999999737e-05,-2.999999999999999737e-05,-5.999999999999999474e-05,-9.000000000000000567e-05,-4.700000000000000401e-04,-5.000000000000000240e-05,0.000000000000000000e+00,7.000000000000000000e+00,2.700000000000000000e+01
7.239700000000000000e+04,-1.800000000000000113e-04,-2.999999999999999737e-05,-2.999999999999999737e-05,-5.999999999999999474e-05,-9.000000000000000567e-05,-4.700000000000000401e-04,-5.000000000000000240e-05,0.000000000000000000e+00,7.000000000000000000e+00,2.700000000000000000e+01
7.239800000000000000e+04,-1.800000000000000113e-04,-2.999999999999999737e-05,-2.999999999999999737e-05,-5.999999999999999474e-05,-9.000000000000000567e-05,-4.700000000000000401e-04,-5.000000000000000240e-05,0.000000000000000000e+00,7.000000000000000000e+00,2.700000000000000000e+01
7.239900000000000000e+04,-1.800000000000000113e-04,-2.999999999999999737e-05,-2.999999999999999737e-05,-5.999999999999999474e-05,-9.000000000000000567e-05,-4.700000000000000401e-04,-5.000000000000000240e-05,0.000000000000000000e+00,7.000000000000000000e+00,2.700000000000000000e+01
7.240000000000000000e+04,-1.800000000000000113e-04,-2.999999999999999737e-05,-2.999999999999999737e-05,-5.999999999999999474e-05,-9.000000000000000567e-05,-4.700000000000000401e-04,-5.000000000000000240e-05,0.000000000000000000e+00,7.000000000000000000e+00,2.700000000000000000e+01
7.240100000000000000e+04,-1.800000000000000113e-04,-2.999999999999999737e-05,-2.999999999999999737e-05,-5.999999999999999474e-05,-9.000000000000000567e-05,-4.700000000000000401e-04,-5.000000000000000240e-05,0.000000000000000000e+00,7.000000000000000000e+00,2.700000000000000000e+01
7.240200000000000000e+04,-1.800000000000000113e-04,-2.999999999999999737e-05,-2.999999999999999737e-05,-5.999999999999999474e-05,-9.000000000000000567e-05,-4.700000000000000401e-04,-5.000000000000000240e-05,0.000000000000000000e+00,7.000000000000000000e+00,2.700000000000000000e+01
7.240300000000000000e+04,-1.800000000000000113e-04,-2.999999999999999737e-05,-2.999999999999999737e-05,-5.999999999999999474e-05,-9.000000000000000567e-05,-4.700000000000000401e-04,-5.000000000000000240e-05,0.000000000000000000e+00,7.000000000000000000e+00,2.700000000000000000e+01
7.240400000000000000e+04,-1.800000000000000113e-04,-2.999999999999999737e-05,-2.999999999999999737e-05,-5.999999999999999474e-05,-9.000000000000000567e-05,-4.700000000000000401e-04,-5.000000000000000240e-05,0.000000000000000000e+00,7.000000000000000000e+00,2.700000000000000000e+01
7.240500000000000000e+04,-1.800000000000000113e-04,-2.999999999999999737e-05,-2.999999999999999737e-05,-5.999999999999999474e-05,-9.000000000000000567e-05,-4.700000000000000401e-04,-5.000000000000000240e-05,0.000000000000000000e+00,7.000000000000000000e+00,2.700000000000000000e+01
7.240600000000000000e+04,-1.800000000000000113e-04,-2.999999999999999737e-05,-2.999999999999999737e-05,-5.999999999999999474e-05,-9.000000000000000567e-05,-4.700000000000000401e-04,-5.000000000000000240e-05,0.000000000000000000e+00,7.000000000000000000e+00,2.700000000000000000e+01
7.240700000000000000e+04,-1.800000000000000113e-04,-2.999999999999999737e-05,-2.999999999999999737e-05,-5.999999999999999474e-05,-9.000000000000000567e-05,-4.700000000000000401e-04,-5.000000000000000240e-05,0.000000000000000000e+00,7.000000000000000000e+00,2.700000000000000000e+01
7.240800000000000000e+04,-1.800000000000000113e-04,-2.999999999999999737e-05,-2.999999999999999737e-05,-5.999999999999999474e-05,-9.000000000000000567e-05,-4.700000000000000401e-04,-5.000000000000000240e-05,0.000000000000000000e+00,7.000000000000000000e+00,2.700000000000000000e+01
7.240900000000000000e+04,-1.800000000000000113e-04,-2.999999999999999737e-05,-2.999999999999999737e-05,-5.999999999999999474e-05,-9.000000000000000567e-05,-4.700000000000000401e-04,-5.000000000000000240e-05,0.000000000000000000e+00,7.000000000000000000e+00,2.700000000000000000e+01
7.241000000000000000e+04,-1.800000000000000113e-04,-2.999999999999999737e-05,-2.999999999999999737e-05,-5.999999999999999474e-05,-9.000000000000000567e-05,-4.700000000000000401e-04,-5.000000000000000240e-05,0.000000000000000000e+00,7.000000000000000000e+00,2.700000000000000000e+01
7.241100000000000000e+04,-1.800000000000000113e-04,-2.999999999999999737e-05,-2.999999999999999737e-05,-5.999999999999999474e-05,-9.000000000000000567e-05,-4.700000000000000401e-04,-5.000000000000000240e-05,0.000000000000000000e+00,7.000000000000000000e+00,2.700000000000000000e+01
7.241200000000000000e+04,-1.800000000000000113e-04,-2.999999999999999737e-05,-2.999999999999999737e-05,-5.999999999999999474e-05,-9.000000000000000567e-05,-4.700000000000000401e-04,-5.000000000000000240e-05,0.000000000000000000e+00,7.000000000000000000e+00,2.700000000000000000e+01
7.241300000000000000e+04,-1.800000000000000113e-04,-2.999999999999999737e-05,-2.999999999999999737e-05,-5.999999999999999474e-05,-9.000000000000000567e-05,-4.700000000000000401e-04,-5.000000000000000240e-05,0.000000000000000000e+00,7.000000000000000000e+00,2.700000000000000000e+01
7.241400000000000000e+04,2.200000000000000078e-04,4.000000000000000327e-05,2.999999999999999737e-05,-2.000000000000000164e-05,1.000000000000000082e-05,9.000000000000000567e-05,-4.000000000000000327e-05,-4.200000000000000174e-04,7.000000000000000000e+00,2.700000000000000000e+01
7.241500000000000000e+04,-1.100000000000000039e-04,5.000000000000000240e-05,4.000000000000000327e-05,-5.000000000000000240e-05,1.600000000000000131e-04,4.899999999999999842e-04,1.000000000000000048e-04,2.999999999999999737e-04,7.000000000000000000e+00,2.700000000000000000e+01
7.241600000000000000e+04,-1.100000000000000039e-04,5.000000000000000240e-05,4.000000000000000327e-05,-5.000000000000000240e-05,1.600000000000000131e-04,4.899999999999999842e-04,1.000000000000000048e-04,2.999999999999999737e-04,7.000000000000000000e+00,2.700000000000000000e+01
7.241700000000000000e+04,-1.100000000000000039e-04,5.000000000000000240e-05,4.000000000000000327e-05,-5.000000000000000240e-05,1.600000000000000131e-04,4.899999999999999842e-04,1.000000000000000048e-04,2.999999999999999737e-04,7.000000000000000000e+00,2.700000000000000000e+01
7.241800000000000000e+04,-1.100000000000000039e-04,5.000000000000000240e-05,4.000000000000000327e-05,-5.000000000000000240e-05,1.600000000000000131e-04,4.899999999999999842e-04,1.000000000000000048e-04,2.999999999999999737e-04,7.000000000000000000e+00,2.700000000000000000e+01
7.241900000000000000e+04,-1.100000000000000039e-04,5.000000000000000240e-05,4.000000000000000327e-05,-5.000000000000000240e-05,1.600000000000000131e-04,4.899999999999999842e-04,1.000000000000000048e-04,2.999999999999999737e-04,7.000000000000000000e+00,2.700000000000000000e+01
7.242000000000000000e+04,-1.100000000000000039e-04,5.000000000000000240e-05,4.000000000000000327e-05,-5.000000000000000240e-05,1.600000000000000131e-04,4.899999999999999842e-04,1.000000000000000048e-04,2.999999999999999737e-04,7.000000000000000000e+00,2.700000000000000000e+01
7.242100000000000000e+04,-1.100000000000000039e-04,5.000000000000000240e-05,4.000000000000000327e-05,-5.000000000000000240e-05,1.600000000000000131e-04,4.899999999999999842e-04,1.000000000000000048e-04,2.999999999999999737e-04,7.000000000000000000e+00,2.700000000000000000e+01
7.242200000000000000e+04,-1.100000000000000039e-04,5.000000000000000240e-05,4.000000000000000327e-05,-5.000000000000000240e-05,1.600000000000000131e-04,4.899999999999999842e-04,1.000000000000000048e-04,2.999999999999999737e-04,7.000000000000000000e+00,2.700000000000000000e+01
7.242300000000000000e+04,-1.100000000000000039e-04,5.000000000000000240e-05,4.000000000000000327e-05,-5.000000000000000240e-05,1.600000000000000131e-04,4.899999999999999842e-04,1.000000000000000048e-04,2.999999999999999737e-04,7.000000000000000000e+00,2.700000000000000000e+01
7.242400000000000000e+04,-1.100000000000000039e-04,5.000000000000000240e-05,4.000000000000000327e-05,-5.000000000000000240e-05,1.600000000000000131e-04,4.899999999999999842e-04,1.000000000000000048e-04,2.999999999999999737e-04,7.000000000000000000e+00,2.700000000000000000e+01
7.242500000000000000e+04,-1.100000000000000039e-04,5.000000000000000240e-05,4.000000000000000327e-05,-5.000000000000000240e-05,1.600000000000000131e-04,4.899999999999999842e-04,1.000000000000000048e-04,2.999999999999999737e-04,7.000000000000000000e+00,2.700000000000000000e+01
7.242600000000000000e+04,-1.100000000000000039e-04,5.000000000000000240e-05,4.000000000000000327e-05,-5.000000000000000240e-05,1.600000000000000131e-04,4.899999999999999842e-04,1.000000000000000048e-04,2.999999999999999737e-04,7.000000000000000000e+00,2.700000000000000000e+01
7.242700000000000000e+04,-1.100000000000000039e-04,5.000000000000000240e-05,4.000000000000000327e-05,-5.000000000000000240e-05,1.600000000000000131e-04,4.899999999999999842e-04,1.000000000000000048e-04,2.999999999999999737e-04,7.000000000000000000e+00,2.700000000000000000e+01
7.242800000000000000e+04,-1.100000000000000039e-04,5.000000000000000240e-05,4.000000000000000327e-05,-5.000000000000000240e-05,1.600000000000000131e-04,4.899999999999999842e-04,1.000000000000000048e-04,2.999999999999999737e-04,7.000000000000000000e+00,2.700000000000000000e+01
7.242900000000000000e+04,-1.100000000000000039e-04,5.000000000000000240e-05,4.000000000000000327e-05,-5.000000000000000240e-05,1.600000000000000131e-04,4.899999999999999842e-04,1.000000000000000048e-04,2.999999999999999737e-04,7.000000000000000000e+00,2.700000000000000000e+01
7.243000000000000000e+04,-1.100000000000000039e-04,5.000000000000000240e-05,4.000000000000000327e-05,-5.000000000000000240e-05,1.600000000000000131e-04,4.899999999999999842e-04,1.000000000000000048e-04,2.999999999999999737e-04,7.000000000000000000e+00,2.700000000000000000e+01
7.243100000000000000e+04,-1.100000000000000039e-04,5.000000000000000240e-05,4.000000000000000327e-05,-5.000000000000000240e-05,1.600000000000000131e-04,4.899999999999999842e-04,1.000000000000000048e-04,2.999999999999999737e-04,7.000000000000000000e+00,2.700000000000000000e+01
7.243200000000000000e+04,-1.100000000000000039e-04,5.000000000000000240e-05,4.000000000000000327e-05,-5.000000000000000240e-05,1.600000000000000131e-04,4.899999999999999842e-04,1.000000000000000048e-04,2.999999999999999737e-04,7.000000000000000000e+00,2.700000000000000000e+01
7.243300000000000000e+04,-1.100000000000000039e-04,5.000000000000000240e-05,4.000000000000000327e-05,-5.000000000000000240e-05,1.600000000000000131e-04,4.899999999999999842e-04,1.000000000000000048e-04,2.999999999999999737e-04,7.000000000000000000e+00,2.700000000000000000e+01
7.243400000000000000e+04,-1.100000000000000039e-04,5.000000000000000240e-05,4.000000000000000327e-05,-5.000000000000000240e-05,1.600000000000000131e-04,4.899999999999999842e-04,1.000000000000000048e-04,2.999999999999999737e-04,7.000000000000000000e+00,2.700000000000000000e+01
7.243500000000000000e+04,-1.100000000000000039e-04,5.000000000000000240e-05,4.000000000000000327e-05,-5.000000000000000240e-05,1.600000000000000131e-04,4.899999999999999842e-04,1.000000000000000048e-04,2.999999999999999737e-04,7.000000000000000000e+00,2.700000000000000000e+01
7.243700000000000000e+04,-6.999999999999999387e-05,-6.999999999999999387e-05,-8.000000000000000654e-05,-2.999999999999999737e-05,-8.000000000000000654e-05,4.000000000000000327e-05,-1.699999999999999851e-04,2.399999999999999790e-04,7.000000000000000000e+00,2.700000000000000000e+01
7.243900000000000000e+04,-6.999999999999999387e-05,-6.999999999999999387e-05,-8.000000000000000654e-05,-2.999999999999999737e-05,-8.000000000000000654e-05,4.000000000000000327e-05,-1.699999999999999851e-04,2.399999999999999790e-04,7.000000000000000000e+00,2.700000000000000000e+01
7.244000000000000000e+04,-6.999999999999999387e-05,-6.999999999999999387e-05,-8.000000000000000654e-05,-2.999999999999999737e-05,-8.000000000000000654e-05,4.000000000000000327e-05,-1.699999999999999851e-04,2.399999999999999790e-04,7.000000000000000000e+00,2.700000000000000000e+01
7.244100000000000000e+04,-6.999999999999999387e-05,-6.999999999999999387e-05,-8.000000000000000654e-05,-2.999999999999999737e-05,-8.000000000000000654e-05,4.000000000000000327e-05,-1.699999999999999851e-04,2.399999999999999790e-04,7.000000000000000000e+00,2.700000000000000000e+01
7.244200000000000000e+04,-6.999999999999999387e-05,-6.999999999999999387e-05,-8.000000000000000654e-05,-2.999999999999999737e-05,-8.000000000000000654e-05,4.000000000000000327e-05,-1.699999999999999851e-04,2.399999999999999790e-04,7.000000000000000000e+00,2.700000000000000000e+01
7.244300000000000000e+04,-6.999999999999999387e-05,-6.999999999999999387e-05,-8.000000000000000654e-05,-2.999999999999999737e-05,-8.000000000000000654e-05,4.000000000000000327e-05,-1.699999999999999851e-04,2.399999999999999790e-04,7.000000000000000000e+00,2.700000000000000000e+01
7.244400000000000000e+04,-6.999999999999999387e-05,-6.999999999999999387e-05,-8.000000000000000654e-05,-2.999999999999999737e-05,-8.000000000000000654e-05,4.000000000000000327e-05,-1.699999999999999851e-04,2.399999999999999790e-04,7.000000000000000000e+00,2.700000000000000000e+01
7.244500000000000000e+04,-6.999999999999999387e-05,-6.999999999999999387e-05,-8.000000000000000654e-05,-2.999999999999999737e-05,-8.000000000000000654e-05,4.000000000000000327e-05,-1.699999999999999851e-04,2.399999999999999790e-04,7.000000000000000000e+00,2.700000000000000000e+01
7.244600000000000000e+04,-6.999999999999999387e-05,-6.999999999999999387e-05,-8.000000000000000654e-05,-2.999999999999999737e-05,-8.000000000000000654e-05,4.000000000000000327e-05,-1.699999999999999851e-04,2.399999999999999790e-04,7.000000000000000000e+00,2.700000000000000000e+01
7.244700000000000000e+04,-6.999999999999999387e-05,-6.999999999999999387e-05,-8.000000000000000654e-05,-2.999999999999999737e-05,-8.000000000000000654e-05,4.000000000000000327e-05,-1.699999999999999851e-04,2.399999999999999790e-04,7.000000000000000000e+00,2.700000000000000000e+01
7.244800000000000000e+04,-6.999999999999999387e-05,-6.999999999999999387e-05,-8.000000000000000654e-05,-2.999999999999999737e-05,-8.000000000000000654e-05,4.000000000000000327e-05,-1.699999999999999851e-04,2.399999999999999790e-04,7.000000000000000000e+00,2.700000000000000000e+01
7.244900000000000000e+04,-6.999999999999999387e-05,-6.999999999999999387e-05,-8.000000000000000654e-05,-2.999999999999999737e-05,-8.000000000000000654e-05,4.000000000000000327e-05,-1.699999999999999851e-04,2.399999999999999790e-04,7.000000000000000000e+00,2.700000000000000000e+01
7.245000000000000000e+04,-6.999999999999999387e-05,-6.999999999999999387e-05,-8.000000000000000654e-05,-2.999999999999999737e-05,-8.000000000000000654e-05,4.000000000000000327e-05,-1.699999999999999851e-04,2.399999999999999790e-04,7.000000000000000000e+00,2.700000000000000000e+01
7.245100000000000000e+04,-6.999999999999999387e-05,-6.999999999999999387e-05,-8.000000000000000654e-05,-2.999999999999999737e-05,-8.000000000000000654e-05,4.000000000000000327e-05,-1.699999999999999851e-04,2.399999999999999790e-04,7.000000000000000000e+00,2.700000000000000000e+01
7.245200000000000000e+04,-6.999999999999999387e-05,-6.999999999999999387e-05,-8.000000000000000654e-05,-2.999999999999999737e-05,-8.000000000000000654e-05,4.000000000000000327e-05,-1.699999999999999851e-04,2.399999999999999790e-04,7.000000000000000000e+00,2.700000000000000000e+01
7.245300000000000000e+04,-6.999999999999999387e-05,-6.999999999999999387e-05,-8.000000000000000654e-05,-2.999999999999999737e-05,-8.000000000000000654e-05,4.000000000000000327e-05,-1.699999999999999851e-04,2.399999999999999790e-04,7.000000000000000000e+00,2.700000000000000000e+01
7.245400000000000000e+04,-6.999999999999999387e-05,-6.999999999999999387e-05,-8.000000000000000654e-05,-2.999999999999999737e-05,-8.000000000000000654e-05,4.000000000000000327e-05,-1.699999999999999851e-04,2.399999999999999790e-04,7.000000000000000000e+00,2.700000000000000000e+01
7.245500000000000000e+04,-6.999999999999999387e-05,-6.999999999999999387e-05,-8.000000000000000654e-05,-2.999999999999999737e-05,-8.000000000000000654e-05,4.000000000000000327e-05,-1.699999999999999851e-04,2.399999999999999790e-04,7.000000000000000000e+00,2.700000000000000000e+01
7.245600000000000000e+04,-6.999999999999999387e-05,-6.999999999999999387e-05,-8.000000000000000654e-05,-2.999999999999999737e-05,-8.000000000000000654e-05,4.000000000000000327e-05,-1.699999999999999851e-04,2.399999999999999790e-04,7.000000000000000000e+00,2.700000000000000000e+01
7.245700000000000000e+04,-6.999999999999999387e-05,-6.999999999999999387e-05,-8.000000000000000654e-05,-2.999999999999999737e-05,-8.000000000000000654e-05,4.000000000000000327e-05,-1.699999999999999851e-04,2.399999999999999790e-04,7.000000000000000000e+00,2.700000000000000000e+01
7.245800000000000000e+04,5.999999999999999474e-05,1.000000000000000082e-05,-1.000000000000000082e-05,-4.000000000000000327e-05,-2.399999999999999790e-04,3.099999999999999999e-04,8.000000000000000654e-05,-1.100000000000000039e-04,7.000000000000000000e+00,2.700000000000000000e+01
7.245900000000000000e+04,5.999999999999999474e-05,1.000000000000000082e-05,-1.000000000000000082e-05,-4.000000000000000327e-05,-2.399999999999999790e-04,3.099999999999999999e-04,8.000000000000000654e-05,-1.100000000000000039e-04,7.000000000000000000e+00,2.700000000000000000e+01
7.246000000000000000e+04,8.599999999999999789e-04,-1.000000000000000082e-05,-2.999999999999999737e-05,0.000000000000000000e+00,-2.600000000000000314e-04,2.100000000000000087e-04,9.000000000000000567e-05,3.299999999999999982e-04,7.000000000000000000e+00,2.700000000000000000e+01
7.246100000000000000e+04,8.599999999999999789e-04,-1.000000000000000082e-05,-2.999999999999999737e-05,0.000000000000000000e+00,-2.600000000000000314e-04,2.100000000000000087e-04,9.000000000000000567e-05,3.299999999999999982e-04,7.000000000000000000e+00,2.700000000000000000e+01
7.246200000000000000e+04,8.599999999999999789e-04,-1.000000000000000082e-05,-2.999999999999999737e-05,0.000000000000000000e+00,-2.600000000000000314e-04,2.100000000000000087e-04,9.000000000000000567e-05,3.299999999999999982e-04,7.000000000000000000e+00,2.700000000000000000e+01
7.246300000000000000e+04,8.599999999999999789e-04,-1.000000000000000082e-05,-2.999999999999999737e-05,0.000000000000000000e+00,-2.600000000000000314e-04,2.100000000000000087e-04,9.000000000000000567e-05,3.299999999999999982e-04,7.000000000000000000e+00,2.700000000000000000e+01
7.246400000000000000e+04,8.599999999999999789e-04,-1.000000000000000082e-05,-2.999999999999999737e-05,0.000000000000000000e+00,-2.600000000000000314e-04,2.100000000000000087e-04,9.000000000000000567e-05,3.299999999999999982e-04,7.000000000000000000e+00,2.700000000000000000e+01
7.246500000000000000e+04,8.599999999999999789e-04,-1.000000000000000082e-05,-2.999999999999999737e-05,0.000000000000000000e+00,-2.600000000000000314e-04,2.100000000000000087e-04,9.000000000000000567e-05,3.299999999999999982e-04,7.000000000000000000e+00,2.700000000000000000e+01
7.246600000000000000e+04,8.599999999999999789e-04,-1.000000000000000082e-05,-2.999999999999999737e-05,0.000000000000000000e+00,-2.600000000000000314e-04,2.100000000000000087e-04,9.000000000000000567e-05,3.299999999999999982e-04,7.000000000000000000e+00,2.700000000000000000e+01
7.246700000000000000e+04,8.599999999999999789e-04,-1.000000000000000082e-05,-2.999999999999999737e-05,0.000000000000000000e+00,-2.600000000000000314e-04,2.100000000000000087e-04,9.000000000000000567e-05,3.299999999999999982e-04,7.000000000000000000e+00,2.700000000000000000e+01
7.246800000000000000e+04,8.599999999999999789e-04,-1.000000000000000082e-05,-2.999999999999999737e-05,0.000000000000000000e+00,-2.600000000000000314e-04,2.100000000000000087e-04,9.000000000000000567e-05,3.299999999999999982e-04,7.000000000000000000e+00,2.700000000000000000e+01
7.246900000000000000e+04,8.599999999999999789e-04,-1.000000000000000082e-05,-2.999999999999999737e-05,0.000000000000000000e+00,-2.600000000000000314e-04,2.100000000000000087e-04,9.000000000000000567e-05,3.299999999999999982e-04,7.000000000000000000e+00,2.700000000000000000e+01
7.247000000000000000e+04,8.599999999999999789e-04,-1.000000000000000082e-05,-2.999999999999999737e-05,0.000000000000000000e+00,-2.600000000000000314e-04,2.100000000000000087e-04,9.000000000000000567e-05,3.299999999999999982e-04,7.000000000000000000e+00,2.700000000000000000e+01
7.247100000000000000e+04,8.599999999999999789e-04,-1.000000000000000082e-05,-2.999999999999999737e-05,0.000000000000000000e+00,-2.600000000000000314e-04,2.100000000000000087e-04,9.000000000000000567e-05,3.299999999999999982e-04,7.000000000000000000e+00,2.700000000000000000e+01
7.247200000000000000e+04,8.599999999999999789e-04,-1.000000000000000082e-05,-2.999999999999999737e-05,0.000000000000000000e+00,-2.600000000000000314e-04,2.100000000000000087e-04,9.000000000000000567e-05,3.299999999999999982e-04,7.000000000000000000e+00,2.700000000000000000e+01
7.247300000000000000e+04,4.400000000000000157e-04,2.999999999999999737e-05,-1.000000000000000082e-05,-5.999999999999999474e-05,-2.799999999999999755e-04,-2.500000000000000052e-04,-2.999999999999999737e-05,0.000000000000000000e+00,7.000000000000000000e+00,2.700000000000000000e+01
7.247400000000000000e+04,4.400000000000000157e-04,2.999999999999999737e-05,-1.000000000000000082e-05,-5.999999999999999474e-05,-2.799999999999999755e-04,-2.500000000000000052e-04,-2.999999999999999737e-05,0.000000000000000000e+00,7.000000000000000000e+00,2.700000000000000000e+01
7.247500000000000000e+04,-9.400000000000000803e-04,-1.000000000000000082e-05,2.999999999999999737e-05,1.100000000000000039e-04,1.899999999999999834e-04,5.699999999999999772e-04,2.200000000000000078e-04,-2.900000000000000017e-04,7.000000000000000000e+00,2.700000000000000000e+01
7.247600000000000000e+04,-9.400000000000000803e-04,-1.000000000000000082e-05,2.999999999999999737e-05,1.100000000000000039e-04,1.899999999999999834e-04,5.699999999999999772e-04,2.200000000000000078e-04,-2.900000000000000017e-04,7.000000000000000000e+00,2.700000000000000000e+01
7.247700000000000000e+04,-9.400000000000000803e-04,-1.000000000000000082e-05,2.999999999999999737e-05,1.100000000000000039e-04,1.899999999999999834e-04,5.699999999999999772e-04,2.200000000000000078e-04,-2.900000000000000017e-04,7.000000000000000000e+00,2.700000000000000000e+01
7.247800000000000000e+04,-9.400000000000000803e-04,-1.000000000000000082e-05,2.999999999999999737e-05,1.100000000000000039e-04,1.899999999999999834e-04,5.699999999999999772e-04,2.200000000000000078e-04,-2.900000000000000017e-04,7.000000000000000000e+00,2.700000000000000000e+01
7.247900000000000000e+04,-9.400000000000000803e-04,-1.000000000000000082e-05,2.999999999999999737e-05,1.100000000000000039e-04,1.899999999999999834e-04,5.699999999999999772e-04,2.200000000000000078e-04,-2.900000000000000017e-04,7.000000000000000000e+00,2.700000000000000000e+01
7.248000000000000000e+04,-9.400000000000000803e-04,-1.000000000000000082e-05,2.999999999999999737e-05,1.100000000000000039e-04,1.899999999999999834e-04,5.699999999999999772e-04,2.200000000000000078e-04,-2.900000000000000017e-04,7.000000000000000000e+00,2.700000000000000000e+01
7.248100000000000000e+04,-9.400000000000000803e-04,-1.000000000000000082e-05,2.999999999999999737e-05,1.100000000000000039e-04,1.899999999999999834e-04,5.699999999999999772e-04,2.200000000000000078e-04,-2.900000000000000017e-04,7.000000000000000000e+00,2.700000000000000000e+01
7.248200000000000000e+04,-9.400000000000000803e-04,-1.000000000000000082e-05,2.999999999999999737e-05,1.100000000000000039e-04,1.899999999999999834e-04,5.699999999999999772e-04,2.200000000000000078e-04,-2.900000000000000017e-04,7.000000000000000000e+00,2.700000000000000000e+01
7.248300000000000000e+04,-9.400000000000000803e-04,-1.000000000000000082e-05,2.999999999999999737e-05,1.100000000000000039e-04,1.899999999999999834e-04,5.699999999999999772e-04,2.200000000000000078e-04,-2.900000000000000017e-04,7.000000000000000000e+00,2.700000000000000000e+01
7.248400000000000000e+04,-9.400000000000000803e-04,-1.000000000000000082e-05,2.999999999999999737e-05,1.100000000000000039e-04,1.899999999999999834e-04,5.699999999999999772e-04,2.200000000000000078e-04,-2.900000000000000017e-04,7.000000000000000000e+00,2.700000000000000000e+01
7.248500000000000000e+04,-9.400000000000000803e-04,-1.000000000000000082e-05,2.999999999999999737e-05,1.100000000000000039e-04,1.899999999999999834e-04,5.699999999999999772e-04,2.200000000000000078e-04,-2.900000000000000017e-04,7.000000000000000000e+00,2.700000000000000000e+01
7.248700000000000000e+04,-9.400000000000000803e-04,-1.000000000000000082e-05,2.999999999999999737e-05,1.100000000000000039e-04,1.899999999999999834e-04,5.699999999999999772e-04,2.200000000000000078e-04,-2.900000000000000017e-04,7.000000000000000000e+00,2.700000000000000000e+01
7.248900000000000000e+04,-9.400000000000000803e-04,-1.000000000000000082e-05,2.999999999999999737e-05,1.100000000000000039e-04,1.899999999999999834e-04,5.699999999999999772e-04,2.200000000000000078e-04,-2.900000000000000017e-04,7.000000000000000000e+00,2.700000000000000000e+01
7.249000000000000000e+04,-9.400000000000000803e-04,-1.000000000000000082e-05,2.999999999999999737e-05,1.100000000000000039e-04,1.899999999999999834e-04,5.699999999999999772e-04,2.200000000000000078e-04,-2.900000000000000017e-04,7.000000000000000000e+00,2.700000000000000000e+01
7.249100000000000000e+04,-9.400000000000000803e-04,-1.000000000000000082e-05,2.999999999999999737e-05,1.100000000000000039e-04,1.899999999999999834e-04,5.699999999999999772e-04,2.200000000000000078e-04,-2.900000000000000017e-04,7.000000000000000000e+00,2.700000000000000000e+01
7.249200000000000000e+04,-9.400000000000000803e-04,-1.000000000000000082e-05,2.999999999999999737e-05,1.100000000000000039e-04,1.899999999999999834e-04,5.699999999999999772e-04,2.200000000000000078e-04,-2.900000000000000017e-04,7.000000000000000000e+00,2.700000000000000000e+01
7.249300000000000000e+04,-9.400000000000000803e-04,-1.000000000000000082e-05,2.999999999999999737e-05,1.100000000000000039e-04,1.899999999999999834e-04,5.699999999999999772e-04,2.200000000000000078e-04,-2.900000000000000017e-04,7.000000000000000000e+00,2.700000000000000000e+01
7.249400000000000000e+04,-9.400000000000000803e-04,-1.000000000000000082e-05,2.999999999999999737e-05,1.100000000000000039e-04,1.899999999999999834e-04,5.699999999999999772e-04,2.200000000000000078e-04,-2.900000000000000017e-04,7.000000000000000000e+00,2.700000000000000000e+01
7.249500000000000000e+04,-9.400000000000000803e-04,-1.000000000000000082e-05,2.999999999999999737e-05,1.100000000000000039e-04,1.899999999999999834e-04,5.699999999999999772e-04,2.200000000000000078e-04,-2.900000000000000017e-04,7.000000000000000000e+00,2.700000000000000000e+01
7.249600000000000000e+04,8.000000000000000654e-05,-2.000000000000000164e-05,-5.999999999999999474e-05,-1.100000000000000039e-04,-2.600000000000000314e-04,-1.010000000000000047e-03,-8.000000000000000654e-05,3.699999999999999947e-04,7.000000000000000000e+00,2.700000000000000000e+01
7.249700000000000000e+04,8.000000000000000654e-05,-2.000000000000000164e-05,-5.999999999999999474e-05,-1.100000000000000039e-04,-2.600000000000000314e-04,-1.010000000000000047e-03,-8.000000000000000654e-05,3.699999999999999947e-04,7.000000000000000000e+00,2.700000000000000000e+01
7.249800000000000000e+04,2.799999999999999755e-04,0.000000000000000000e+00,-2.999999999999999737e-05,-8.000000000000000654e-05,-6.300000000000000261e-04,-4.000000000000000327e-05,-2.000000000000000164e-05,-1.300000000000000157e-04,7.000000000000000000e+00,2.700000000000000000e+01
7.249900000000000000e+04,2.799999999999999755e-04,0.000000000000000000e+00,-2.999999999999999737e-05,-8.000000000000000654e-05,-6.300000000000000261e-04,-4.000000000000000327e-05,-2.000000000000000164e-05,-1.300000000000000157e-04,7.000000000000000000e+00,2.700000000000000000e+01
7.250000000000000000e+04,2.799999999999999755e-04,0.000000000000000000e+00,-2.999999999999999737e-05,-8.000000000000000654e-05,-6.300000000000000261e-04,-4.000000000000000327e-05,-2.000000000000000164e-05,-1.300000000000000157e-04,7.000000000000000000e+00,2.700000000000000000e+01
7.250100000000000000e+04,2.799999999999999755e-04,0.000000000000000000e+00,-2.999999999999999737e-05,-8.000000000000000654e-05,-6.300000000000000261e-04,-4.000000000000000327e-05,-2.000000000000000164e-05,-1.300000000000000157e-04,7.000000000000000000e+00,2.700000000000000000e+01
7.250200000000000000e+04,2.799999999999999755e-04,0.000000000000000000e+00,-2.999999999999999737e-05,-8.000000000000000654e-05,-6.300000000000000261e-04,-4.000000000000000327e-05,-2.000000000000000164e-05,-1.300000000000000157e-04,7.000000000000000000e+00,2.700000000000000000e+01
7.250300000000000000e+04,2.799999999999999755e-04,0.000000000000000000e+00,-2.999999999999999737e-05,-8.000000000000000654e-05,-6.300000000000000261e-04,-4.000000000000000327e-05,-2.000000000000000164e-05,-1.300000000000000157e-04,7.000000000000000000e+00,2.700000000000000000e+01
7.250400000000000000e+04,2.799999999999999755e-04,0.000000000000000000e+00,-2.999999999999999737e-05,-8.000000000000000654e-05,-6.300000000000000261e-04,-4.000000000000000327e-05,-2.000000000000000164e-05,-1.300000000000000157e-04,7.000000000000000000e+00,2.700000000000000000e+01
7.250500000000000000e+04,2.799999999999999755e-04,0.000000000000000000e+00,-2.999999999999999737e-05,-8.000000000000000654e-05,-6.300000000000000261e-04,-4.000000000000000327e-05,-2.000000000000000164e-05,-1.300000000000000157e-04,7.000000000000000000e+00,2.700000000000000000e+01
7.250600000000000000e+04,2.799999999999999755e-04,0.000000000000000000e+00,-2.999999999999999737e-05,-8.000000000000000654e-05,-6.300000000000000261e-04,-4.000000000000000327e-05,-2.000000000000000164e-05,-1.300000000000000157e-04,7.000000000000000000e+00,2.700000000000000000e+01
7.250700000000000000e+04,2.799999999999999755e-04,0.000000000000000000e+00,-2.999999999999999737e-05,-8.000000000000000654e-05,-6.300000000000000261e-04,-4.000000000000000327e-05,-2.000000000000000164e-05,-1.300000000000000157e-04,7.000000000000000000e+00,2.700000000000000000e+01
7.250800000000000000e+04,2.799999999999999755e-04,0.000000000000000000e+00,-2.999999999999999737e-05,-8.000000000000000654e-05,-6.300000000000000261e-04,-4.000000000000000327e-05,-2.000000000000000164e-05,-1.300000000000000157e-04,7.000000000000000000e+00,2.700000000000000000e+01
7.250900000000000000e+04,2.799999999999999755e-04,0.000000000000000000e+00,-2.999999999999999737e-05,-8.000000000000000654e-05,-6.300000000000000261e-04,-4.000000000000000327e-05,-2.000000000000000164e-05,-1.300000000000000157e-04,7.000000000000000000e+00,2.700000000000000000e+01
7.251000000000000000e+04,9.000000000000000567e-05,2.999999999999999737e-05,2.999999999999999737e-05,5.000000000000000240e-05,3.499999999999999964e-04,-2.600000000000000314e-04,-1.199999999999999895e-04,0.000000000000000000e+00,7.000000000000000000e+00,2.700000000000000000e+01
7.251100000000000000e+04,9.000000000000000567e-05,2.999999999999999737e-05,2.999999999999999737e-05,5.000000000000000240e-05,3.499999999999999964e-04,-2.600000000000000314e-04,-1.199999999999999895e-04,0.000000000000000000e+00,7.000000000000000000e+00,2.700000000000000000e+01
7.251200000000000000e+04,9.000000000000000567e-05,2.999999999999999737e-05,2.999999999999999737e-05,5.000000000000000240e-05,3.499999999999999964e-04,-2.600000000000000314e-04,-1.199999999999999895e-04,0.000000000000000000e+00,7.000000000000000000e+00,2.700000000000000000e+01
7.251300000000000000e+04,9.000000000000000567e-05,2.999999999999999737e-05,2.999999999999999737e-05,5.000000000000000240e-05,3.499999999999999964e-04,-2.600000000000000314e-04,-1.199999999999999895e-04,0.000000000000000000e+00,7.000000000000000000e+00,2.700000000000000000e+01
7.251400000000000000e+04,9.000000000000000567e-05,2.999999999999999737e-05,2.999999999999999737e-05,5.000000000000000240e-05,3.499999999999999964e-04,-2.600000000000000314e-04,-1.199999999999999895e-04,0.000000000000000000e+00,7.000000000000000000e+00,2.700000000000000000e+01
7.251500000000000000e+04,9.000000000000000567e-05,2.999999999999999737e-05,2.999999999999999737e-05,5.000000000000000240e-05,3.499999999999999964e-04,-2.600000000000000314e-04,-1.199999999999999895e-04,0.000000000000000000e+00,7.000000000000000000e+00,2.700000000000000000e+01
7.251600000000000000e+04,9.000000000000000567e-05,2.999999999999999737e-05,2.999999999999999737e-05,5.000000000000000240e-05,3.499999999999999964e-04,-2.600000000000000314e-04,-1.199999999999999895e-04,0.000000000000000000e+00,7.000000000000000000e+00,2.700000000000000000e+01
7.251700000000000000e+04,1.899999999999999834e-04,1.000000000000000082e-05,2.000000000000000164e-05,-2.000000000000000164e-05,-4.499999999999999877e-04,-1.049999999999999935e-03,-5.000000000000000240e-05,-1.499999999999999869e-04,7.000000000000000000e+00,2.700000000000000000e+01
7.251800000000000000e+04,1.899999999999999834e-04,1.000000000000000082e-05,2.000000000000000164e-05,-2.000000000000000164e-05,-4.499999999999999877e-04,-1.049999999999999935e-03,-5.000000000000000240e-05,-1.499999999999999869e-04,7.000000000000000000e+00,2.700000000000000000e+01
7.251900000000000000e+04,1.899999999999999834e-04,1.000000000000000082e-05,2.000000000000000164e-05,-2.000000000000000164e-05,-4.499999999999999877e-04,-1.049999999999999935e-03,-5.000000000000000240e-05,-1.499999999999999869e-04,7.000000000000000000e+00,2.700000000000000000e+01
7.252000000000000000e+04,1.899999999999999834e-04,1.000000000000000082e-05,2.000000000000000164e-05,-2.000000000000000164e-05,-4.499999999999999877e-04,-1.049999999999999935e-03,-5.000000000000000240e-05,-1.499999999999999869e-04,7.000000000000000000e+00,2.700000000000000000e+01
7.252100000000000000e+04,1.899999999999999834e-04,1.000000000000000082e-05,2.000000000000000164e-05,-2.000000000000000164e-05,-4.499999999999999877e-04,-1.049999999999999935e-03,-5.000000000000000240e-05,-1.499999999999999869e-04,7.000000000000000000e+00,2.700000000000000000e+01
7.252200000000000000e+04,1.899999999999999834e-04,1.000000000000000082e-05,2.000000000000000164e-05,-2.000000000000000164e-05,-4.499999999999999877e-04,-1.049999999999999935e-03,-5.000000000000000240e-05,-1.499999999999999869e-04,7.000000000000000000e+00,2.700000000000000000e+01
7.252300000000000000e+04,1.899999999999999834e-04,1.000000000000000082e-05,2.000000000000000164e-05,-2.000000000000000164e-05,-4.499999999999999877e-04,-1.049999999999999935e-03,-5.000000000000000240e-05,-1.499999999999999869e-04,7.000000000000000000e+00,2.700000000000000000e+01
7.252400000000000000e+04,1.899999999999999834e-04,1.000000000000000082e-05,2.000000000000000164e-05,-2.000000000000000164e-05,-4.499999999999999877e-04,-1.049999999999999935e-03,-5.000000000000000240e-05,-1.499999999999999869e-04,7.000000000000000000e+00,2.700000000000000000e+01
7.252500000000000000e+04,1.899999999999999834e-04,1.000000000000000082e-05,2.000000000000000164e-05,-2.000000000000000164e-05,-4.499999999999999877e-04,-1.049999999999999935e-03,-5.000000000000000240e-05,-1.499999999999999869e-04,7.000000000000000000e+00,2.700000000000000000e+01
7.252600000000000000e+04,1.899999999999999834e-04,1.000000000000000082e-05,2.000000000000000164e-05,-2.000000000000000164e-05,-4.499999999999999877e-04,-1.049999999999999935e-03,-5.000000000000000240e-05,-1.499999999999999869e-04,7.000000000000000000e+00,2.700000000000000000e+01
7.252700000000000000e+04,1.899999999999999834e-04,1.000000000000000082e-05,2.000000000000000164e-05,-2.000000000000000164e-05,-4.499999999999999877e-04,-1.049999999999999935e-03,-5.000000000000000240e-05,-1.499999999999999869e-04,7.000000000000000000e+00,2.700000000000000000e+01
7.252800000000000000e+04,1.899999999999999834e-04,1.000000000000000082e-05,2.000000000000000164e-05,-2.000000000000000164e-05,-4.499999999999999877e-04,-1.049999999999999935e-03,-5.000000000000000240e-05,-1.499999999999999869e-04,7.000000000000000000e+00,2.700000000000000000e+01
7.252900000000000000e+04,1.899999999999999834e-04,1.000000000000000082e-05,2.000000000000000164e-05,-2.000000000000000164e-05,-4.499999999999999877e-04,-1.049999999999999935e-03,-5.000000000000000240e-05,-1.499999999999999869e-04,7.000000000000000000e+00,2.700000000000000000e+01
7.253000000000000000e+04,1.899999999999999834e-04,1.000000000000000082e-05,2.000000000000000164e-05,-2.000000000000000164e-05,-4.499999999999999877e-04,-1.049999999999999935e-03,-5.000000000000000240e-05,-1.499999999999999869e-04,7.000000000000000000e+00,2.700000000000000000e+01
7.253100000000000000e+04,1.899999999999999834e-04,1.000000000000000082e-05,2.000000000000000164e-05,-2.000000000000000164e-05,-4.499999999999999877e-04,-1.049999999999999935e-03,-5.000000000000000240e-05,-1.499999999999999869e-04,7.000000000000000000e+00,2.700000000000000000e+01
7.253200000000000000e+04,1.899999999999999834e-04,1.000000000000000082e-05,2.000000000000000164e-05,-2.000000000000000164e-05,-4.499999999999999877e-04,-1.049999999999999935e-03,-5.000000000000000240e-05,-1.499999999999999869e-04,7.000000000000000000e+00,2.700000000000000000e+01
7.253300000000000000e+04,-1.300000000000000157e-04,-2.999999999999999737e-05,-2.999999999999999737e-05,-8.000000000000000654e-05,3.200000000000000262e-04,-5.999999999999999474e-05,0.000000000000000000e+00,3.899999999999999929e-04,7.000000000000000000e+00,2.700000000000000000e+01
7.253400000000000000e+04,-1.300000000000000157e-04,-2.999999999999999737e-05,-2.999999999999999737e-05,-8.000000000000000654e-05,3.200000000000000262e-04,-5.999999999999999474e-05,0.000000000000000000e+00,3.899999999999999929e-04,7.000000000000000000e+00,2.700000000000000000e+01
7.253500000000000000e+04,1.499999999999999869e-04,-2.000000000000000164e-05,-1.000000000000000082e-05,1.000000000000000048e-04,2.399999999999999790e-04,-1.499999999999999869e-04,5.000000000000000240e-05,-5.599999999999999509e-04,7.000000000000000000e+00,2.700000000000000000e+01
7.253600000000000000e+04,1.499999999999999869e-04,-2.000000000000000164e-05,-1.000000000000000082e-05,1.000000000000000048e-04,2.399999999999999790e-04,-1.499999999999999869e-04,5.000000000000000240e-05,-5.599999999999999509e-04,7.000000000000000000e+00,2.700000000000000000e+01
7.253800000000000000e+04,1.499999999999999869e-04,-2.000000000000000164e-05,-1.000000000000000082e-05,1.000000000000000048e-04,2.399999999999999790e-04,-1.499999999999999869e-04,5.000000000000000240e-05,-5.599999999999999509e-04,7.000000000000000000e+00,2.700000000000000000e+01
7.253900000000000000e+04,1.499999999999999869e-04,-2.000000000000000164e-05,-1.000000000000000082e-05,1.000000000000000048e-04,2.399999999999999790e-04,-1.499999999999999869e-04,5.000000000000000240e-05,-5.599999999999999509e-04,7.000000000000000000e+00,2.700000000000000000e+01
7.254000000000000000e+04,1.499999999999999869e-04,-2.000000000000000164e-05,-1.000000000000000082e-05,1.000000000000000048e-04,2.399999999999999790e-04,-1.499999999999999869e-04,5.000000000000000240e-05,-5.599999999999999509e-04,7.000000000000000000e+00,2.700000000000000000e+01
7.254100000000000000e+04,1.499999999999999869e-04,-2.000000000000000164e-05,-1.000000000000000082e-05,1.000000000000000048e-04,2.399999999999999790e-04,-1.499999999999999869e-04,5.000000000000000240e-05,-5.599999999999999509e-04,7.000000000000000000e+00,2.700000000000000000e+01
7.254200000000000000e+04,1.499999999999999869e-04,-2.000000000000000164e-05,-1.000000000000000082e-05,1.000000000000000048e-04,2.399999999999999790e-04,-1.499999999999999869e-04,5.000000000000000240e-05,-5.599999999999999509e-04,7.000000000000000000e+00,2.700000000000000000e+01
7.254300000000000000e+04,1.499999999999999869e-04,-2.000000000000000164e-05,-1.000000000000000082e-05,1.000000000000000048e-04,2.399999999999999790e-04,-1.499999999999999869e-04,5.000000000000000240e-05,-5.599999999999999509e-04,7.000000000000000000e+00,2.700000000000000000e+01
7.254400000000000000e+04,1.499999999999999869e-04,-2.000000000000000164e-05,-1.000000000000000082e-05,1.000000000000000048e-04,2.399999999999999790e-04,-1.499999999999999869e-04,5.000000000000000240e-05,-5.599999999999999509e-04,7.000000000000000000e+00,2.700000000000000000e+01
7.254500000000000000e+04,1.499999999999999869e-04,-2.000000000000000164e-05,-1.000000000000000082e-05,1.000000000000000048e-04,2.399999999999999790e-04,-1.499999999999999869e-04,5.000000000000000240e-05,-5.599999999999999509e-04,7.000000000000000000e+00,2.700000000000000000e+01
7.254600000000000000e+04,1.499999999999999869e-04,-2.000000000000000164e-05,-1.000000000000000082e-05,1.000000000000000048e-04,2.399999999999999790e-04,-1.499999999999999869e-04,5.000000000000000240e-05,-5.599999999999999509e-04,7.000000000000000000e+00,2.700000000000000000e+01
7.254700000000000000e+04,1.499999999999999869e-04,-2.000000000000000164e-05,-1.000000000000000082e-05,1.000000000000000048e-04,2.399999999999999790e-04,-1.499999999999999869e-04,5.000000000000000240e-05,-5.599999999999999509e-04,7.000000000000000000e+00,2.700000000000000000e+01
7.254800000000000000e+04,1.499999999999999869e-04,-2.000000000000000164e-05,-1.000000000000000082e-05,1.000000000000000048e-04,2.399999999999999790e-04,-1.499999999999999869e-04,5.000000000000000240e-05,-5.599999999999999509e-04,7.000000000000000000e+00,2.700000000000000000e+01
7.254900000000000000e+04,1.499999999999999869e-04,-2.000000000000000164e-05,-1.000000000000000082e-05,1.000000000000000048e-04,2.399999999999999790e-04,-1.499999999999999869e-04,5.000000000000000240e-05,-5.599999999999999509e-04,7.000000000000000000e+00,2.700000000000000000e+01
7.255000000000000000e+04,1.499999999999999869e-04,-2.000000000000000164e-05,-1.000000000000000082e-05,1.000000000000000048e-04,2.399999999999999790e-04,-1.499999999999999869e-04,5.000000000000000240e-05,-5.599999999999999509e-04,7.000000000000000000e+00,2.700000000000000000e+01
7.255100000000000000e+04,1.499999999999999869e-04,-2.000000000000000164e-05,-1.000000000000000082e-05,1.000000000000000048e-04,2.399999999999999790e-04,-1.499999999999999869e-04,5.000000000000000240e-05,-5.599999999999999509e-04,7.000000000000000000e+00,2.700000000000000000e+01
7.255200000000000000e+04,1.499999999999999869e-04,-2.000000000000000164e-05,-1.000000000000000082e-05,1.000000000000000048e-04,2.399999999999999790e-04,-1.499999999999999869e-04,5.000000000000000240e-05,-5.599999999999999509e-04,7.000000000000000000e+00,2.700000000000000000e+01
7.255300000000000000e+04,1.499999999999999869e-04,-2.000000000000000164e-05,-1.000000000000000082e-05,1.000000000000000048e-04,2.399999999999999790e-04,-1.499999999999999869e-04,5.000000000000000240e-05,-5.599999999999999509e-04,7.000000000000000000e+00,2.700000000000000000e+01
7.255400000000000000e+04,1.499999999999999869e-04,-2.000000000000000164e-05,-1.000000000000000082e-05,1.000000000000000048e-04,2.399999999999999790e-04,-1.499999999999999869e-04,5.000000000000000240e-05,-5.599999999999999509e-04,7.000000000000000000e+00,2.700000000000000000e+01
7.255500000000000000e+04,1.499999999999999869e-04,-2.000000000000000164e-05,-1.000000000000000082e-05,1.000000000000000048e-04,2.399999999999999790e-04,-1.499999999999999869e-04,5.000000000000000240e-05,-5.599999999999999509e-04,7.000000000000000000e+00,2.700000000000000000e+01
7.255600000000000000e+04,-1.000000000000000048e-04,-1.000000000000000082e-05,-5.000000000000000240e-05,-1.199999999999999895e-04,-9.499999999999999981e-04,-7.500000000000000156e-04,-8.000000000000000654e-05,-5.500000000000000331e-04,7.000000000000000000e+00,2.700000000000000000e+01
7.255700000000000000e+04,2.999999999999999737e-05,-1.000000000000000082e-05,-4.000000000000000327e-05,-5.999999999999999474e-05,2.000000000000000096e-04,-4.499999999999999877e-04,-1.899999999999999834e-04,6.999999999999999387e-05,7.000000000000000000e+00,2.700000000000000000e+01
7.255800000000000000e+04,2.999999999999999737e-05,-1.000000000000000082e-05,-4.000000000000000327e-05,-5.999999999999999474e-05,2.000000000000000096e-04,-4.499999999999999877e-04,-1.899999999999999834e-04,6.999999999999999387e-05,7.000000000000000000e+00,2.700000000000000000e+01
7.255900000000000000e+04,2.999999999999999737e-05,-1.000000000000000082e-05,-4.000000000000000327e-05,-5.999999999999999474e-05,2.000000000000000096e-04,-4.499999999999999877e-04,-1.899999999999999834e-04,6.999999999999999387e-05,7.000000000000000000e+00,2.700000000000000000e+01
7.256000000000000000e+04,2.999999999999999737e-05,-1.000000000000000082e-05,-4.000000000000000327e-05,-5.999999999999999474e-05,2.000000000000000096e-04,-4.499999999999999877e-04,-1.899999999999999834e-04,6.999999999999999387e-05,7.000000000000000000e+00,2.700000000000000000e+01
7.256100000000000000e+04,2.999999999999999737e-05,-1.000000000000000082e-05,-4.000000000000000327e-05,-5.999999999999999474e-05,2.000000000000000096e-04,-4.499999999999999877e-04,-1.899999999999999834e-04,6.999999999999999387e-05,7.000000000000000000e+00,2.700000000000000000e+01
7.256200000000000000e+04,2.999999999999999737e-05,-1.000000000000000082e-05,-4.000000000000000327e-05,-5.999999999999999474e-05,2.000000000000000096e-04,-4.499999999999999877e-04,-1.899999999999999834e-04,6.999999999999999387e-05,7.000000000000000000e+00,2.700000000000000000e+01
7.256300000000000000e+04,2.999999999999999737e-05,-1.000000000000000082e-05,-4.000000000000000327e-05,-5.999999999999999474e-05,2.000000000000000096e-04,-4.499999999999999877e-04,-1.899999999999999834e-04,6.999999999999999387e-05,7.000000000000000000e+00,2.700000000000000000e+01
7.256400000000000000e+04,2.999999999999999737e-05,-1.000000000000000082e-05,-4.000000000000000327e-05,-5.999999999999999474e-05,2.000000000000000096e-04,-4.499999999999999877e-04,-1.899999999999999834e-04,6.999999999999999387e-05,7.000000000000000000e+00,2.700000000000000000e+01
7.256500000000000000e+04,2.999999999999999737e-05,-1.000000000000000082e-05,-4.000000000000000327e-05,-5.999999999999999474e-05,2.000000000000000096e-04,-4.499999999999999877e-04,-1.899999999999999834e-04,6.999999999999999387e-05,7.000000000000000000e+00,2.700000000000000000e+01
7.256600000000000000e+04,2.999999999999999737e-05,-1.000000000000000082e-05,-4.000000000000000327e-05,-5.999999999999999474e-05,2.000000000000000096e-04,-4.499999999999999877e-04,-1.899999999999999834e-04,6.999999999999999387e-05,7.000000000000000000e+00,2.700000000000000000e+01
7.256700000000000000e+04,2.999999999999999737e-05,-1.000000000000000082e-05,-4.000000000000000327e-05,-5.999999999999999474e-05,2.000000000000000096e-04,-4.499999999999999877e-04,-1.899999999999999834e-04,6.999999999999999387e-05,7.000000000000000000e+00,2.700000000000000000e+01
7.256800000000000000e+04,2.999999999999999737e-05,-1.000000000000000082e-05,-4.000000000000000327e-05,-5.999999999999999474e-05,2.000000000000000096e-04,-4.499999999999999877e-04,-1.899999999999999834e-04,6.999999999999999387e-05,7.000000000000000000e+00,2.700000000000000000e+01
7.256900000000000000e+04,2.999999999999999737e-05,-1.000000000000000082e-05,-4.000000000000000327e-05,-5.999999999999999474e-05,2.000000000000000096e-04,-4.499999999999999877e-04,-1.899999999999999834e-04,6.999999999999999387e-05,7.000000000000000000e+00,2.700000000000000000e+01
7.257000000000000000e+04,2.999999999999999737e-05,-1.000000000000000082e-05,-4.000000000000000327e-05,-5.999999999999999474e-05,2.000000000000000096e-04,-4.499999999999999877e-04,-1.899999999999999834e-04,6.999999999999999387e-05,7.000000000000000000e+00,2.700000000000000000e+01
7.257100000000000000e+04,-2.000000000000000164e-05,-5.999999999999999474e-05,-6.999999999999999387e-05,0.000000000000000000e+00,1.899999999999999834e-04,-1.800000000000000113e-04,-5.999999999999999474e-05,-5.999999999999999474e-05,7.000000000000000000e+00,2.700000000000000000e+01
7.257200000000000000e+04,-2.000000000000000164e-05,-5.999999999999999474e-05,-6.999999999999999387e-05,0.000000000000000000e+00,1.899999999999999834e-04,-1.800000000000000113e-04,-5.999999999999999474e-05,-5.999999999999999474e-05,7.000000000000000000e+00,2.700000000000000000e+01
7.257300000000000000e+04,-2.000000000000000164e-05,-5.999999999999999474e-05,-6.999999999999999387e-05,0.000000000000000000e+00,1.899999999999999834e-04,-1.800000000000000113e-04,-5.999999999999999474e-05,-5.999999999999999474e-05,7.000000000000000000e+00,2.700000000000000000e+01
7.257400000000000000e+04,-2.000000000000000164e-05,-5.999999999999999474e-05,-6.999999999999999387e-05,0.000000000000000000e+00,1.899999999999999834e-04,-1.800000000000000113e-04,-5.999999999999999474e-05,-5.999999999999999474e-05,7.000000000000000000e+00,2.700000000000000000e+01
7.257500000000000000e+04,-2.000000000000000164e-05,-5.999999999999999474e-05,-6.999999999999999387e-05,0.000000000000000000e+00,1.899999999999999834e-04,-1.800000000000000113e-04,-5.999999999999999474e-05,-5.999999999999999474e-05,7.000000000000000000e+00,2.700000000000000000e+01
7.257600000000000000e+04,-2.000000000000000164e-05,-5.999999999999999474e-05,-6.999999999999999387e-05,0.000000000000000000e+00,1.899999999999999834e-04,-1.800000000000000113e-04,-5.999999999999999474e-05,-5.999999999999999474e-05,7.000000000000000000e+00,2.700000000000000000e+01
7.257700000000000000e+04,-1.499999999999999869e-04,-4.000000000000000327e-05,-1.600000000000000131e-04,-2.399999999999999790e-04,2.200000000000000078e-04,-4.099999999999999912e-04,-2.000000000000000096e-04,-3.499999999999999964e-04,7.000000000000000000e+00,2.700000000000000000e+01
7.257800000000000000e+04,-1.499999999999999869e-04,-4.000000000000000327e-05,-1.600000000000000131e-04,-2.399999999999999790e-04,2.200000000000000078e-04,-4.099999999999999912e-04,-2.000000000000000096e-04,-3.499999999999999964e-04,7.000000000000000000e+00,2.700000000000000000e+01
7.257900000000000000e+04,-1.499999999999999869e-04,-4.000000000000000327e-05,-1.600000000000000131e-04,-2.399999999999999790e-04,2.200000000000000078e-04,-4.099999999999999912e-04,-2.000000000000000096e-04,-3.499999999999999964e-04,7.000000000000000000e+00,2.700000000000000000e+01
7.258000000000000000e+04,-1.499999999999999869e-04,-4.000000000000000327e-05,-1.600000000000000131e-04,-2.399999999999999790e-04,2.200000000000000078e-04,-4.099999999999999912e-04,-2.000000000000000096e-04,-3.499999999999999964e-04,7.000000000000000000e+00,2.700000000000000000e+01
7.258100000000000000e+04,-1.499999999999999869e-04,-4.000000000000000327e-05,-1.600000000000000131e-04,-2.399999999999999790e-04,2.200000000000000078e-04,-4.099999999999999912e-04,-2.000000000000000096e-04,-3.499999999999999964e-04,7.000000000000000000e+00,2.700000000000000000e+01
7.258200000000000000e+04,-1.499999999999999869e-04,-4.000000000000000327e-05,-1.600000000000000131e-04,-2.399999999999999790e-04,2.200000000000000078e-04,-4.099999999999999912e-04,-2.000000000000000096e-04,-3.499999999999999964e-04,7.000000000000000000e+00,2.700000000000000000e+01
7.258300000000000000e+04,-1.499999999999999869e-04,-4.000000000000000327e-05,-1.600000000000000131e-04,-2.399999999999999790e-04,2.200000000000000078e-04,-4.099999999999999912e-04,-2.000000000000000096e-04,-3.499999999999999964e-04,7.000000000000000000e+00,2.700000000000000000e+01
7.258400000000000000e+04,-1.499999999999999869e-04,-4.000000000000000327e-05,-1.600000000000000131e-04,-2.399999999999999790e-04,2.200000000000000078e-04,-4.099999999999999912e-04,-2.000000000000000096e-04,-3.499999999999999964e-04,7.000000000000000000e+00,2.700000000000000000e+01
7.258500000000000000e+04,-1.499999999999999869e-04,-4.000000000000000327e-05,-1.600000000000000131e-04,-2.399999999999999790e-04,2.200000000000000078e-04,-4.099999999999999912e-04,-2.000000000000000096e-04,-3.499999999999999964e-04,7.000000000000000000e+00,2.700000000000000000e+01
7.258600000000000000e+04,-1.499999999999999869e-04,-4.000000000000000327e-05,-1.600000000000000131e-04,-2.399999999999999790e-04,2.200000000000000078e-04,-4.099999999999999912e-04,-2.000000000000000096e-04,-3.499999999999999964e-04,7.000000000000000000e+00,2.700000000000000000e+01
7.258900000000000000e+04,-1.499999999999999869e-04,-4.000000000000000327e-05,-1.600000000000000131e-04,-2.399999999999999790e-04,2.200000000000000078e-04,-4.099999999999999912e-04,-2.000000000000000096e-04,-3.499999999999999964e-04,7.000000000000000000e+00,2.700000000000000000e+01
7.259000000000000000e+04,-1.499999999999999869e-04,-4.000000000000000327e-05,-1.600000000000000131e-04,-2.399999999999999790e-04,2.200000000000000078e-04,-4.099999999999999912e-04,-2.000000000000000096e-04,-3.499999999999999964e-04,7.000000000000000000e+00,2.700000000000000000e+01
7.259100000000000000e+04,-1.499999999999999869e-04,-4.000000000000000327e-05,-1.600000000000000131e-04,-2.399999999999999790e-04,2.200000000000000078e-04,-4.099999999999999912e-04,-2.000000000000000096e-04,-3.499999999999999964e-04,7.000000000000000000e+00,2.700000000000000000e+01
7.259200000000000000e+04,-1.499999999999999869e-04,-4.000000000000000327e-05,-1.600000000000000131e-04,-2.399999999999999790e-04,2.200000000000000078e-04,-4.099999999999999912e-04,-2.000000000000000096e-04,-3.499999999999999964e-04,7.000000000000000000e+00,2.700000000000000000e+01
7.259300000000000000e+04,-1.499999999999999869e-04,-4.000000000000000327e-05,-1.600000000000000131e-04,-2.399999999999999790e-04,2.200000000000000078e-04,-4.099999999999999912e-04,-2.000000000000000096e-04,-3.499999999999999964e-04,7.000000000000000000e+00,2.700000000000000000e+01
7.259400000000000000e+04,-2.600000000000000314e-04,0.000000000000000000e+00,1.000000000000000082e-05,5.000000000000000240e-05,1.600000000000000131e-04,-5.999999999999999474e-05,-9.000000000000000567e-05,-4.400000000000000157e-04,7.000000000000000000e+00,2.700000000000000000e+01
7.259500000000000000e+04,-3.600000000000000227e-04,1.000000000000000082e-05,6.999999999999999387e-05,2.999999999999999737e-05,8.000000000000000654e-05,9.000000000000000567e-05,-1.000000000000000082e-05,-7.700000000000000681e-04,7.000000000000000000e+00,2.700000000000000000e+01
7.259600000000000000e+04,-3.600000000000000227e-04,1.000000000000000082e-05,6.999999999999999387e-05,2.999999999999999737e-05,8.000000000000000654e-05,9.000000000000000567e-05,-1.000000000000000082e-05,-7.700000000000000681e-04,7.000000000000000000e+00,2.700000000000000000e+01
7.259700000000000000e+04,-3.600000000000000227e-04,1.000000000000000082e-05,6.999999999999999387e-05,2.999999999999999737e-05,8.000000000000000654e-05,9.000000000000000567e-05,-1.000000000000000082e-05,-7.700000000000000681e-04,7.000000000000000000e+00,2.700000000000000000e+01
7.259800000000000000e+04,-3.600000000000000227e-04,1.000000000000000082e-05,6.999999999999999387e-05,2.999999999999999737e-05,8.000000000000000654e-05,9.000000000000000567e-05,-1.000000000000000082e-05,-7.700000000000000681e-04,7.000000000000000000e+00,2.700000000000000000e+01
7.259900000000000000e+04,-3.600000000000000227e-04,1.000000000000000082e-05,6.999999999999999387e-05,2.999999999999999737e-05,8.000000000000000654e-05,9.000000000000000567e-05,-1.000000000000000082e-05,-7.700000000000000681e-04,7.000000000000000000e+00,2.700000000000000000e+01
7.260100000000000000e+04,-3.600000000000000227e-04,1.000000000000000082e-05,6.999999999999999387e-05,2.999999999999999737e-05,8.000000000000000654e-05,9.000000000000000567e-05,-1.000000000000000082e-05,-7.700000000000000681e-04,7.000000000000000000e+00,2.700000000000000000e+01
7.260200000000000000e+04,-3.600000000000000227e-04,1.000000000000000082e-05,6.999999999999999387e-05,2.999999999999999737e-05,8.000000000000000654e-05,9.000000000000000567e-05,-1.000000000000000082e-05,-7.700000000000000681e-04,7.000000000000000000e+00,2.700000000000000000e+01
7.260300000000000000e+04,-3.600000000000000227e-04,1.000000000000000082e-05,6.999999999999999387e-05,2.999999999999999737e-05,8.000000000000000654e-05,9.000000000000000567e-05,-1.000000000000000082e-05,-7.700000000000000681e-04,7.000000000000000000e+00,2.700000000000000000e+01
7.260400000000000000e+04,-3.600000000000000227e-04,1.000000000000000082e-05,6.999999999999999387e-05,2.999999999999999737e-05,8.000000000000000654e-05,9.000000000000000567e-05,-1.000000000000000082e-05,-7.700000000000000681e-04,7.000000000000000000e+00,2.700000000000000000e+01
7.260500000000000000e+04,-3.600000000000000227e-04,1.000000000000000082e-05,6.999999999999999387e-05,2.999999999999999737e-05,8.000000000000000654e-05,9.000000000000000567e-05,-1.000000000000000082e-05,-7.700000000000000681e-04,7.000000000000000000e+00,2.700000000000000000e+01
7.260600000000000000e+04,-3.600000000000000227e-04,1.000000000000000082e-05,6.999999999999999387e-05,2.999999999999999737e-05,8.000000000000000654e-05,9.000000000000000567e-05,-1.000000000000000082e-05,-7.700000000000000681e-04,7.000000000000000000e+00,2.700000000000000000e+01
7.260700000000000000e+04,-3.600000000000000227e-04,1.000000000000000082e-05,6.999999999999999387e-05,2.999999999999999737e-05,8.000000000000000654e-05,9.000000000000000567e-05,-1.000000000000000082e-05,-7.700000000000000681e-04,7.000000000000000000e+00,2.700000000000000000e+01
7.260800000000000000e+04,-3.600000000000000227e-04,1.000000000000000082e-05,6.999999999999999387e-05,2.999999999999999737e-05,8.000000000000000654e-05,9.000000000000000567e-05,-1.000000000000000082e-05,-7.700000000000000681e-04,7.000000000000000000e+00,2.700000000000000000e+01
7.260900000000000000e+04,-3.600000000000000227e-04,1.000000000000000082e-05,6.999999999999999387e-05,2.999999999999999737e-05,8.000000000000000654e-05,9.000000000000000567e-05,-1.000000000000000082e-05,-7.700000000000000681e-04,7.000000000000000000e+00,2.700000000000000000e+01
7.261000000000000000e+04,-3.600000000000000227e-04,1.000000000000000082e-05,6.999999999999999387e-05,2.999999999999999737e-05,8.000000000000000654e-05,9.000000000000000567e-05,-1.000000000000000082e-05,-7.700000000000000681e-04,7.000000000000000000e+00,2.700000000000000000e+01
7.261100000000000000e+04,-3.600000000000000227e-04,1.000000000000000082e-05,6.999999999999999387e-05,2.999999999999999737e-05,8.000000000000000654e-05,9.000000000000000567e-05,-1.000000000000000082e-05,-7.700000000000000681e-04,7.000000000000000000e+00,2.700000000000000000e+01
7.261200000000000000e+04,-3.600000000000000227e-04,1.000000000000000082e-05,6.999999999999999387e-05,2.999999999999999737e-05,8.000000000000000654e-05,9.000000000000000567e-05,-1.000000000000000082e-05,-7.700000000000000681e-04,7.000000000000000000e+00,2.700000000000000000e+01
7.261300000000000000e+04,-3.600000000000000227e-04,1.000000000000000082e-05,6.999999999999999387e-05,2.999999999999999737e-05,8.000000000000000654e-05,9.000000000000000567e-05,-1.000000000000000082e-05,-7.700000000000000681e-04,7.000000000000000000e+00,2.700000000000000000e+01
7.261400000000000000e+04,-3.600000000000000227e-04,1.000000000000000082e-05,6.999999999999999387e-05,2.999999999999999737e-05,8.000000000000000654e-05,9.000000000000000567e-05,-1.000000000000000082e-05,-7.700000000000000681e-04,7.000000000000000000e+00,2.700000000000000000e+01
7.261500000000000000e+04,-3.600000000000000227e-04,1.000000000000000082e-05,6.999999999999999387e-05,2.999999999999999737e-05,8.000000000000000654e-05,9.000000000000000567e-05,-1.000000000000000082e-05,-7.700000000000000681e-04,7.000000000000000000e+00,2.700000000000000000e+01
7.261600000000000000e+04,5.000000000000000240e-05,-2.999999999999999737e-05,-5.000000000000000240e-05,6.999999999999999387e-05,5.900000000000000296e-04,5.000000000000000104e-04,-9.000000000000000567e-05,-1.699999999999999851e-04,7.000000000000000000e+00,2.700000000000000000e+01
7.261700000000000000e+04,6.999999999999999387e-05,1.000000000000000082e-05,4.000000000000000327e-05,6.999999999999999387e-05,-5.999999999999999474e-05,6.999999999999999929e-04,1.800000000000000113e-04,-2.600000000000000314e-04,7.000000000000000000e+00,2.700000000000000000e+01
7.261800000000000000e+04,6.999999999999999387e-05,1.000000000000000082e-05,4.000000000000000327e-05,6.999999999999999387e-05,-5.999999999999999474e-05,6.999999999999999929e-04,1.800000000000000113e-04,-2.600000000000000314e-04,7.000000000000000000e+00,2.700000000000000000e+01
7.261900000000000000e+04,6.999999999999999387e-05,1.000000000000000082e-05,4.000000000000000327e-05,6.999999999999999387e-05,-5.999999999999999474e-05,6.999999999999999929e-04,1.800000000000000113e-04,-2.600000000000000314e-04,7.000000000000000000e+00,2.700000000000000000e+01
7.262000000000000000e+04,6.999999999999999387e-05,1.000000000000000082e-05,4.000000000000000327e-05,6.999999999999999387e-05,-5.999999999999999474e-05,6.999999999999999929e-04,1.800000000000000113e-04,-2.600000000000000314e-04,7.000000000000000000e+00,2.700000000000000000e+01
7.262100000000000000e+04,6.999999999999999387e-05,1.000000000000000082e-05,4.000000000000000327e-05,6.999999999999999387e-05,-5.999999999999999474e-05,6.999999999999999929e-04,1.800000000000000113e-04,-2.600000000000000314e-04,7.000000000000000000e+00,2.700000000000000000e+01
7.262200000000000000e+04,6.999999999999999387e-05,1.000000000000000082e-05,4.000000000000000327e-05,6.999999999999999387e-05,-5.999999999999999474e-05,6.999999999999999929e-04,1.800000000000000113e-04,-2.600000000000000314e-04,7.000000000000000000e+00,2.700000000000000000e+01
7.262300000000000000e+04,6.999999999999999387e-05,1.000000000000000082e-05,4.000000000000000327e-05,6.999999999999999387e-05,-5.999999999999999474e-05,6.999999999999999929e-04,1.800000000000000113e-04,-2.600000000000000314e-04,7.000000000000000000e+00,2.700000000000000000e+01
7.262400000000000000e+04,6.999999999999999387e-05,1.000000000000000082e-05,4.000000000000000327e-05,6.999999999999999387e-05,-5.999999999999999474e-05,6.999999999999999929e-04,1.800000000000000113e-04,-2.600000000000000314e-04,7.000000000000000000e+00,2.700000000000000000e+01
7.262500000000000000e+04,6.999999999999999387e-05,1.000000000000000082e-05,4.000000000000000327e-05,6.999999999999999387e-05,-5.999999999999999474e-05,6.999999999999999929e-04,1.800000000000000113e-04,-2.600000000000000314e-04,7.000000000000000000e+00,2.700000000000000000e+01
7.262600000000000000e+04,6.999999999999999387e-05,1.000000000000000082e-05,4.000000000000000327e-05,6.999999999999999387e-05,-5.999999999999999474e-05,6.999999999999999929e-04,1.800000000000000113e-04,-2.600000000000000314e-04,7.000000000000000000e+00,2.700000000000000000e+01
7.262700000000000000e+04,6.999999999999999387e-05,1.000000000000000082e-05,4.000000000000000327e-05,6.999999999999999387e-05,-5.999999999999999474e-05,6.999999999999999929e-04,1.800000000000000113e-04,-2.600000000000000314e-04,7.000000000000000000e+00,2.700000000000000000e+01
7.262800000000000000e+04,6.999999999999999387e-05,1.000000000000000082e-05,4.000000000000000327e-05,6.999999999999999387e-05,-5.999999999999999474e-05,6.999999999999999929e-04,1.800000000000000113e-04,-2.600000000000000314e-04,7.000000000000000000e+00,2.700000000000000000e+01
7.262900000000000000e+04,6.999999999999999387e-05,1.000000000000000082e-05,4.000000000000000327e-05,6.999999999999999387e-05,-5.999999999999999474e-05,6.999999999999999929e-04,1.800000000000000113e-04,-2.600000000000000314e-04,7.000000000000000000e+00,2.700000000000000000e+01
7.263000000000000000e+04,-5.900000000000000296e-04,-2.999999999999999737e-05,0.000000000000000000e+00,-1.000000000000000082e-05,-2.299999999999999799e-04,1.699999999999999851e-04,2.999999999999999737e-05,-3.499999999999999964e-04,7.000000000000000000e+00,2.700000000000000000e+01
7.263100000000000000e+04,-5.900000000000000296e-04,-2.999999999999999737e-05,0.000000000000000000e+00,-1.000000000000000082e-05,-2.299999999999999799e-04,1.699999999999999851e-04,2.999999999999999737e-05,-3.499999999999999964e-04,7.000000000000000000e+00,2.700000000000000000e+01
7.263200000000000000e+04,-5.900000000000000296e-04,-2.999999999999999737e-05,0.000000000000000000e+00,-1.000000000000000082e-05,-2.299999999999999799e-04,1.699999999999999851e-04,2.999999999999999737e-05,-3.499999999999999964e-04,7.000000000000000000e+00,2.700000000000000000e+01
7.263300000000000000e+04,-5.900000000000000296e-04,-2.999999999999999737e-05,0.000000000000000000e+00,-1.000000000000000082e-05,-2.299999999999999799e-04,1.699999999999999851e-04,2.999999999999999737e-05,-3.499999999999999964e-04,7.000000000000000000e+00,2.700000000000000000e+01
7.263400000000000000e+04,-5.900000000000000296e-04,-2.999999999999999737e-05,0.000000000000000000e+00,-1.000000000000000082e-05,-2.299999999999999799e-04,1.699999999999999851e-04,2.999999999999999737e-05,-3.499999999999999964e-04,7.000000000000000000e+00,2.700000000000000000e+01
7.263500000000000000e+04,-5.900000000000000296e-04,-2.999999999999999737e-05,0.000000000000000000e+00,-1.000000000000000082e-05,-2.299999999999999799e-04,1.699999999999999851e-04,2.999999999999999737e-05,-3.499999999999999964e-04,7.000000000000000000e+00,2.700000000000000000e+01
7.263600000000000000e+04,-5.900000000000000296e-04,-2.999999999999999737e-05,0.000000000000000000e+00,-1.000000000000000082e-05,-2.299999999999999799e-04,1.699999999999999851e-04,2.999999999999999737e-05,-3.499999999999999964e-04,7.000000000000000000e+00,2.700000000000000000e+01
7.263800000000000000e+04,5.699999999999999772e-04,1.000000000000000082e-05,-2.000000000000000164e-05,1.000000000000000082e-05,1.300000000000000157e-04,-3.799999999999999667e-04,-8.000000000000000654e-05,3.699999999999999947e-04,7.000000000000000000e+00,2.700000000000000000e+01
7.263900000000000000e+04,5.699999999999999772e-04,1.000000000000000082e-05,-2.000000000000000164e-05,1.000000000000000082e-05,1.300000000000000157e-04,-3.799999999999999667e-04,-8.000000000000000654e-05,3.699999999999999947e-04,7.000000000000000000e+00,2.700000000000000000e+01
7.264000000000000000e+04,5.699999999999999772e-04,1.000000000000000082e-05,-2.000000000000000164e-05,1.000000000000000082e-05,1.300000000000000157e-04,-3.799999999999999667e-04,-8.000000000000000654e-05,3.699999999999999947e-04,7.000000000000000000e+00,2.700000000000000000e+01
7.264100000000000000e+04,5.699999999999999772e-04,1.000000000000000082e-05,-2.000000000000000164e-05,1.000000000000000082e-05,1.300000000000000157e-04,-3.799999999999999667e-04,-8.000000000000000654e-05,3.699999999999999947e-04,7.000000000000000000e+00,2.700000000000000000e+01
7.264200000000000000e+04,5.699999999999999772e-04,1.000000000000000082e-05,-2.000000000000000164e-05,1.000000000000000082e-05,1.300000000000000157e-04,-3.799999999999999667e-04,-8.000000000000000654e-05,3.699999999999999947e-04,7.000000000000000000e+00,2.700000000000000000e+01
7.264300000000000000e+04,5.699999999999999772e-04,1.000000000000000082e-05,-2.000000000000000164e-05,1.000000000000000082e-05,1.300000000000000157e-04,-3.799999999999999667e-04,-8.000000000000000654e-05,3.699999999999999947e-04,7.000000000000000000e+00,2.700000000000000000e+01
7.264400000000000000e+04,5.699999999999999772e-04,1.000000000000000082e-05,-2.000000000000000164e-05,1.000000000000000082e-05,1.300000000000000157e-04,-3.799999999999999667e-04,-8.000000000000000654e-05,3.699999999999999947e-04,7.000000000000000000e+00,2.700000000000000000e+01
7.264500000000000000e+04,5.699999999999999772e-04,1.000000000000000082e-05,-2.000000000000000164e-05,1.000000000000000082e-05,1.300000000000000157e-04,-3.799999999999999667e-04,-8.000000000000000654e-05,3.699999999999999947e-04,7.000000000000000000e+00,2.700000000000000000e+01
7.264600000000000000e+04,5.699999999999999772e-04,1.000000000000000082e-05,-2.000000000000000164e-05,1.000000000000000082e-05,1.300000000000000157e-04,-3.799999999999999667e-04,-8.000000000000000654e-05,3.699999999999999947e-04,7.000000000000000000e+00,2.700000000000000000e+01
7.264700000000000000e+04,5.699999999999999772e-04,1.000000000000000082e-05,-2.000000000000000164e-05,1.000000000000000082e-05,1.300000000000000157e-04,-3.799999999999999667e-04,-8.000000000000000654e-05,3.699999999999999947e-04,7.000000000000000000e+00,2.700000000000000000e+01
7.264800000000000000e+04,5.699999999999999772e-04,1.000000000000000082e-05,-2.000000000000000164e-05,1.000000000000000082e-05,1.300000000000000157e-04,-3.799999999999999667e-04,-8.000000000000000654e-05,3.699999999999999947e-04,7.000000000000000000e+00,2.700000000000000000e+01
7.264900000000000000e+04,5.699999999999999772e-04,1.000000000000000082e-05,-2.000000000000000164e-05,1.000000000000000082e-05,1.300000000000000157e-04,-3.799999999999999667e-04,-8.000000000000000654e-05,3.699999999999999947e-04,7.000000000000000000e+00,2.700000000000000000e+01
7.265000000000000000e+04,5.699999999999999772e-04,1.000000000000000082e-05,-2.000000000000000164e-05,1.000000000000000082e-05,1.300000000000000157e-04,-3.799999999999999667e-04,-8.000000000000000654e-05,3.699999999999999947e-04,7.000000000000000000e+00,2.700000000000000000e+01
7.265100000000000000e+04,5.699999999999999772e-04,1.000000000000000082e-05,-2.000000000000000164e-05,1.000000000000000082e-05,1.300000000000000157e-04,-3.799999999999999667e-04,-8.000000000000000654e-05,3.699999999999999947e-04,7.000000000000000000e+00,2.700000000000000000e+01
7.265200000000000000e+04,5.699999999999999772e-04,1.000000000000000082e-05,-2.000000000000000164e-05,1.000000000000000082e-05,1.300000000000000157e-04,-3.799999999999999667e-04,-8.000000000000000654e-05,3.699999999999999947e-04,7.000000000000000000e+00,2.700000000000000000e+01
7.265300000000000000e+04,5.699999999999999772e-04,1.000000000000000082e-05,-2.000000000000000164e-05,1.000000000000000082e-05,1.300000000000000157e-04,-3.799999999999999667e-04,-8.000000000000000654e-05,3.699999999999999947e-04,7.000000000000000000e+00,2.700000000000000000e+01
7.265400000000000000e+04,6.599999999999999964e-04,4.000000000000000327e-05,-1.000000000000000082e-05,-1.199999999999999895e-04,-2.900000000000000017e-04,5.400000000000000069e-04,5.999999999999999474e-05,3.099999999999999999e-04,7.000000000000000000e+00,2.700000000000000000e+01
7.265500000000000000e+04,6.599999999999999964e-04,4.000000000000000327e-05,-1.000000000000000082e-05,-1.199999999999999895e-04,-2.900000000000000017e-04,5.400000000000000069e-04,5.999999999999999474e-05,3.099999999999999999e-04,7.000000000000000000e+00,2.700000000000000000e+01
7.265600000000000000e+04,2.600000000000000314e-04,-1.000000000000000082e-05,1.000000000000000082e-05,8.000000000000000654e-05,3.099999999999999999e-04,-2.900000000000000017e-04,4.000000000000000327e-05,4.599999999999999597e-04,7.000000000000000000e+00,2.700000000000000000e+01
7.265700000000000000e+04,2.600000000000000314e-04,-1.000000000000000082e-05,1.000000000000000082e-05,8.000000000000000654e-05,3.099999999999999999e-04,-2.900000000000000017e-04,4.000000000000000327e-05,4.599999999999999597e-04,7.000000000000000000e+00,2.700000000000000000e+01
7.265800000000000000e+04,2.600000000000000314e-04,-1.000000000000000082e-05,1.000000000000000082e-05,8.000000000000000654e-05,3.099999999999999999e-04,-2.900000000000000017e-04,4.000000000000000327e-05,4.599999999999999597e-04,7.000000000000000000e+00,2.700000000000000000e+01
7.265900000000000000e+04,2.600000000000000314e-04,-1.000000000000000082e-05,1.000000000000000082e-05,8.000000000000000654e-05,3.099999999999999999e-04,-2.900000000000000017e-04,4.000000000000000327e-05,4.599999999999999597e-04,7.000000000000000000e+00,2.700000000000000000e+01
7.266000000000000000e+04,2.600000000000000314e-04,-1.000000000000000082e-05,1.000000000000000082e-05,8.000000000000000654e-05,3.099999999999999999e-04,-2.900000000000000017e-04,4.000000000000000327e-05,4.599999999999999597e-04,7.000000000000000000e+00,2.700000000000000000e+01
7.266100000000000000e+04,2.600000000000000314e-04,-1.000000000000000082e-05,1.000000000000000082e-05,8.000000000000000654e-05,3.099999999999999999e-04,-2.900000000000000017e-04,4.000000000000000327e-05,4.599999999999999597e-04,7.000000000000000000e+00,2.700000000000000000e+01
7.266200000000000000e+04,2.600000000000000314e-04,-1.000000000000000082e-05,1.000000000000000082e-05,8.000000000000000654e-05,3.099999999999999999e-04,-2.900000000000000017e-04,4.000000000000000327e-05,4.599999999999999597e-04,7.000000000000000000e+00,2.700000000000000000e+01
7.266300000000000000e+04,2.600000000000000314e-04,-1.000000000000000082e-05,1.000000000000000082e-05,8.000000000000000654e-05,3.099999999999999999e-04,-2.900000000000000017e-04,4.000000000000000327e-05,4.599999999999999597e-04,7.000000000000000000e+00,2.700000000000000000e+01
7.266400000000000000e+04,2.600000000000000314e-04,-1.000000000000000082e-05,1.000000000000000082e-05,8.000000000000000654e-05,3.099999999999999999e-04,-2.900000000000000017e-04,4.000000000000000327e-05,4.599999999999999597e-04,7.000000000000000000e+00,2.700000000000000000e+01
7.266500000000000000e+04,2.600000000000000314e-04,-1.000000000000000082e-05,1.000000000000000082e-05,8.000000000000000654e-05,3.099999999999999999e-04,-2.900000000000000017e-04,4.000000000000000327e-05,4.599999999999999597e-04,7.000000000000000000e+00,2.700000000000000000e+01
7.266600000000000000e+04,2.600000000000000314e-04,-1.000000000000000082e-05,1.000000000000000082e-05,8.000000000000000654e-05,3.099999999999999999e-04,-2.900000000000000017e-04,4.000000000000000327e-05,4.599999999999999597e-04,7.000000000000000000e+00,2.700000000000000000e+01
7.266700000000000000e+04,2.600000000000000314e-04,-1.000000000000000082e-05,1.000000000000000082e-05,8.000000000000000654e-05,3.099999999999999999e-04,-2.900000000000000017e-04,4.000000000000000327e-05,4.599999999999999597e-04,7.000000000000000000e+00,2.700000000000000000e+01
7.266800000000000000e+04,2.600000000000000314e-04,-1.000000000000000082e-05,1.000000000000000082e-05,8.000000000000000654e-05,3.099999999999999999e-04,-2.900000000000000017e-04,4.000000000000000327e-05,4.599999999999999597e-04,7.000000000000000000e+00,2.700000000000000000e+01
7.266900000000000000e+04,2.600000000000000314e-04,-1.000000000000000082e-05,1.000000000000000082e-05,8.000000000000000654e-05,3.099999999999999999e-04,-2.900000000000000017e-04,4.000000000000000327e-05,4.599999999999999597e-04,7.000000000000000000e+00,2.700000000000000000e+01
7.267000000000000000e+04,2.600000000000000314e-04,-1.000000000000000082e-05,1.000000000000000082e-05,8.000000000000000654e-05,3.099999999999999999e-04,-2.900000000000000017e-04,4.000000000000000327e-05,4.599999999999999597e-04,7.000000000000000000e+00,2.700000000000000000e+01
7.267100000000000000e+04,2.600000000000000314e-04,-1.000000000000000082e-05,1.000000000000000082e-05,8.000000000000000654e-05,3.099999999999999999e-04,-2.900000000000000017e-04,4.000000000000000327e-05,4.599999999999999597e-04,7.000000000000000000e+00,2.700000000000000000e+01
7.267200000000000000e+04,2.600000000000000314e-04,-1.000000000000000082e-05,1.000000000000000082e-05,8.000000000000000654e-05,3.099999999999999999e-04,-2.900000000000000017e-04,4.000000000000000327e-05,4.599999999999999597e-04,7.000000000000000000e+00,2.700000000000000000e+01
7.267300000000000000e+04,2.600000000000000314e-04,-1.000000000000000082e-05,1.000000000000000082e-05,8.000000000000000654e-05,3.099999999999999999e-04,-2.900000000000000017e-04,4.000000000000000327e-05,4.599999999999999597e-04,7.000000000000000000e+00,2.700000000000000000e+01
7.267400000000000000e+04,2.600000000000000314e-04,-1.000000000000000082e-05,1.000000000000000082e-05,8.000000000000000654e-05,3.099999999999999999e-04,-2.900000000000000017e-04,4.000000000000000327e-05,4.599999999999999597e-04,7.000000000000000000e+00,2.700000000000000000e+01
7.267500000000000000e+04,2.600000000000000314e-04,-1.000000000000000082e-05,1.000000000000000082e-05,8.000000000000000654e-05,3.099999999999999999e-04,-2.900000000000000017e-04,4.000000000000000327e-05,4.599999999999999597e-04,7.000000000000000000e+00,2.700000000000000000e+01
7.267600000000000000e+04,-1.199999999999999895e-04,-2.000000000000000164e-05,5.999999999999999474e-05,5.999999999999999474e-05,6.599999999999999964e-04,-4.599999999999999597e-04,-1.300000000000000157e-04,8.400000000000000348e-04,7.000000000000000000e+00,2.700000000000000000e+01
7.267700000000000000e+04,-2.000000000000000096e-04,-2.000000000000000164e-05,0.000000000000000000e+00,0.000000000000000000e+00,-1.399999999999999877e-04,3.299999999999999982e-04,2.999999999999999737e-05,3.699999999999999947e-04,7.000000000000000000e+00,2.700000000000000000e+01
7.267800000000000000e+04,-2.000000000000000096e-04,-2.000000000000000164e-05,0.000000000000000000e+00,0.000000000000000000e+00,-1.399999999999999877e-04,3.299999999999999982e-04,2.999999999999999737e-05,3.699999999999999947e-04,7.000000000000000000e+00,2.700000000000000000e+01
7.267900000000000000e+04,-2.000000000000000096e-04,-2.000000000000000164e-05,0.000000000000000000e+00,0.000000000000000000e+00,-1.399999999999999877e-04,3.299999999999999982e-04,2.999999999999999737e-05,3.699999999999999947e-04,7.000000000000000000e+00,2.700000000000000000e+01
7.268000000000000000e+04,-2.000000000000000096e-04,-2.000000000000000164e-05,0.000000000000000000e+00,0.000000000000000000e+00,-1.399999999999999877e-04,3.299999999999999982e-04,2.999999999999999737e-05,3.699999999999999947e-04,7.000000000000000000e+00,2.700000000000000000e+01
7.268100000000000000e+04,-2.000000000000000096e-04,-2.000000000000000164e-05,0.000000000000000000e+00,0.000000000000000000e+00,-1.399999999999999877e-04,3.299999999999999982e-04,2.999999999999999737e-05,3.699999999999999947e-04,7.000000000000000000e+00,2.700000000000000000e+01
7.268200000000000000e+04,-2.000000000000000096e-04,-2.000000000000000164e-05,0.000000000000000000e+00,0.000000000000000000e+00,-1.399999999999999877e-04,3.299999999999999982e-04,2.999999999999999737e-05,3.699999999999999947e-04,7.000000000000000000e+00,2.700000000000000000e+01
7.268300000000000000e+04,-2.000000000000000096e-04,-2.000000000000000164e-05,0.000000000000000000e+00,0.000000000000000000e+00,-1.399999999999999877e-04,3.299999999999999982e-04,2.999999999999999737e-05,3.699999999999999947e-04,7.000000000000000000e+00,2.700000000000000000e+01
7.268400000000000000e+04,-2.000000000000000096e-04,-2.000000000000000164e-05,0.000000000000000000e+00,0.000000000000000000e+00,-1.399999999999999877e-04,3.299999999999999982e-04,2.999999999999999737e-05,3.699999999999999947e-04,7.000000000000000000e+00,2.700000000000000000e+01
7.268500000000000000e+04,-2.000000000000000096e-04,-2.000000000000000164e-05,0.000000000000000000e+00,0.000000000000000000e+00,-1.399999999999999877e-04,3.299999999999999982e-04,2.999999999999999737e-05,3.699999999999999947e-04,7.000000000000000000e+00,2.700000000000000000e+01
7.268600000000000000e+04,-2.000000000000000096e-04,-2.000000000000000164e-05,0.000000000000000000e+00,0.000000000000000000e+00,-1.399999999999999877e-04,3.299999999999999982e-04,2.999999999999999737e-05,3.699999999999999947e-04,7.000000000000000000e+00,2.700000000000000000e+01
7.268900000000000000e+04,-2.000000000000000096e-04,-2.000000000000000164e-05,0.000000000000000000e+00,0.000000000000000000e+00,-1.399999999999999877e-04,3.299999999999999982e-04,2.999999999999999737e-05,3.699999999999999947e-04,7.000000000000000000e+00,2.700000000000000000e+01
7.269000000000000000e+04,-2.000000000000000164e-05,-2.999999999999999737e-05,-1.000000000000000082e-05,-2.999999999999999737e-05,-2.500000000000000052e-04,-1.000000000000000082e-05,-6.999999999999999387e-05,8.000000000000000654e-05,7.000000000000000000e+00,2.700000000000000000e+01
7.269100000000000000e+04,-2.000000000000000164e-05,-2.999999999999999737e-05,-1.000000000000000082e-05,-2.999999999999999737e-05,-2.500000000000000052e-04,-1.000000000000000082e-05,-6.999999999999999387e-05,8.000000000000000654e-05,7.000000000000000000e+00,2.700000000000000000e+01
7.269200000000000000e+04,-2.000000000000000164e-05,-2.999999999999999737e-05,-1.000000000000000082e-05,-2.999999999999999737e-05,-2.500000000000000052e-04,-1.000000000000000082e-05,-6.999999999999999387e-05,8.000000000000000654e-05,7.000000000000000000e+00,2.700000000000000000e+01
7.269300000000000000e+04,-2.000000000000000164e-05,-2.999999999999999737e-05,-1.000000000000000082e-05,-2.999999999999999737e-05,-2.500000000000000052e-04,-1.000000000000000082e-05,-6.999999999999999387e-05,8.000000000000000654e-05,7.000000000000000000e+00,2.700000000000000000e+01
7.269400000000000000e+04,-2.000000000000000164e-05,-2.999999999999999737e-05,-1.000000000000000082e-05,-2.999999999999999737e-05,-2.500000000000000052e-04,-1.000000000000000082e-05,-6.999999999999999387e-05,8.000000000000000654e-05,7.000000000000000000e+00,2.700000000000000000e+01
7.269500000000000000e+04,-2.000000000000000164e-05,-2.999999999999999737e-05,-1.000000000000000082e-05,-2.999999999999999737e-05,-2.500000000000000052e-04,-1.000000000000000082e-05,-6.999999999999999387e-05,8.000000000000000654e-05,7.000000000000000000e+00,2.700000000000000000e+01
7.269600000000000000e+04,-2.000000000000000164e-05,-2.999999999999999737e-05,-1.000000000000000082e-05,-2.999999999999999737e-05,-2.500000000000000052e-04,-1.000000000000000082e-05,-6.999999999999999387e-05,8.000000000000000654e-05,7.000000000000000000e+00,2.700000000000000000e+01
7.269700000000000000e+04,-1.199999999999999895e-04,0.000000000000000000e+00,-1.000000000000000082e-05,4.000000000000000327e-05,1.000000000000000048e-04,7.599999999999999334e-04,1.000000000000000048e-04,4.899999999999999842e-04,7.000000000000000000e+00,2.700000000000000000e+01
7.269800000000000000e+04,-1.199999999999999895e-04,0.000000000000000000e+00,-1.000000000000000082e-05,4.000000000000000327e-05,1.000000000000000048e-04,7.599999999999999334e-04,1.000000000000000048e-04,4.899999999999999842e-04,7.000000000000000000e+00,2.700000000000000000e+01
7.269900000000000000e+04,-1.199999999999999895e-04,0.000000000000000000e+00,-1.000000000000000082e-05,4.000000000000000327e-05,1.000000000000000048e-04,7.599999999999999334e-04,1.000000000000000048e-04,4.899999999999999842e-04,7.000000000000000000e+00,2.700000000000000000e+01
7.270000000000000000e+04,-1.199999999999999895e-04,0.000000000000000000e+00,-1.000000000000000082e-05,4.000000000000000327e-05,1.000000000000000048e-04,7.599999999999999334e-04,1.000000000000000048e-04,4.899999999999999842e-04,7.000000000000000000e+00,2.700000000000000000e+01
7.270100000000000000e+04,-1.199999999999999895e-04,0.000000000000000000e+00,-1.000000000000000082e-05,4.000000000000000327e-05,1.000000000000000048e-04,7.599999999999999334e-04,1.000000000000000048e-04,4.899999999999999842e-04,7.000000000000000000e+00,2.700000000000000000e+01
7.270200000000000000e+04,-1.199999999999999895e-04,0.000000000000000000e+00,-1.000000000000000082e-05,4.000000000000000327e-05,1.000000000000000048e-04,7.599999999999999334e-04,1.000000000000000048e-04,4.899999999999999842e-04,7.000000000000000000e+00,2.700000000000000000e+01
7.270300000000000000e+04,-1.199999999999999895e-04,0.000000000000000000e+00,-1.000000000000000082e-05,4.000000000000000327e-05,1.000000000000000048e-04,7.599999999999999334e-04,1.000000000000000048e-04,4.899999999999999842e-04,7.000000000000000000e+00,2.700000000000000000e+01
7.270400000000000000e+04,-1.199999999999999895e-04,0.000000000000000000e+00,-1.000000000000000082e-05,4.000000000000000327e-05,1.000000000000000048e-04,7.599999999999999334e-04,1.000000000000000048e-04,4.899999999999999842e-04,7.000000000000000000e+00,2.700000000000000000e+01
7.270500000000000000e+04,-1.199999999999999895e-04,0.000000000000000000e+00,-1.000000000000000082e-05,4.000000000000000327e-05,1.000000000000000048e-04,7.599999999999999334e-04,1.000000000000000048e-04,4.899999999999999842e-04,7.000000000000000000e+00,2.700000000000000000e+01
7.270600000000000000e+04,-1.199999999999999895e-04,0.000000000000000000e+00,-1.000000000000000082e-05,4.000000000000000327e-05,1.000000000000000048e-04,7.599999999999999334e-04,1.000000000000000048e-04,4.899999999999999842e-04,7.000000000000000000e+00,2.700000000000000000e+01
7.270700000000000000e+04,-1.199999999999999895e-04,0.000000000000000000e+00,-1.000000000000000082e-05,4.000000000000000327e-05,1.000000000000000048e-04,7.599999999999999334e-04,1.000000000000000048e-04,4.899999999999999842e-04,7.000000000000000000e+00,2.700000000000000000e+01
7.270800000000000000e+04,-1.199999999999999895e-04,0.000000000000000000e+00,-1.000000000000000082e-05,4.000000000000000327e-05,1.000000000000000048e-04,7.599999999999999334e-04,1.000000000000000048e-04,4.899999999999999842e-04,7.000000000000000000e+00,2.700000000000000000e+01
7.270900000000000000e+04,-1.199999999999999895e-04,0.000000000000000000e+00,-1.000000000000000082e-05,4.000000000000000327e-05,1.000000000000000048e-04,7.599999999999999334e-04,1.000000000000000048e-04,4.899999999999999842e-04,7.000000000000000000e+00,2.700000000000000000e+01
7.271000000000000000e+04,-1.199999999999999895e-04,0.000000000000000000e+00,-1.000000000000000082e-05,4.000000000000000327e-05,1.000000000000000048e-04,7.599999999999999334e-04,1.000000000000000048e-04,4.899999999999999842e-04,7.000000000000000000e+00,2.700000000000000000e+01
7.271100000000000000e+04,-1.199999999999999895e-04,0.000000000000000000e+00,-1.000000000000000082e-05,4.000000000000000327e-05,1.000000000000000048e-04,7.599999999999999334e-04,1.000000000000000048e-04,4.899999999999999842e-04,7.000000000000000000e+00,2.700000000000000000e+01
7.271200000000000000e+04,-1.199999999999999895e-04,0.000000000000000000e+00,-1.000000000000000082e-05,4.000000000000000327e-05,1.000000000000000048e-04,7.599999999999999334e-04,1.000000000000000048e-04,4.899999999999999842e-04,7.000000000000000000e+00,2.700000000000000000e+01
7.271300000000000000e+04,1.300000000000000157e-04,2.000000000000000164e-05,1.000000000000000082e-05,1.000000000000000082e-05,-8.099999999999999561e-04,8.000000000000000654e-05,2.600000000000000314e-04,1.499999999999999869e-04,7.000000000000000000e+00,2.700000000000000000e+01
7.271400000000000000e+04,1.300000000000000157e-04,2.000000000000000164e-05,1.000000000000000082e-05,1.000000000000000082e-05,-8.099999999999999561e-04,8.000000000000000654e-05,2.600000000000000314e-04,1.499999999999999869e-04,7.000000000000000000e+00,2.700000000000000000e+01
7.271500000000000000e+04,3.699999999999999947e-04,2.000000000000000164e-05,0.000000000000000000e+00,-5.999999999999999474e-05,-9.699999999999999421e-04,1.499999999999999869e-04,9.000000000000000567e-05,-4.200000000000000174e-04,7.000000000000000000e+00,2.700000000000000000e+01
7.271600000000000000e+04,3.699999999999999947e-04,2.000000000000000164e-05,0.000000000000000000e+00,-5.999999999999999474e-05,-9.699999999999999421e-04,1.499999999999999869e-04,9.000000000000000567e-05,-4.200000000000000174e-04,7.000000000000000000e+00,2.700000000000000000e+01
7.271700000000000000e+04,3.699999999999999947e-04,2.000000000000000164e-05,0.000000000000000000e+00,-5.999999999999999474e-05,-9.699999999999999421e-04,1.499999999999999869e-04,9.000000000000000567e-05,-4.200000000000000174e-04,7.000000000000000000e+00,2.700000000000000000e+01
7.271800000000000000e+04,3.699999999999999947e-04,2.000000000000000164e-05,0.000000000000000000e+00,-5.999999999999999474e-05,-9.699999999999999421e-04,1.499999999999999869e-04,9.000000000000000567e-05,-4.200000000000000174e-04,7.000000000000000000e+00,2.700000000000000000e+01
7.271900000000000000e+04,3.699999999999999947e-04,2.000000000000000164e-05,0.000000000000000000e+00,-5.999999999999999474e-05,-9.699999999999999421e-04,1.499999999999999869e-04,9.000000000000000567e-05,-4.200000000000000174e-04,7.000000000000000000e+00,2.700000000000000000e+01
7.272000000000000000e+04,3.699999999999999947e-04,2.000000000000000164e-05,0.000000000000000000e+00,-5.999999999999999474e-05,-9.699999999999999421e-04,1.499999999999999869e-04,9.000000000000000567e-05,-4.200000000000000174e-04,7.000000000000000000e+00,2.700000000000000000e+01
7.272100000000000000e+04,3.699999999999999947e-04,2.000000000000000164e-05,0.000000000000000000e+00,-5.999999999999999474e-05,-9.699999999999999421e-04,1.499999999999999869e-04,9.000000000000000567e-05,-4.200000000000000174e-04,7.000000000000000000e+00,2.700000000000000000e+01
7.272200000000000000e+04,3.699999999999999947e-04,2.000000000000000164e-05,0.000000000000000000e+00,-5.999999999999999474e-05,-9.699999999999999421e-04,1.499999999999999869e-04,9.000000000000000567e-05,-4.200000000000000174e-04,7.000000000000000000e+00,2.700000000000000000e+01
7.272300000000000000e+04,3.699999999999999947e-04,2.000000000000000164e-05,0.000000000000000000e+00,-5.999999999999999474e-05,-9.699999999999999421e-04,1.499999999999999869e-04,9.000000000000000567e-05,-4.200000000000000174e-04,7.000000000000000000e+00,2.700000000000000000e+01
7.272400000000000000e+04,3.699999999999999947e-04,2.000000000000000164e-05,0.000000000000000000e+00,-5.999999999999999474e-05,-9.699999999999999421e-04,1.499999999999999869e-04,9.000000000000000567e-05,-4.200000000000000174e-04,7.000000000000000000e+00,2.700000000000000000e+01
7.272500000000000000e+04,3.699999999999999947e-04,2.000000000000000164e-05,0.000000000000000000e+00,-5.999999999999999474e-05,-9.699999999999999421e-04,1.499999999999999869e-04,9.000000000000000567e-05,-4.200000000000000174e-04,7.000000000000000000e+00,2.700000000000000000e+01
7.272600000000000000e+04,3.699999999999999947e-04,2.000000000000000164e-05,0.000000000000000000e+00,-5.999999999999999474e-05,-9.699999999999999421e-04,1.499999999999999869e-04,9.000000000000000567e-05,-4.200000000000000174e-04,7.000000000000000000e+00,2.700000000000000000e+01
7.272700000000000000e+04,3.699999999999999947e-04,2.000000000000000164e-05,0.000000000000000000e+00,-5.999999999999999474e-05,-9.699999999999999421e-04,1.499999999999999869e-04,9.000000000000000567e-05,-4.200000000000000174e-04,7.000000000000000000e+00,2.700000000000000000e+01
7.272800000000000000e+04,3.699999999999999947e-04,2.000000000000000164e-05,0.000000000000000000e+00,-5.999999999999999474e-05,-9.699999999999999421e-04,1.499999999999999869e-04,9.000000000000000567e-05,-4.200000000000000174e-04,7.000000000000000000e+00,2.700000000000000000e+01
7.272900000000000000e+04,3.699999999999999947e-04,2.000000000000000164e-05,0.000000000000000000e+00,-5.999999999999999474e-05,-9.699999999999999421e-04,1.499999999999999869e-04,9.000000000000000567e-05,-4.200000000000000174e-04,7.000000000000000000e+00,2.700000000000000000e+01
7.273000000000000000e+04,3.699999999999999947e-04,2.000000000000000164e-05,0.000000000000000000e+00,-5.999999999999999474e-05,-9.699999999999999421e-04,1.499999999999999869e-04,9.000000000000000567e-05,-4.200000000000000174e-04,7.000000000000000000e+00,2.700000000000000000e+01
7.273100000000000000e+04,3.699999999999999947e-04,2.000000000000000164e-05,0.000000000000000000e+00,-5.999999999999999474e-05,-9.699999999999999421e-04,1.499999999999999869e-04,9.000000000000000567e-05,-4.200000000000000174e-04,7.000000000000000000e+00,2.700000000000000000e+01
7.273200000000000000e+04,3.699999999999999947e-04,2.000000000000000164e-05,0.000000000000000000e+00,-5.999999999999999474e-05,-9.699999999999999421e-04,1.499999999999999869e-04,9.000000000000000567e-05,-4.200000000000000174e-04,7.000000000000000000e+00,2.700000000000000000e+01
7.273300000000000000e+04,3.699999999999999947e-04,2.000000000000000164e-05,0.000000000000000000e+00,-5.999999999999999474e-05,-9.699999999999999421e-04,1.499999999999999869e-04,9.000000000000000567e-05,-4.200000000000000174e-04,7.000000000000000000e+00,2.700000000000000000e+01
7.273400000000000000e+04,3.699999999999999947e-04,2.000000000000000164e-05,0.000000000000000000e+00,-5.999999999999999474e-05,-9.699999999999999421e-04,1.499999999999999869e-04,9.000000000000000567e-05,-4.200000000000000174e-04,7.000000000000000000e+00,2.700000000000000000e+01
7.273500000000000000e+04,3.699999999999999947e-04,2.000000000000000164e-05,0.000000000000000000e+00,-5.999999999999999474e-05,-9.699999999999999421e-04,1.499999999999999869e-04,9.000000000000000567e-05,-4.200000000000000174e-04,7.000000000000000000e+00,2.700000000000000000e+01
7.273600000000000000e+04,6.999999999999999929e-04,5.999999999999999474e-05,2.000000000000000164e-05,-2.999999999999999737e-05,-1.199999999999999895e-04,3.099999999999999999e-04,2.999999999999999737e-05,-5.000000000000000240e-05,7.000000000000000000e+00,2.700000000000000000e+01
7.273900000000000000e+04,1.600000000000000131e-04,-5.999999999999999474e-05,-5.999999999999999474e-05,1.000000000000000082e-05,4.700000000000000401e-04,-4.000000000000000327e-05,2.999999999999999737e-05,3.099999999999999999e-04,7.000000000000000000e+00,2.700000000000000000e+01
7.274000000000000000e+04,1.600000000000000131e-04,-5.999999999999999474e-05,-5.999999999999999474e-05,1.000000000000000082e-05,4.700000000000000401e-04,-4.000000000000000327e-05,2.999999999999999737e-05,3.099999999999999999e-04,7.000000000000000000e+00,2.700000000000000000e+01
7.274100000000000000e+04,1.600000000000000131e-04,-5.999999999999999474e-05,-5.999999999999999474e-05,1.000000000000000082e-05,4.700000000000000401e-04,-4.000000000000000327e-05,2.999999999999999737e-05,3.099999999999999999e-04,7.000000000000000000e+00,2.700000000000000000e+01
7.274200000000000000e+04,1.600000000000000131e-04,-5.999999999999999474e-05,-5.999999999999999474e-05,1.000000000000000082e-05,4.700000000000000401e-04,-4.000000000000000327e-05,2.999999999999999737e-05,3.099999999999999999e-04,7.000000000000000000e+00,2.700000000000000000e+01
7.274300000000000000e+04,1.600000000000000131e-04,-5.999999999999999474e-05,-5.999999999999999474e-05,1.000000000000000082e-05,4.700000000000000401e-04,-4.000000000000000327e-05,2.999999999999999737e-05,3.099999999999999999e-04,7.000000000000000000e+00,2.700000000000000000e+01
7.274400000000000000e+04,1.600000000000000131e-04,-5.999999999999999474e-05,-5.999999999999999474e-05,1.000000000000000082e-05,4.700000000000000401e-04,-4.000000000000000327e-05,2.999999999999999737e-05,3.099999999999999999e-04,7.000000000000000000e+00,2.700000000000000000e+01
7.274500000000000000e+04,1.600000000000000131e-04,-5.999999999999999474e-05,-5.999999999999999474e-05,1.000000000000000082e-05,4.700000000000000401e-04,-4.000000000000000327e-05,2.999999999999999737e-05,3.099999999999999999e-04,7.000000000000000000e+00,2.700000000000000000e+01
7.274600000000000000e+04,1.600000000000000131e-04,-5.999999999999999474e-05,-5.999999999999999474e-05,1.000000000000000082e-05,4.700000000000000401e-04,-4.000000000000000327e-05,2.999999999999999737e-05,3.099999999999999999e-04,7.000000000000000000e+00,2.700000000000000000e+01
7.274700000000000000e+04,1.600000000000000131e-04,-5.999999999999999474e-05,-5.999999999999999474e-05,1.000000000000000082e-05,4.700000000000000401e-04,-4.000000000000000327e-05,2.999999999999999737e-05,3.099999999999999999e-04,7.000000000000000000e+00,2.700000000000000000e+01
7.274800000000000000e+04,1.600000000000000131e-04,-5.999999999999999474e-05,-5.999999999999999474e-05,1.000000000000000082e-05,4.700000000000000401e-04,-4.000000000000000327e-05,2.999999999999999737e-05,3.099999999999999999e-04,7.000000000000000000e+00,2.700000000000000000e+01
7.274900000000000000e+04,1.600000000000000131e-04,-5.999999999999999474e-05,-5.999999999999999474e-05,1.000000000000000082e-05,4.700000000000000401e-04,-4.000000000000000327e-05,2.999999999999999737e-05,3.099999999999999999e-04,7.000000000000000000e+00,2.700000000000000000e+01
7.275000000000000000e+04,-1.699999999999999851e-04,-5.999999999999999474e-05,-1.000000000000000082e-05,5.999999999999999474e-05,2.999999999999999737e-04,-4.799999999999999580e-04,-2.999999999999999737e-05,0.000000000000000000e+00,7.000000000000000000e+00,2.700000000000000000e+01
7.275100000000000000e+04,-1.699999999999999851e-04,-5.999999999999999474e-05,-1.000000000000000082e-05,5.999999999999999474e-05,2.999999999999999737e-04,-4.799999999999999580e-04,-2.999999999999999737e-05,0.000000000000000000e+00,7.000000000000000000e+00,2.700000000000000000e+01
7.275200000000000000e+04,-1.699999999999999851e-04,-5.999999999999999474e-05,-1.000000000000000082e-05,5.999999999999999474e-05,2.999999999999999737e-04,-4.799999999999999580e-04,-2.999999999999999737e-05,0.000000000000000000e+00,7.000000000000000000e+00,2.700000000000000000e+01
7.275300000000000000e+04,-1.699999999999999851e-04,-5.999999999999999474e-05,-1.000000000000000082e-05,5.999999999999999474e-05,2.999999999999999737e-04,-4.799999999999999580e-04,-2.999999999999999737e-05,0.000000000000000000e+00,7.000000000000000000e+00,2.700000000000000000e+01
7.275400000000000000e+04,-1.699999999999999851e-04,-5.999999999999999474e-05,-1.000000000000000082e-05,5.999999999999999474e-05,2.999999999999999737e-04,-4.799999999999999580e-04,-2.999999999999999737e-05,0.000000000000000000e+00,7.000000000000000000e+00,2.700000000000000000e+01
7.275500000000000000e+04,-1.699999999999999851e-04,-5.999999999999999474e-05,-1.000000000000000082e-05,5.999999999999999474e-05,2.999999999999999737e-04,-4.799999999999999580e-04,-2.999999999999999737e-05,0.000000000000000000e+00,7.000000000000000000e+00,2.700000000000000000e+01
7.275600000000000000e+04,-1.699999999999999851e-04,-5.999999999999999474e-05,-1.000000000000000082e-05,5.999999999999999474e-05,2.999999999999999737e-04,-4.799999999999999580e-04,-2.999999999999999737e-05,0.000000000000000000e+00,7.000000000000000000e+00,2.700000000000000000e+01
7.275700000000000000e+04,-1.899999999999999834e-04,0.000000000000000000e+00,2.999999999999999737e-05,1.100000000000000039e-04,2.000000000000000096e-04,-5.299999999999999807e-04,2.000000000000000164e-05,-2.100000000000000087e-04,7.000000000000000000e+00,2.700000000000000000e+01
7.275800000000000000e+04,-1.899999999999999834e-04,0.000000000000000000e+00,2.999999999999999737e-05,1.100000000000000039e-04,2.000000000000000096e-04,-5.299999999999999807e-04,2.000000000000000164e-05,-2.100000000000000087e-04,7.000000000000000000e+00,2.700000000000000000e+01
7.275900000000000000e+04,-1.899999999999999834e-04,0.000000000000000000e+00,2.999999999999999737e-05,1.100000000000000039e-04,2.000000000000000096e-04,-5.299999999999999807e-04,2.000000000000000164e-05,-2.100000000000000087e-04,7.000000000000000000e+00,2.700000000000000000e+01
7.276000000000000000e+04,-1.899999999999999834e-04,0.000000000000000000e+00,2.999999999999999737e-05,1.100000000000000039e-04,2.000000000000000096e-04,-5.299999999999999807e-04,2.000000000000000164e-05,-2.100000000000000087e-04,7.000000000000000000e+00,2.700000000000000000e+01
7.276100000000000000e+04,-1.899999999999999834e-04,0.000000000000000000e+00,2.999999999999999737e-05,1.100000000000000039e-04,2.000000000000000096e-04,-5.299999999999999807e-04,2.000000000000000164e-05,-2.100000000000000087e-04,7.000000000000000000e+00,2.700000000000000000e+01
7.276200000000000000e+04,-1.899999999999999834e-04,0.000000000000000000e+00,2.999999999999999737e-05,1.100000000000000039e-04,2.000000000000000096e-04,-5.299999999999999807e-04,2.000000000000000164e-05,-2.100000000000000087e-04,7.000000000000000000e+00,2.700000000000000000e+01
7.276300000000000000e+04,-1.899999999999999834e-04,0.000000000000000000e+00,2.999999999999999737e-05,1.100000000000000039e-04,2.000000000000000096e-04,-5.299999999999999807e-04,2.000000000000000164e-05,-2.100000000000000087e-04,7.000000000000000000e+00,2.700000000000000000e+01
7.276400000000000000e+04,-1.899999999999999834e-04,0.000000000000000000e+00,2.999999999999999737e-05,1.100000000000000039e-04,2.000000000000000096e-04,-5.299999999999999807e-04,2.000000000000000164e-05,-2.100000000000000087e-04,7.000000000000000000e+00,2.700000000000000000e+01
7.276500000000000000e+04,-1.899999999999999834e-04,0.000000000000000000e+00,2.999999999999999737e-05,1.100000000000000039e-04,2.000000000000000096e-04,-5.299999999999999807e-04,2.000000000000000164e-05,-2.100000000000000087e-04,7.000000000000000000e+00,2.700000000000000000e+01
7.276600000000000000e+04,-1.899999999999999834e-04,0.000000000000000000e+00,2.999999999999999737e-05,1.100000000000000039e-04,2.000000000000000096e-04,-5.299999999999999807e-04,2.000000000000000164e-05,-2.100000000000000087e-04,7.000000000000000000e+00,2.700000000000000000e+01
7.276700000000000000e+04,-1.899999999999999834e-04,0.000000000000000000e+00,2.999999999999999737e-05,1.100000000000000039e-04,2.000000000000000096e-04,-5.299999999999999807e-04,2.000000000000000164e-05,-2.100000000000000087e-04,7.000000000000000000e+00,2.700000000000000000e+01
7.276800000000000000e+04,-1.899999999999999834e-04,0.000000000000000000e+00,2.999999999999999737e-05,1.100000000000000039e-04,2.000000000000000096e-04,-5.299999999999999807e-04,2.000000000000000164e-05,-2.100000000000000087e-04,7.000000000000000000e+00,2.700000000000000000e+01
7.276900000000000000e+04,-1.899999999999999834e-04,0.000000000000000000e+00,2.999999999999999737e-05,1.100000000000000039e-04,2.000000000000000096e-04,-5.299999999999999807e-04,2.000000000000000164e-05,-2.100000000000000087e-04,7.000000000000000000e+00,2.700000000000000000e+01
7.277000000000000000e+04,-1.899999999999999834e-04,0.000000000000000000e+00,2.999999999999999737e-05,1.100000000000000039e-04,2.000000000000000096e-04,-5.299999999999999807e-04,2.000000000000000164e-05,-2.100000000000000087e-04,7.000000000000000000e+00,2.700000000000000000e+01
7.277100000000000000e+04,-1.899999999999999834e-04,0.000000000000000000e+00,2.999999999999999737e-05,1.100000000000000039e-04,2.000000000000000096e-04,-5.299999999999999807e-04,2.000000000000000164e-05,-2.100000000000000087e-04,7.000000000000000000e+00,2.700000000000000000e+01
7.277200000000000000e+04,-1.899999999999999834e-04,0.000000000000000000e+00,2.999999999999999737e-05,1.100000000000000039e-04,2.000000000000000096e-04,-5.299999999999999807e-04,2.000000000000000164e-05,-2.100000000000000087e-04,7.000000000000000000e+00,2.700000000000000000e+01
7.277300000000000000e+04,-1.899999999999999834e-04,0.000000000000000000e+00,2.999999999999999737e-05,1.100000000000000039e-04,2.000000000000000096e-04,-5.299999999999999807e-04,2.000000000000000164e-05,-2.100000000000000087e-04,7.000000000000000000e+00,2.700000000000000000e+01
7.277400000000000000e+04,-1.899999999999999834e-04,0.000000000000000000e+00,2.999999999999999737e-05,1.100000000000000039e-04,2.000000000000000096e-04,-5.299999999999999807e-04,2.000000000000000164e-05,-2.100000000000000087e-04,7.000000000000000000e+00,2.700000000000000000e+01
7.277500000000000000e+04,-1.899999999999999834e-04,0.000000000000000000e+00,2.999999999999999737e-05,1.100000000000000039e-04,2.000000000000000096e-04,-5.299999999999999807e-04,2.000000000000000164e-05,-2.100000000000000087e-04,7.000000000000000000e+00,2.700000000000000000e+01
7.277600000000000000e+04,-1.899999999999999834e-04,0.000000000000000000e+00,2.999999999999999737e-05,1.100000000000000039e-04,2.000000000000000096e-04,-5.299999999999999807e-04,2.000000000000000164e-05,-2.100000000000000087e-04,7.000000000000000000e+00,2.700000000000000000e+01
7.277700000000000000e+04,-1.899999999999999834e-04,0.000000000000000000e+00,2.999999999999999737e-05,1.100000000000000039e-04,2.000000000000000096e-04,-5.299999999999999807e-04,2.000000000000000164e-05,-2.100000000000000087e-04,7.000000000000000000e+00,2.700000000000000000e+01
7.277800000000000000e+04,-1.899999999999999834e-04,0.000000000000000000e+00,2.999999999999999737e-05,1.100000000000000039e-04,2.000000000000000096e-04,-5.299999999999999807e-04,2.000000000000000164e-05,-2.100000000000000087e-04,7.000000000000000000e+00,2.700000000000000000e+01
7.277900000000000000e+04,-1.899999999999999834e-04,0.000000000000000000e+00,2.999999999999999737e-05,1.100000000000000039e-04,2.000000000000000096e-04,-5.299999999999999807e-04,2.000000000000000164e-05,-2.100000000000000087e-04,7.000000000000000000e+00,2.700000000000000000e+01
7.278000000000000000e+04,-1.899999999999999834e-04,0.000000000000000000e+00,2.999999999999999737e-05,1.100000000000000039e-04,2.000000000000000096e-04,-5.299999999999999807e-04,2.000000000000000164e-05,-2.100000000000000087e-04,7.000000000000000000e+00,2.700000000000000000e+01
7.278100000000000000e+04,-2.000000000000000164e-05,-2.000000000000000164e-05,-5.000000000000000240e-05,-1.300000000000000157e-04,-1.300000000000000157e-04,-3.699999999999999947e-04,-8.000000000000000654e-05,1.600000000000000131e-04,7.000000000000000000e+00,2.700000000000000000e+01
7.278200000000000000e+04,-3.299999999999999982e-04,2.000000000000000164e-05,2.999999999999999737e-05,5.000000000000000240e-05,5.900000000000000296e-04,4.000000000000000192e-04,1.000000000000000082e-05,-5.999999999999999474e-05,7.000000000000000000e+00,2.700000000000000000e+01
7.278300000000000000e+04,-3.299999999999999982e-04,2.000000000000000164e-05,2.999999999999999737e-05,5.000000000000000240e-05,5.900000000000000296e-04,4.000000000000000192e-04,1.000000000000000082e-05,-5.999999999999999474e-05,7.000000000000000000e+00,2.700000000000000000e+01
7.278400000000000000e+04,-3.299999999999999982e-04,2.000000000000000164e-05,2.999999999999999737e-05,5.000000000000000240e-05,5.900000000000000296e-04,4.000000000000000192e-04,1.000000000000000082e-05,-5.999999999999999474e-05,7.000000000000000000e+00,2.700000000000000000e+01
7.278500000000000000e+04,-3.299999999999999982e-04,2.000000000000000164e-05,2.999999999999999737e-05,5.000000000000000240e-05,5.900000000000000296e-04,4.000000000000000192e-04,1.000000000000000082e-05,-5.999999999999999474e-05,7.000000000000000000e+00,2.700000000000000000e+01
7.278600000000000000e+04,-3.299999999999999982e-04,2.000000000000000164e-05,2.999999999999999737e-05,5.000000000000000240e-05,5.900000000000000296e-04,4.000000000000000192e-04,1.000000000000000082e-05,-5.999999999999999474e-05,7.000000000000000000e+00,2.700000000000000000e+01
