2.653300000000000000e+04,-9.300000000000000541e-04,-1.300000000000000157e-04,-2.000000000000000164e-05,4.000000000000000327e-05,-5.999999999999999474e-05,1.499999999999999869e-04,1.300000000000000157e-04,-5.200000000000000629e-04,6.000000000000000000e+00,1.100000000000000000e+01
2.653400000000000000e+04,-9.300000000000000541e-04,-1.300000000000000157e-04,-2.000000000000000164e-05,4.000000000000000327e-05,-5.999999999999999474e-05,1.499999999999999869e-04,1.300000000000000157e-04,-5.200000000000000629e-04,6.000000000000000000e+00,1.100000000000000000e+01
2.653500000000000000e+04,-9.300000000000000541e-04,-1.300000000000000157e-04,-2.000000000000000164e-05,4.000000000000000327e-05,-5.999999999999999474e-05,1.499999999999999869e-04,1.300000000000000157e-04,-5.200000000000000629e-04,6.000000000000000000e+00,1.100000000000000000e+01
2.653600000000000000e+04,5.800000000000000034e-04,2.500000000000000052e-04,2.000000000000000164e-05,1.600000000000000131e-04,6.999999999999999387e-05,2.299999999999999799e-04,2.200000000000000078e-04,3.499999999999999964e-04,6.000000000000000000e+00,1.100000000000000000e+01
2.653800000000000000e+04,5.999999999999999474e-05,-5.000000000000000240e-05,-5.000000000000000240e-05,6.999999999999999387e-05,3.600000000000000227e-04,2.700000000000000035e-04,1.499999999999999869e-04,-2.000000000000000164e-05,6.000000000000000000e+00,1.100000000000000000e+01
2.653900000000000000e+04,5.999999999999999474e-05,-5.000000000000000240e-05,-5.000000000000000240e-05,6.999999999999999387e-05,3.600000000000000227e-04,2.700000000000000035e-04,1.499999999999999869e-04,-2.000000000000000164e-05,6.000000000000000000e+00,1.100000000000000000e+01
2.654100000000000000e+04,5.999999999999999474e-05,-5.000000000000000240e-05,-5.000000000000000240e-05,6.999999999999999387e-05,3.600000000000000227e-04,2.700000000000000035e-04,1.499999999999999869e-04,-2.000000000000000164e-05,6.000000000000000000e+00,1.100000000000000000e+01
2.654200000000000000e+04,5.999999999999999474e-05,-5.000000000000000240e-05,-5.000000000000000240e-05,6.999999999999999387e-05,3.600000000000000227e-04,2.700000000000000035e-04,1.499999999999999869e-04,-2.000000000000000164e-05,6.000000000000000000e+00,1.100000000000000000e+01
2.654300000000000000e+04,5.999999999999999474e-05,-5.000000000000000240e-05,-5.000000000000000240e-05,6.999999999999999387e-05,3.600000000000000227e-04,2.700000000000000035e-04,1.499999999999999869e-04,-2.000000000000000164e-05,6.000000000000000000e+00,1.100000000000000000e+01
2.654400000000000000e+04,5.999999999999999474e-05,-5.000000000000000240e-05,-5.000000000000000240e-05,6.999999999999999387e-05,3.600000000000000227e-04,2.700000000000000035e-04,1.499999999999999869e-04,-2.000000000000000164e-05,6.000000000000000000e+00,1.100000000000000000e+01
2.654500000000000000e+04,5.999999999999999474e-05,-5.000000000000000240e-05,-5.000000000000000240e-05,6.999999999999999387e-05,3.600000000000000227e-04,2.700000000000000035e-04,1.499999999999999869e-04,-2.000000000000000164e-05,6.000000000000000000e+00,1.100000000000000000e+01
2.654600000000000000e+04,5.999999999999999474e-05,-5.000000000000000240e-05,-5.000000000000000240e-05,6.999999999999999387e-05,3.600000000000000227e-04,2.700000000000000035e-04,1.499999999999999869e-04,-2.000000000000000164e-05,6.000000000000000000e+00,1.100000000000000000e+01
2.654700000000000000e+04,5.999999999999999474e-05,-5.000000000000000240e-05,-5.000000000000000240e-05,6.999999999999999387e-05,3.600000000000000227e-04,2.700000000000000035e-04,1.499999999999999869e-04,-2.000000000000000164e-05,6.000000000000000000e+00,1.100000000000000000e+01
2.654800000000000000e+04,5.999999999999999474e-05,-5.000000000000000240e-05,-5.000000000000000240e-05,6.999999999999999387e-05,3.600000000000000227e-04,2.700000000000000035e-04,1.499999999999999869e-04,-2.000000000000000164e-05,6.000000000000000000e+00,1.100000000000000000e+01
2.654900000000000000e+04,5.999999999999999474e-05,-5.000000000000000240e-05,-5.000000000000000240e-05,6.999999999999999387e-05,3.600000000000000227e-04,2.700000000000000035e-04,1.499999999999999869e-04,-2.000000000000000164e-05,6.000000000000000000e+00,1.100000000000000000e+01
2.655000000000000000e+04,5.999999999999999474e-05,-5.000000000000000240e-05,-5.000000000000000240e-05,6.999999999999999387e-05,3.600000000000000227e-04,2.700000000000000035e-04,1.499999999999999869e-04,-2.000000000000000164e-05,6.000000000000000000e+00,1.100000000000000000e+01
2.655100000000000000e+04,5.999999999999999474e-05,-5.000000000000000240e-05,-5.000000000000000240e-05,6.999999999999999387e-05,3.600000000000000227e-04,2.700000000000000035e-04,1.499999999999999869e-04,-2.000000000000000164e-05,6.000000000000000000e+00,1.100000000000000000e+01
2.655200000000000000e+04,5.999999999999999474e-05,-5.000000000000000240e-05,-5.000000000000000240e-05,6.999999999999999387e-05,3.600000000000000227e-04,2.700000000000000035e-04,1.499999999999999869e-04,-2.000000000000000164e-05,6.000000000000000000e+00,1.100000000000000000e+01
2.655300000000000000e+04,5.999999999999999474e-05,-5.000000000000000240e-05,-5.000000000000000240e-05,6.999999999999999387e-05,3.600000000000000227e-04,2.700000000000000035e-04,1.499999999999999869e-04,-2.000000000000000164e-05,6.000000000000000000e+00,1.100000000000000000e+01
2.655400000000000000e+04,5.999999999999999474e-05,-5.000000000000000240e-05,-5.000000000000000240e-05,6.999999999999999387e-05,3.600000000000000227e-04,2.700000000000000035e-04,1.499999999999999869e-04,-2.000000000000000164e-05,6.000000000000000000e+00,1.100000000000000000e+01
2.655500000000000000e+04,5.999999999999999474e-05,-5.000000000000000240e-05,-5.000000000000000240e-05,6.999999999999999387e-05,3.600000000000000227e-04,2.700000000000000035e-04,1.499999999999999869e-04,-2.000000000000000164e-05,6.000000000000000000e+00,1.100000000000000000e+01
2.655600000000000000e+04,5.999999999999999474e-05,-5.000000000000000240e-05,-5.000000000000000240e-05,6.999999999999999387e-05,3.600000000000000227e-04,2.700000000000000035e-04,1.499999999999999869e-04,-2.000000000000000164e-05,6.000000000000000000e+00,1.100000000000000000e+01
2.655700000000000000e+04,5.999999999999999474e-05,-5.000000000000000240e-05,-5.000000000000000240e-05,6.999999999999999387e-05,3.600000000000000227e-04,2.700000000000000035e-04,1.499999999999999869e-04,-2.000000000000000164e-05,6.000000000000000000e+00,1.100000000000000000e+01
2.655800000000000000e+04,-2.999999999999999737e-04,0.000000000000000000e+00,1.000000000000000082e-05,4.000000000000000327e-05,4.099999999999999912e-04,8.000000000000000654e-05,-1.699999999999999851e-04,-3.399999999999999702e-04,6.000000000000000000e+00,1.100000000000000000e+01
2.655900000000000000e+04,-2.999999999999999737e-04,0.000000000000000000e+00,1.000000000000000082e-05,4.000000000000000327e-05,4.099999999999999912e-04,8.000000000000000654e-05,-1.699999999999999851e-04,-3.399999999999999702e-04,6.000000000000000000e+00,1.100000000000000000e+01
2.656000000000000000e+04,3.399999999999999702e-04,5.999999999999999474e-05,-2.999999999999999737e-05,-1.100000000000000039e-04,-5.000000000000000240e-05,2.299999999999999799e-04,1.300000000000000157e-04,3.299999999999999982e-04,6.000000000000000000e+00,1.100000000000000000e+01
2.656100000000000000e+04,3.399999999999999702e-04,5.999999999999999474e-05,-2.999999999999999737e-05,-1.100000000000000039e-04,-5.000000000000000240e-05,2.299999999999999799e-04,1.300000000000000157e-04,3.299999999999999982e-04,6.000000000000000000e+00,1.100000000000000000e+01
2.656200000000000000e+04,3.399999999999999702e-04,5.999999999999999474e-05,-2.999999999999999737e-05,-1.100000000000000039e-04,-5.000000000000000240e-05,2.299999999999999799e-04,1.300000000000000157e-04,3.299999999999999982e-04,6.000000000000000000e+00,1.100000000000000000e+01
2.656300000000000000e+04,3.399999999999999702e-04,5.999999999999999474e-05,-2.999999999999999737e-05,-1.100000000000000039e-04,-5.000000000000000240e-05,2.299999999999999799e-04,1.300000000000000157e-04,3.299999999999999982e-04,6.000000000000000000e+00,1.100000000000000000e+01
2.656400000000000000e+04,3.399999999999999702e-04,5.999999999999999474e-05,-2.999999999999999737e-05,-1.100000000000000039e-04,-5.000000000000000240e-05,2.299999999999999799e-04,1.300000000000000157e-04,3.299999999999999982e-04,6.000000000000000000e+00,1.100000000000000000e+01
2.656500000000000000e+04,3.399999999999999702e-04,5.999999999999999474e-05,-2.999999999999999737e-05,-1.100000000000000039e-04,-5.000000000000000240e-05,2.299999999999999799e-04,1.300000000000000157e-04,3.299999999999999982e-04,6.000000000000000000e+00,1.100000000000000000e+01
2.656600000000000000e+04,3.399999999999999702e-04,5.999999999999999474e-05,-2.999999999999999737e-05,-1.100000000000000039e-04,-5.000000000000000240e-05,2.299999999999999799e-04,1.300000000000000157e-04,3.299999999999999982e-04,6.000000000000000000e+00,1.100000000000000000e+01
2.656700000000000000e+04,3.399999999999999702e-04,5.999999999999999474e-05,-2.999999999999999737e-05,-1.100000000000000039e-04,-5.000000000000000240e-05,2.299999999999999799e-04,1.300000000000000157e-04,3.299999999999999982e-04,6.000000000000000000e+00,1.100000000000000000e+01
2.656800000000000000e+04,3.399999999999999702e-04,5.999999999999999474e-05,-2.999999999999999737e-05,-1.100000000000000039e-04,-5.000000000000000240e-05,2.299999999999999799e-04,1.300000000000000157e-04,3.299999999999999982e-04,6.000000000000000000e+00,1.100000000000000000e+01
2.656900000000000000e+04,3.399999999999999702e-04,5.999999999999999474e-05,-2.999999999999999737e-05,-1.100000000000000039e-04,-5.000000000000000240e-05,2.299999999999999799e-04,1.300000000000000157e-04,3.299999999999999982e-04,6.000000000000000000e+00,1.100000000000000000e+01
2.657000000000000000e+04,3.399999999999999702e-04,5.999999999999999474e-05,-2.999999999999999737e-05,-1.100000000000000039e-04,-5.000000000000000240e-05,2.299999999999999799e-04,1.300000000000000157e-04,3.299999999999999982e-04,6.000000000000000000e+00,1.100000000000000000e+01
2.657100000000000000e+04,3.399999999999999702e-04,5.999999999999999474e-05,-2.999999999999999737e-05,-1.100000000000000039e-04,-5.000000000000000240e-05,2.299999999999999799e-04,1.300000000000000157e-04,3.299999999999999982e-04,6.000000000000000000e+00,1.100000000000000000e+01
2.657200000000000000e+04,2.600000000000000314e-04,4.000000000000000327e-05,4.000000000000000327e-05,-1.000000000000000082e-05,2.000000000000000164e-05,-3.299999999999999982e-04,2.200000000000000078e-04,-5.000000000000000240e-05,6.000000000000000000e+00,1.100000000000000000e+01
2.657300000000000000e+04,2.600000000000000314e-04,4.000000000000000327e-05,4.000000000000000327e-05,-1.000000000000000082e-05,2.000000000000000164e-05,-3.299999999999999982e-04,2.200000000000000078e-04,-5.000000000000000240e-05,6.000000000000000000e+00,1.100000000000000000e+01
2.657400000000000000e+04,2.600000000000000314e-04,4.000000000000000327e-05,4.000000000000000327e-05,-1.000000000000000082e-05,2.000000000000000164e-05,-3.299999999999999982e-04,2.200000000000000078e-04,-5.000000000000000240e-05,6.000000000000000000e+00,1.100000000000000000e+01
2.657500000000000000e+04,2.600000000000000314e-04,4.000000000000000327e-05,4.000000000000000327e-05,-1.000000000000000082e-05,2.000000000000000164e-05,-3.299999999999999982e-04,2.200000000000000078e-04,-5.000000000000000240e-05,6.000000000000000000e+00,1.100000000000000000e+01
2.657600000000000000e+04,2.600000000000000314e-04,4.000000000000000327e-05,4.000000000000000327e-05,-1.000000000000000082e-05,2.000000000000000164e-05,-3.299999999999999982e-04,2.200000000000000078e-04,-5.000000000000000240e-05,6.000000000000000000e+00,1.100000000000000000e+01
2.657700000000000000e+04,2.600000000000000314e-04,4.000000000000000327e-05,4.000000000000000327e-05,-1.000000000000000082e-05,2.000000000000000164e-05,-3.299999999999999982e-04,2.200000000000000078e-04,-5.000000000000000240e-05,6.000000000000000000e+00,1.100000000000000000e+01
2.657800000000000000e+04,2.600000000000000314e-04,4.000000000000000327e-05,4.000000000000000327e-05,-1.000000000000000082e-05,2.000000000000000164e-05,-3.299999999999999982e-04,2.200000000000000078e-04,-5.000000000000000240e-05,6.000000000000000000e+00,1.100000000000000000e+01
2.657900000000000000e+04,2.600000000000000314e-04,4.000000000000000327e-05,4.000000000000000327e-05,-1.000000000000000082e-05,2.000000000000000164e-05,-3.299999999999999982e-04,2.200000000000000078e-04,-5.000000000000000240e-05,6.000000000000000000e+00,1.100000000000000000e+01
2.658000000000000000e+04,2.600000000000000314e-04,4.000000000000000327e-05,4.000000000000000327e-05,-1.000000000000000082e-05,2.000000000000000164e-05,-3.299999999999999982e-04,2.200000000000000078e-04,-5.000000000000000240e-05,6.000000000000000000e+00,1.100000000000000000e+01
2.658100000000000000e+04,1.000000000000000082e-05,-2.999999999999999737e-05,5.000000000000000240e-05,5.999999999999999474e-05,1.499999999999999869e-04,1.100000000000000039e-04,1.000000000000000082e-05,6.999999999999999387e-05,6.000000000000000000e+00,1.100000000000000000e+01
2.658200000000000000e+04,1.000000000000000082e-05,-2.999999999999999737e-05,5.000000000000000240e-05,5.999999999999999474e-05,1.499999999999999869e-04,1.100000000000000039e-04,1.000000000000000082e-05,6.999999999999999387e-05,6.000000000000000000e+00,1.100000000000000000e+01
2.658300000000000000e+04,1.000000000000000082e-05,-2.999999999999999737e-05,5.000000000000000240e-05,5.999999999999999474e-05,1.499999999999999869e-04,1.100000000000000039e-04,1.000000000000000082e-05,6.999999999999999387e-05,6.000000000000000000e+00,1.100000000000000000e+01
2.658400000000000000e+04,1.000000000000000082e-05,-2.999999999999999737e-05,5.000000000000000240e-05,5.999999999999999474e-05,1.499999999999999869e-04,1.100000000000000039e-04,1.000000000000000082e-05,6.999999999999999387e-05,6.000000000000000000e+00,1.100000000000000000e+01
2.658500000000000000e+04,1.000000000000000082e-05,-2.999999999999999737e-05,5.000000000000000240e-05,5.999999999999999474e-05,1.499999999999999869e-04,1.100000000000000039e-04,1.000000000000000082e-05,6.999999999999999387e-05,6.000000000000000000e+00,1.100000000000000000e+01
2.658600000000000000e+04,1.000000000000000082e-05,-2.999999999999999737e-05,5.000000000000000240e-05,5.999999999999999474e-05,1.499999999999999869e-04,1.100000000000000039e-04,1.000000000000000082e-05,6.999999999999999387e-05,6.000000000000000000e+00,1.100000000000000000e+01
2.658700000000000000e+04,1.000000000000000082e-05,-2.999999999999999737e-05,5.000000000000000240e-05,5.999999999999999474e-05,1.499999999999999869e-04,1.100000000000000039e-04,1.000000000000000082e-05,6.999999999999999387e-05,6.000000000000000000e+00,1.100000000000000000e+01
2.658900000000000000e+04,1.000000000000000082e-05,-2.999999999999999737e-05,5.000000000000000240e-05,5.999999999999999474e-05,1.499999999999999869e-04,1.100000000000000039e-04,1.000000000000000082e-05,6.999999999999999387e-05,6.000000000000000000e+00,1.100000000000000000e+01
2.659000000000000000e+04,1.000000000000000082e-05,-2.999999999999999737e-05,5.000000000000000240e-05,5.999999999999999474e-05,1.499999999999999869e-04,1.100000000000000039e-04,1.000000000000000082e-05,6.999999999999999387e-05,6.000000000000000000e+00,1.100000000000000000e+01
2.659100000000000000e+04,1.000000000000000082e-05,-2.999999999999999737e-05,5.000000000000000240e-05,5.999999999999999474e-05,1.499999999999999869e-04,1.100000000000000039e-04,1.000000000000000082e-05,6.999999999999999387e-05,6.000000000000000000e+00,1.100000000000000000e+01
2.659200000000000000e+04,1.000000000000000082e-05,-2.999999999999999737e-05,5.000000000000000240e-05,5.999999999999999474e-05,1.499999999999999869e-04,1.100000000000000039e-04,1.000000000000000082e-05,6.999999999999999387e-05,6.000000000000000000e+00,1.100000000000000000e+01
2.659300000000000000e+04,1.000000000000000082e-05,-2.999999999999999737e-05,5.000000000000000240e-05,5.999999999999999474e-05,1.499999999999999869e-04,1.100000000000000039e-04,1.000000000000000082e-05,6.999999999999999387e-05,6.000000000000000000e+00,1.100000000000000000e+01
2.659400000000000000e+04,1.000000000000000082e-05,-2.999999999999999737e-05,5.000000000000000240e-05,5.999999999999999474e-05,1.499999999999999869e-04,1.100000000000000039e-04,1.000000000000000082e-05,6.999999999999999387e-05,6.000000000000000000e+00,1.100000000000000000e+01
2.659500000000000000e+04,1.000000000000000082e-05,-2.999999999999999737e-05,5.000000000000000240e-05,5.999999999999999474e-05,1.499999999999999869e-04,1.100000000000000039e-04,1.000000000000000082e-05,6.999999999999999387e-05,6.000000000000000000e+00,1.100000000000000000e+01
2.659600000000000000e+04,-1.899999999999999834e-04,-1.100000000000000039e-04,-5.999999999999999474e-05,2.000000000000000164e-05,5.999999999999999474e-05,-1.699999999999999851e-04,-1.699999999999999851e-04,-1.300000000000000157e-04,6.000000000000000000e+00,1.100000000000000000e+01
2.659700000000000000e+04,-1.899999999999999834e-04,-1.100000000000000039e-04,-5.999999999999999474e-05,2.000000000000000164e-05,5.999999999999999474e-05,-1.699999999999999851e-04,-1.699999999999999851e-04,-1.300000000000000157e-04,6.000000000000000000e+00,1.100000000000000000e+01
2.659800000000000000e+04,-5.999999999999999474e-05,2.999999999999999737e-05,5.000000000000000240e-05,2.000000000000000164e-05,-5.999999999999999474e-05,1.300000000000000157e-04,1.000000000000000048e-04,-1.399999999999999877e-04,6.000000000000000000e+00,1.100000000000000000e+01
2.659900000000000000e+04,-5.999999999999999474e-05,2.999999999999999737e-05,5.000000000000000240e-05,2.000000000000000164e-05,-5.999999999999999474e-05,1.300000000000000157e-04,1.000000000000000048e-04,-1.399999999999999877e-04,6.000000000000000000e+00,1.100000000000000000e+01
2.660000000000000000e+04,-5.999999999999999474e-05,2.999999999999999737e-05,5.000000000000000240e-05,2.000000000000000164e-05,-5.999999999999999474e-05,1.300000000000000157e-04,1.000000000000000048e-04,-1.399999999999999877e-04,6.000000000000000000e+00,1.100000000000000000e+01
2.660100000000000000e+04,-5.999999999999999474e-05,2.999999999999999737e-05,5.000000000000000240e-05,2.000000000000000164e-05,-5.999999999999999474e-05,1.300000000000000157e-04,1.000000000000000048e-04,-1.399999999999999877e-04,6.000000000000000000e+00,1.100000000000000000e+01
2.660200000000000000e+04,-5.999999999999999474e-05,2.999999999999999737e-05,5.000000000000000240e-05,2.000000000000000164e-05,-5.999999999999999474e-05,1.300000000000000157e-04,1.000000000000000048e-04,-1.399999999999999877e-04,6.000000000000000000e+00,1.100000000000000000e+01
2.660300000000000000e+04,-5.999999999999999474e-05,2.999999999999999737e-05,5.000000000000000240e-05,2.000000000000000164e-05,-5.999999999999999474e-05,1.300000000000000157e-04,1.000000000000000048e-04,-1.399999999999999877e-04,6.000000000000000000e+00,1.100000000000000000e+01
2.660400000000000000e+04,-5.999999999999999474e-05,2.999999999999999737e-05,5.000000000000000240e-05,2.000000000000000164e-05,-5.999999999999999474e-05,1.300000000000000157e-04,1.000000000000000048e-04,-1.399999999999999877e-04,6.000000000000000000e+00,1.100000000000000000e+01
2.660500000000000000e+04,-5.999999999999999474e-05,2.999999999999999737e-05,5.000000000000000240e-05,2.000000000000000164e-05,-5.999999999999999474e-05,1.300000000000000157e-04,1.000000000000000048e-04,-1.399999999999999877e-04,6.000000000000000000e+00,1.100000000000000000e+01
2.660600000000000000e+04,-5.999999999999999474e-05,2.999999999999999737e-05,5.000000000000000240e-05,2.000000000000000164e-05,-5.999999999999999474e-05,1.300000000000000157e-04,1.000000000000000048e-04,-1.399999999999999877e-04,6.000000000000000000e+00,1.100000000000000000e+01
2.660700000000000000e+04,-5.999999999999999474e-05,2.999999999999999737e-05,5.000000000000000240e-05,2.000000000000000164e-05,-5.999999999999999474e-05,1.300000000000000157e-04,1.000000000000000048e-04,-1.399999999999999877e-04,6.000000000000000000e+00,1.100000000000000000e+01
2.660800000000000000e+04,-5.999999999999999474e-05,2.999999999999999737e-05,5.000000000000000240e-05,2.000000000000000164e-05,-5.999999999999999474e-05,1.300000000000000157e-04,1.000000000000000048e-04,-1.399999999999999877e-04,6.000000000000000000e+00,1.100000000000000000e+01
2.660900000000000000e+04,-5.999999999999999474e-05,2.999999999999999737e-05,5.000000000000000240e-05,2.000000000000000164e-05,-5.999999999999999474e-05,1.300000000000000157e-04,1.000000000000000048e-04,-1.399999999999999877e-04,6.000000000000000000e+00,1.100000000000000000e+01
2.661000000000000000e+04,-5.999999999999999474e-05,2.999999999999999737e-05,5.000000000000000240e-05,2.000000000000000164e-05,-5.999999999999999474e-05,1.300000000000000157e-04,1.000000000000000048e-04,-1.399999999999999877e-04,6.000000000000000000e+00,1.100000000000000000e+01
2.661100000000000000e+04,-5.999999999999999474e-05,2.999999999999999737e-05,5.000000000000000240e-05,2.000000000000000164e-05,-5.999999999999999474e-05,1.300000000000000157e-04,1.000000000000000048e-04,-1.399999999999999877e-04,6.000000000000000000e+00,1.100000000000000000e+01
2.661200000000000000e+04,-5.999999999999999474e-05,2.999999999999999737e-05,5.000000000000000240e-05,2.000000000000000164e-05,-5.999999999999999474e-05,1.300000000000000157e-04,1.000000000000000048e-04,-1.399999999999999877e-04,6.000000000000000000e+00,1.100000000000000000e+01
2.661300000000000000e+04,-5.999999999999999474e-05,2.999999999999999737e-05,5.000000000000000240e-05,2.000000000000000164e-05,-5.999999999999999474e-05,1.300000000000000157e-04,1.000000000000000048e-04,-1.399999999999999877e-04,6.000000000000000000e+00,1.100000000000000000e+01
2.661400000000000000e+04,-5.999999999999999474e-05,2.999999999999999737e-05,5.000000000000000240e-05,2.000000000000000164e-05,-5.999999999999999474e-05,1.300000000000000157e-04,1.000000000000000048e-04,-1.399999999999999877e-04,6.000000000000000000e+00,1.100000000000000000e+01
2.661500000000000000e+04,-5.999999999999999474e-05,2.999999999999999737e-05,5.000000000000000240e-05,2.000000000000000164e-05,-5.999999999999999474e-05,1.300000000000000157e-04,1.000000000000000048e-04,-1.399999999999999877e-04,6.000000000000000000e+00,1.100000000000000000e+01
2.661600000000000000e+04,-5.999999999999999474e-05,2.999999999999999737e-05,5.000000000000000240e-05,2.000000000000000164e-05,-5.999999999999999474e-05,1.300000000000000157e-04,1.000000000000000048e-04,-1.399999999999999877e-04,6.000000000000000000e+00,1.100000000000000000e+01
2.661700000000000000e+04,-5.999999999999999474e-05,2.999999999999999737e-05,5.000000000000000240e-05,2.000000000000000164e-05,-5.999999999999999474e-05,1.300000000000000157e-04,1.000000000000000048e-04,-1.399999999999999877e-04,6.000000000000000000e+00,1.100000000000000000e+01
2.661800000000000000e+04,-1.199999999999999895e-04,-9.000000000000000567e-05,-8.000000000000000654e-05,-5.999999999999999474e-05,6.999999999999999387e-05,2.100000000000000087e-04,0.000000000000000000e+00,-5.000000000000000240e-05,6.000000000000000000e+00,1.100000000000000000e+01
2.661900000000000000e+04,-1.199999999999999895e-04,-9.000000000000000567e-05,-8.000000000000000654e-05,-5.999999999999999474e-05,6.999999999999999387e-05,2.100000000000000087e-04,0.000000000000000000e+00,-5.000000000000000240e-05,6.000000000000000000e+00,1.100000000000000000e+01
2.662000000000000000e+04,-2.700000000000000035e-04,1.000000000000000082e-05,5.999999999999999474e-05,4.000000000000000327e-05,-2.999999999999999737e-05,1.000000000000000082e-05,-1.000000000000000082e-05,-2.399999999999999790e-04,6.000000000000000000e+00,1.100000000000000000e+01
2.662100000000000000e+04,-2.700000000000000035e-04,1.000000000000000082e-05,5.999999999999999474e-05,4.000000000000000327e-05,-2.999999999999999737e-05,1.000000000000000082e-05,-1.000000000000000082e-05,-2.399999999999999790e-04,6.000000000000000000e+00,1.100000000000000000e+01
2.662200000000000000e+04,-2.700000000000000035e-04,1.000000000000000082e-05,5.999999999999999474e-05,4.000000000000000327e-05,-2.999999999999999737e-05,1.000000000000000082e-05,-1.000000000000000082e-05,-2.399999999999999790e-04,6.000000000000000000e+00,1.100000000000000000e+01
2.662300000000000000e+04,-2.700000000000000035e-04,1.000000000000000082e-05,5.999999999999999474e-05,4.000000000000000327e-05,-2.999999999999999737e-05,1.000000000000000082e-05,-1.000000000000000082e-05,-2.399999999999999790e-04,6.000000000000000000e+00,1.100000000000000000e+01
2.662400000000000000e+04,-2.700000000000000035e-04,1.000000000000000082e-05,5.999999999999999474e-05,4.000000000000000327e-05,-2.999999999999999737e-05,1.000000000000000082e-05,-1.000000000000000082e-05,-2.399999999999999790e-04,6.000000000000000000e+00,1.100000000000000000e+01
2.662500000000000000e+04,-2.700000000000000035e-04,1.000000000000000082e-05,5.999999999999999474e-05,4.000000000000000327e-05,-2.999999999999999737e-05,1.000000000000000082e-05,-1.000000000000000082e-05,-2.399999999999999790e-04,6.000000000000000000e+00,1.100000000000000000e+01
2.662600000000000000e+04,-2.700000000000000035e-04,1.000000000000000082e-05,5.999999999999999474e-05,4.000000000000000327e-05,-2.999999999999999737e-05,1.000000000000000082e-05,-1.000000000000000082e-05,-2.399999999999999790e-04,6.000000000000000000e+00,1.100000000000000000e+01
2.662700000000000000e+04,-2.700000000000000035e-04,1.000000000000000082e-05,5.999999999999999474e-05,4.000000000000000327e-05,-2.999999999999999737e-05,1.000000000000000082e-05,-1.000000000000000082e-05,-2.399999999999999790e-04,6.000000000000000000e+00,1.100000000000000000e+01
2.662800000000000000e+04,-2.700000000000000035e-04,1.000000000000000082e-05,5.999999999999999474e-05,4.000000000000000327e-05,-2.999999999999999737e-05,1.000000000000000082e-05,-1.000000000000000082e-05,-2.399999999999999790e-04,6.000000000000000000e+00,1.100000000000000000e+01
2.662900000000000000e+04,-2.700000000000000035e-04,1.000000000000000082e-05,5.999999999999999474e-05,4.000000000000000327e-05,-2.999999999999999737e-05,1.000000000000000082e-05,-1.000000000000000082e-05,-2.399999999999999790e-04,6.000000000000000000e+00,1.100000000000000000e+01
2.663000000000000000e+04,-2.700000000000000035e-04,1.000000000000000082e-05,5.999999999999999474e-05,4.000000000000000327e-05,-2.999999999999999737e-05,1.000000000000000082e-05,-1.000000000000000082e-05,-2.399999999999999790e-04,6.000000000000000000e+00,1.100000000000000000e+01
2.663100000000000000e+04,-2.700000000000000035e-04,1.000000000000000082e-05,5.999999999999999474e-05,4.000000000000000327e-05,-2.999999999999999737e-05,1.000000000000000082e-05,-1.000000000000000082e-05,-2.399999999999999790e-04,6.000000000000000000e+00,1.100000000000000000e+01
2.663200000000000000e+04,2.900000000000000017e-04,-1.000000000000000082e-05,-2.000000000000000164e-05,-1.000000000000000082e-05,-1.399999999999999877e-04,-3.299999999999999982e-04,-1.699999999999999851e-04,2.000000000000000164e-05,6.000000000000000000e+00,1.100000000000000000e+01
2.663400000000000000e+04,2.900000000000000017e-04,-1.000000000000000082e-05,-2.000000000000000164e-05,-1.000000000000000082e-05,-1.399999999999999877e-04,-3.299999999999999982e-04,-1.699999999999999851e-04,2.000000000000000164e-05,6.000000000000000000e+00,1.100000000000000000e+01
2.663500000000000000e+04,2.900000000000000017e-04,-1.000000000000000082e-05,-2.000000000000000164e-05,-1.000000000000000082e-05,-1.399999999999999877e-04,-3.299999999999999982e-04,-1.699999999999999851e-04,2.000000000000000164e-05,6.000000000000000000e+00,1.100000000000000000e+01
2.663600000000000000e+04,2.900000000000000017e-04,-1.000000000000000082e-05,-2.000000000000000164e-05,-1.000000000000000082e-05,-1.399999999999999877e-04,-3.299999999999999982e-04,-1.699999999999999851e-04,2.000000000000000164e-05,6.000000000000000000e+00,1.100000000000000000e+01
2.663700000000000000e+04,2.900000000000000017e-04,-1.000000000000000082e-05,-2.000000000000000164e-05,-1.000000000000000082e-05,-1.399999999999999877e-04,-3.299999999999999982e-04,-1.699999999999999851e-04,2.000000000000000164e-05,6.000000000000000000e+00,1.100000000000000000e+01
2.663800000000000000e+04,2.900000000000000017e-04,-1.000000000000000082e-05,-2.000000000000000164e-05,-1.000000000000000082e-05,-1.399999999999999877e-04,-3.299999999999999982e-04,-1.699999999999999851e-04,2.000000000000000164e-05,6.000000000000000000e+00,1.100000000000000000e+01
2.663900000000000000e+04,2.900000000000000017e-04,-1.000000000000000082e-05,-2.000000000000000164e-05,-1.000000000000000082e-05,-1.399999999999999877e-04,-3.299999999999999982e-04,-1.699999999999999851e-04,2.000000000000000164e-05,6.000000000000000000e+00,1.100000000000000000e+01
2.664000000000000000e+04,2.900000000000000017e-04,-1.000000000000000082e-05,-2.000000000000000164e-05,-1.000000000000000082e-05,-1.399999999999999877e-04,-3.299999999999999982e-04,-1.699999999999999851e-04,2.000000000000000164e-05,6.000000000000000000e+00,1.100000000000000000e+01
2.664100000000000000e+04,-2.399999999999999790e-04,-6.999999999999999387e-05,1.000000000000000082e-05,1.100000000000000039e-04,2.399999999999999790e-04,-4.799999999999999580e-04,-2.999999999999999737e-04,-1.800000000000000113e-04,6.000000000000000000e+00,1.100000000000000000e+01
2.664200000000000000e+04,-2.399999999999999790e-04,-6.999999999999999387e-05,1.000000000000000082e-05,1.100000000000000039e-04,2.399999999999999790e-04,-4.799999999999999580e-04,-2.999999999999999737e-04,-1.800000000000000113e-04,6.000000000000000000e+00,1.100000000000000000e+01
2.664300000000000000e+04,-2.399999999999999790e-04,-6.999999999999999387e-05,1.000000000000000082e-05,1.100000000000000039e-04,2.399999999999999790e-04,-4.799999999999999580e-04,-2.999999999999999737e-04,-1.800000000000000113e-04,6.000000000000000000e+00,1.100000000000000000e+01
2.664400000000000000e+04,-2.399999999999999790e-04,-6.999999999999999387e-05,1.000000000000000082e-05,1.100000000000000039e-04,2.399999999999999790e-04,-4.799999999999999580e-04,-2.999999999999999737e-04,-1.800000000000000113e-04,6.000000000000000000e+00,1.100000000000000000e+01
2.664500000000000000e+04,-2.399999999999999790e-04,-6.999999999999999387e-05,1.000000000000000082e-05,1.100000000000000039e-04,2.399999999999999790e-04,-4.799999999999999580e-04,-2.999999999999999737e-04,-1.800000000000000113e-04,6.000000000000000000e+00,1.100000000000000000e+01
2.664600000000000000e+04,-2.399999999999999790e-04,-6.999999999999999387e-05,1.000000000000000082e-05,1.100000000000000039e-04,2.399999999999999790e-04,-4.799999999999999580e-04,-2.999999999999999737e-04,-1.800000000000000113e-04,6.000000000000000000e+00,1.100000000000000000e+01
2.664700000000000000e+04,-2.399999999999999790e-04,-6.999999999999999387e-05,1.000000000000000082e-05,1.100000000000000039e-04,2.399999999999999790e-04,-4.799999999999999580e-04,-2.999999999999999737e-04,-1.800000000000000113e-04,6.000000000000000000e+00,1.100000000000000000e+01
2.664800000000000000e+04,-2.399999999999999790e-04,-6.999999999999999387e-05,1.000000000000000082e-05,1.100000000000000039e-04,2.399999999999999790e-04,-4.799999999999999580e-04,-2.999999999999999737e-04,-1.800000000000000113e-04,6.000000000000000000e+00,1.100000000000000000e+01
2.664900000000000000e+04,-2.399999999999999790e-04,-6.999999999999999387e-05,1.000000000000000082e-05,1.100000000000000039e-04,2.399999999999999790e-04,-4.799999999999999580e-04,-2.999999999999999737e-04,-1.800000000000000113e-04,6.000000000000000000e+00,1.100000000000000000e+01
2.665000000000000000e+04,-2.399999999999999790e-04,-6.999999999999999387e-05,1.000000000000000082e-05,1.100000000000000039e-04,2.399999999999999790e-04,-4.799999999999999580e-04,-2.999999999999999737e-04,-1.800000000000000113e-04,6.000000000000000000e+00,1.100000000000000000e+01
2.665100000000000000e+04,-2.399999999999999790e-04,-6.999999999999999387e-05,1.000000000000000082e-05,1.100000000000000039e-04,2.399999999999999790e-04,-4.799999999999999580e-04,-2.999999999999999737e-04,-1.800000000000000113e-04,6.000000000000000000e+00,1.100000000000000000e+01
2.665200000000000000e+04,-2.399999999999999790e-04,-6.999999999999999387e-05,1.000000000000000082e-05,1.100000000000000039e-04,2.399999999999999790e-04,-4.799999999999999580e-04,-2.999999999999999737e-04,-1.800000000000000113e-04,6.000000000000000000e+00,1.100000000000000000e+01
2.665300000000000000e+04,-2.399999999999999790e-04,-6.999999999999999387e-05,1.000000000000000082e-05,1.100000000000000039e-04,2.399999999999999790e-04,-4.799999999999999580e-04,-2.999999999999999737e-04,-1.800000000000000113e-04,6.000000000000000000e+00,1.100000000000000000e+01
2.665400000000000000e+04,-2.399999999999999790e-04,-6.999999999999999387e-05,1.000000000000000082e-05,1.100000000000000039e-04,2.399999999999999790e-04,-4.799999999999999580e-04,-2.999999999999999737e-04,-1.800000000000000113e-04,6.000000000000000000e+00,1.100000000000000000e+01
2.665500000000000000e+04,-2.399999999999999790e-04,-6.999999999999999387e-05,1.000000000000000082e-05,1.100000000000000039e-04,2.399999999999999790e-04,-4.799999999999999580e-04,-2.999999999999999737e-04,-1.800000000000000113e-04,6.000000000000000000e+00,1.100000000000000000e+01
2.665600000000000000e+04,-6.400000000000000524e-04,-2.000000000000000164e-05,1.000000000000000082e-05,8.000000000000000654e-05,2.299999999999999799e-04,2.200000000000000078e-04,2.999999999999999737e-05,-2.999999999999999737e-04,6.000000000000000000e+00,1.100000000000000000e+01
2.665700000000000000e+04,3.099999999999999999e-04,-1.000000000000000082e-05,2.000000000000000164e-05,1.499999999999999869e-04,2.799999999999999755e-04,2.100000000000000087e-04,2.000000000000000164e-05,3.399999999999999702e-04,6.000000000000000000e+00,1.100000000000000000e+01
2.665800000000000000e+04,3.099999999999999999e-04,-1.000000000000000082e-05,2.000000000000000164e-05,1.499999999999999869e-04,2.799999999999999755e-04,2.100000000000000087e-04,2.000000000000000164e-05,3.399999999999999702e-04,6.000000000000000000e+00,1.100000000000000000e+01
2.665900000000000000e+04,3.099999999999999999e-04,-1.000000000000000082e-05,2.000000000000000164e-05,1.499999999999999869e-04,2.799999999999999755e-04,2.100000000000000087e-04,2.000000000000000164e-05,3.399999999999999702e-04,6.000000000000000000e+00,1.100000000000000000e+01
2.666000000000000000e+04,3.099999999999999999e-04,-1.000000000000000082e-05,2.000000000000000164e-05,1.499999999999999869e-04,2.799999999999999755e-04,2.100000000000000087e-04,2.000000000000000164e-05,3.399999999999999702e-04,6.000000000000000000e+00,1.100000000000000000e+01
2.666100000000000000e+04,3.099999999999999999e-04,-1.000000000000000082e-05,2.000000000000000164e-05,1.499999999999999869e-04,2.799999999999999755e-04,2.100000000000000087e-04,2.000000000000000164e-05,3.399999999999999702e-04,6.000000000000000000e+00,1.100000000000000000e+01
2.666200000000000000e+04,3.099999999999999999e-04,-1.000000000000000082e-05,2.000000000000000164e-05,1.499999999999999869e-04,2.799999999999999755e-04,2.100000000000000087e-04,2.000000000000000164e-05,3.399999999999999702e-04,6.000000000000000000e+00,1.100000000000000000e+01
2.666300000000000000e+04,3.099999999999999999e-04,-1.000000000000000082e-05,2.000000000000000164e-05,1.499999999999999869e-04,2.799999999999999755e-04,2.100000000000000087e-04,2.000000000000000164e-05,3.399999999999999702e-04,6.000000000000000000e+00,1.100000000000000000e+01
2.666400000000000000e+04,3.099999999999999999e-04,-1.000000000000000082e-05,2.000000000000000164e-05,1.499999999999999869e-04,2.799999999999999755e-04,2.100000000000000087e-04,2.000000000000000164e-05,3.399999999999999702e-04,6.000000000000000000e+00,1.100000000000000000e+01
2.666500000000000000e+04,3.099999999999999999e-04,-1.000000000000000082e-05,2.000000000000000164e-05,1.499999999999999869e-04,2.799999999999999755e-04,2.100000000000000087e-04,2.000000000000000164e-05,3.399999999999999702e-04,6.000000000000000000e+00,1.100000000000000000e+01
2.666600000000000000e+04,3.099999999999999999e-04,-1.000000000000000082e-05,2.000000000000000164e-05,1.499999999999999869e-04,2.799999999999999755e-04,2.100000000000000087e-04,2.000000000000000164e-05,3.399999999999999702e-04,6.000000000000000000e+00,1.100000000000000000e+01
2.666700000000000000e+04,3.099999999999999999e-04,-1.000000000000000082e-05,2.000000000000000164e-05,1.499999999999999869e-04,2.799999999999999755e-04,2.100000000000000087e-04,2.000000000000000164e-05,3.399999999999999702e-04,6.000000000000000000e+00,1.100000000000000000e+01
2.666800000000000000e+04,3.099999999999999999e-04,-1.000000000000000082e-05,2.000000000000000164e-05,1.499999999999999869e-04,2.799999999999999755e-04,2.100000000000000087e-04,2.000000000000000164e-05,3.399999999999999702e-04,6.000000000000000000e+00,1.100000000000000000e+01
2.666900000000000000e+04,3.099999999999999999e-04,-1.000000000000000082e-05,2.000000000000000164e-05,1.499999999999999869e-04,2.799999999999999755e-04,2.100000000000000087e-04,2.000000000000000164e-05,3.399999999999999702e-04,6.000000000000000000e+00,1.100000000000000000e+01
2.667000000000000000e+04,3.099999999999999999e-04,-1.000000000000000082e-05,2.000000000000000164e-05,1.499999999999999869e-04,2.799999999999999755e-04,2.100000000000000087e-04,2.000000000000000164e-05,3.399999999999999702e-04,6.000000000000000000e+00,1.100000000000000000e+01
2.667100000000000000e+04,3.099999999999999999e-04,-1.000000000000000082e-05,2.000000000000000164e-05,1.499999999999999869e-04,2.799999999999999755e-04,2.100000000000000087e-04,2.000000000000000164e-05,3.399999999999999702e-04,6.000000000000000000e+00,1.100000000000000000e+01
2.667200000000000000e+04,3.099999999999999999e-04,-1.000000000000000082e-05,2.000000000000000164e-05,1.499999999999999869e-04,2.799999999999999755e-04,2.100000000000000087e-04,2.000000000000000164e-05,3.399999999999999702e-04,6.000000000000000000e+00,1.100000000000000000e+01
2.667300000000000000e+04,3.099999999999999999e-04,-1.000000000000000082e-05,2.000000000000000164e-05,1.499999999999999869e-04,2.799999999999999755e-04,2.100000000000000087e-04,2.000000000000000164e-05,3.399999999999999702e-04,6.000000000000000000e+00,1.100000000000000000e+01
2.667400000000000000e+04,3.099999999999999999e-04,-1.000000000000000082e-05,2.000000000000000164e-05,1.499999999999999869e-04,2.799999999999999755e-04,2.100000000000000087e-04,2.000000000000000164e-05,3.399999999999999702e-04,6.000000000000000000e+00,1.100000000000000000e+01
2.667500000000000000e+04,3.099999999999999999e-04,-1.000000000000000082e-05,2.000000000000000164e-05,1.499999999999999869e-04,2.799999999999999755e-04,2.100000000000000087e-04,2.000000000000000164e-05,3.399999999999999702e-04,6.000000000000000000e+00,1.100000000000000000e+01
2.667600000000000000e+04,3.099999999999999999e-04,-1.000000000000000082e-05,2.000000000000000164e-05,1.499999999999999869e-04,2.799999999999999755e-04,2.100000000000000087e-04,2.000000000000000164e-05,3.399999999999999702e-04,6.000000000000000000e+00,1.100000000000000000e+01
2.667700000000000000e+04,3.099999999999999999e-04,-1.000000000000000082e-05,2.000000000000000164e-05,1.499999999999999869e-04,2.799999999999999755e-04,2.100000000000000087e-04,2.000000000000000164e-05,3.399999999999999702e-04,6.000000000000000000e+00,1.100000000000000000e+01
2.667800000000000000e+04,6.999999999999999387e-05,4.000000000000000327e-05,1.100000000000000039e-04,8.000000000000000654e-05,1.499999999999999869e-04,-6.999999999999999387e-05,2.900000000000000017e-04,-2.999999999999999737e-05,6.000000000000000000e+00,1.100000000000000000e+01
2.667900000000000000e+04,6.999999999999999387e-05,4.000000000000000327e-05,1.100000000000000039e-04,8.000000000000000654e-05,1.499999999999999869e-04,-6.999999999999999387e-05,2.900000000000000017e-04,-2.999999999999999737e-05,6.000000000000000000e+00,1.100000000000000000e+01
2.668000000000000000e+04,0.000000000000000000e+00,4.000000000000000327e-05,0.000000000000000000e+00,8.000000000000000654e-05,4.000000000000000327e-05,4.000000000000000327e-05,5.999999999999999474e-05,-2.500000000000000052e-04,6.000000000000000000e+00,1.100000000000000000e+01
2.668200000000000000e+04,0.000000000000000000e+00,4.000000000000000327e-05,0.000000000000000000e+00,8.000000000000000654e-05,4.000000000000000327e-05,4.000000000000000327e-05,5.999999999999999474e-05,-2.500000000000000052e-04,6.000000000000000000e+00,1.100000000000000000e+01
2.668300000000000000e+04,0.000000000000000000e+00,4.000000000000000327e-05,0.000000000000000000e+00,8.000000000000000654e-05,4.000000000000000327e-05,4.000000000000000327e-05,5.999999999999999474e-05,-2.500000000000000052e-04,6.000000000000000000e+00,1.100000000000000000e+01
2.668400000000000000e+04,0.000000000000000000e+00,4.000000000000000327e-05,0.000000000000000000e+00,8.000000000000000654e-05,4.000000000000000327e-05,4.000000000000000327e-05,5.999999999999999474e-05,-2.500000000000000052e-04,6.000000000000000000e+00,1.100000000000000000e+01
2.668500000000000000e+04,0.000000000000000000e+00,4.000000000000000327e-05,0.000000000000000000e+00,8.000000000000000654e-05,4.000000000000000327e-05,4.000000000000000327e-05,5.999999999999999474e-05,-2.500000000000000052e-04,6.000000000000000000e+00,1.100000000000000000e+01
2.668600000000000000e+04,0.000000000000000000e+00,4.000000000000000327e-05,0.000000000000000000e+00,8.000000000000000654e-05,4.000000000000000327e-05,4.000000000000000327e-05,5.999999999999999474e-05,-2.500000000000000052e-04,6.000000000000000000e+00,1.100000000000000000e+01
2.668700000000000000e+04,0.000000000000000000e+00,4.000000000000000327e-05,0.000000000000000000e+00,8.000000000000000654e-05,4.000000000000000327e-05,4.000000000000000327e-05,5.999999999999999474e-05,-2.500000000000000052e-04,6.000000000000000000e+00,1.100000000000000000e+01
2.668800000000000000e+04,0.000000000000000000e+00,4.000000000000000327e-05,0.000000000000000000e+00,8.000000000000000654e-05,4.000000000000000327e-05,4.000000000000000327e-05,5.999999999999999474e-05,-2.500000000000000052e-04,6.000000000000000000e+00,1.100000000000000000e+01
2.668900000000000000e+04,0.000000000000000000e+00,4.000000000000000327e-05,0.000000000000000000e+00,8.000000000000000654e-05,4.000000000000000327e-05,4.000000000000000327e-05,5.999999999999999474e-05,-2.500000000000000052e-04,6.000000000000000000e+00,1.100000000000000000e+01
2.669000000000000000e+04,0.000000000000000000e+00,4.000000000000000327e-05,0.000000000000000000e+00,8.000000000000000654e-05,4.000000000000000327e-05,4.000000000000000327e-05,5.999999999999999474e-05,-2.500000000000000052e-04,6.000000000000000000e+00,1.100000000000000000e+01
2.669100000000000000e+04,0.000000000000000000e+00,4.000000000000000327e-05,0.000000000000000000e+00,8.000000000000000654e-05,4.000000000000000327e-05,4.000000000000000327e-05,5.999999999999999474e-05,-2.500000000000000052e-04,6.000000000000000000e+00,1.100000000000000000e+01
2.669200000000000000e+04,5.000000000000000240e-05,-4.000000000000000327e-05,-2.999999999999999737e-05,-1.000000000000000048e-04,-2.200000000000000078e-04,-1.100000000000000039e-04,5.000000000000000240e-05,3.699999999999999947e-04,6.000000000000000000e+00,1.100000000000000000e+01
2.669300000000000000e+04,5.000000000000000240e-05,-4.000000000000000327e-05,-2.999999999999999737e-05,-1.000000000000000048e-04,-2.200000000000000078e-04,-1.100000000000000039e-04,5.000000000000000240e-05,3.699999999999999947e-04,6.000000000000000000e+00,1.100000000000000000e+01
2.669400000000000000e+04,5.000000000000000240e-05,-4.000000000000000327e-05,-2.999999999999999737e-05,-1.000000000000000048e-04,-2.200000000000000078e-04,-1.100000000000000039e-04,5.000000000000000240e-05,3.699999999999999947e-04,6.000000000000000000e+00,1.100000000000000000e+01
2.669500000000000000e+04,5.000000000000000240e-05,-4.000000000000000327e-05,-2.999999999999999737e-05,-1.000000000000000048e-04,-2.200000000000000078e-04,-1.100000000000000039e-04,5.000000000000000240e-05,3.699999999999999947e-04,6.000000000000000000e+00,1.100000000000000000e+01
2.669600000000000000e+04,5.000000000000000240e-05,-4.000000000000000327e-05,-2.999999999999999737e-05,-1.000000000000000048e-04,-2.200000000000000078e-04,-1.100000000000000039e-04,5.000000000000000240e-05,3.699999999999999947e-04,6.000000000000000000e+00,1.100000000000000000e+01
2.669700000000000000e+04,5.000000000000000240e-05,-4.000000000000000327e-05,-2.999999999999999737e-05,-1.000000000000000048e-04,-2.200000000000000078e-04,-1.100000000000000039e-04,5.000000000000000240e-05,3.699999999999999947e-04,6.000000000000000000e+00,1.100000000000000000e+01
2.669800000000000000e+04,5.000000000000000240e-05,-4.000000000000000327e-05,-2.999999999999999737e-05,-1.000000000000000048e-04,-2.200000000000000078e-04,-1.100000000000000039e-04,5.000000000000000240e-05,3.699999999999999947e-04,6.000000000000000000e+00,1.100000000000000000e+01
2.669900000000000000e+04,5.000000000000000240e-05,-4.000000000000000327e-05,-2.999999999999999737e-05,-1.000000000000000048e-04,-2.200000000000000078e-04,-1.100000000000000039e-04,5.000000000000000240e-05,3.699999999999999947e-04,6.000000000000000000e+00,1.100000000000000000e+01
2.670000000000000000e+04,5.000000000000000240e-05,-4.000000000000000327e-05,-2.999999999999999737e-05,-1.000000000000000048e-04,-2.200000000000000078e-04,-1.100000000000000039e-04,5.000000000000000240e-05,3.699999999999999947e-04,6.000000000000000000e+00,1.100000000000000000e+01
2.670100000000000000e+04,1.899999999999999834e-04,-6.999999999999999387e-05,-1.899999999999999834e-04,-2.299999999999999799e-04,-3.699999999999999947e-04,-2.000000000000000164e-05,5.000000000000000240e-05,1.600000000000000131e-04,6.000000000000000000e+00,1.100000000000000000e+01
2.670200000000000000e+04,1.899999999999999834e-04,-6.999999999999999387e-05,-1.899999999999999834e-04,-2.299999999999999799e-04,-3.699999999999999947e-04,-2.000000000000000164e-05,5.000000000000000240e-05,1.600000000000000131e-04,6.000000000000000000e+00,1.100000000000000000e+01
2.670300000000000000e+04,1.899999999999999834e-04,-6.999999999999999387e-05,-1.899999999999999834e-04,-2.299999999999999799e-04,-3.699999999999999947e-04,-2.000000000000000164e-05,5.000000000000000240e-05,1.600000000000000131e-04,6.000000000000000000e+00,1.100000000000000000e+01
2.670400000000000000e+04,1.899999999999999834e-04,-6.999999999999999387e-05,-1.899999999999999834e-04,-2.299999999999999799e-04,-3.699999999999999947e-04,-2.000000000000000164e-05,5.000000000000000240e-05,1.600000000000000131e-04,6.000000000000000000e+00,1.100000000000000000e+01
2.670500000000000000e+04,1.899999999999999834e-04,-6.999999999999999387e-05,-1.899999999999999834e-04,-2.299999999999999799e-04,-3.699999999999999947e-04,-2.000000000000000164e-05,5.000000000000000240e-05,1.600000000000000131e-04,6.000000000000000000e+00,1.100000000000000000e+01
2.670600000000000000e+04,1.899999999999999834e-04,-6.999999999999999387e-05,-1.899999999999999834e-04,-2.299999999999999799e-04,-3.699999999999999947e-04,-2.000000000000000164e-05,5.000000000000000240e-05,1.600000000000000131e-04,6.000000000000000000e+00,1.100000000000000000e+01
2.670700000000000000e+04,1.899999999999999834e-04,-6.999999999999999387e-05,-1.899999999999999834e-04,-2.299999999999999799e-04,-3.699999999999999947e-04,-2.000000000000000164e-05,5.000000000000000240e-05,1.600000000000000131e-04,6.000000000000000000e+00,1.100000000000000000e+01
2.670800000000000000e+04,1.899999999999999834e-04,-6.999999999999999387e-05,-1.899999999999999834e-04,-2.299999999999999799e-04,-3.699999999999999947e-04,-2.000000000000000164e-05,5.000000000000000240e-05,1.600000000000000131e-04,6.000000000000000000e+00,1.100000000000000000e+01
2.670900000000000000e+04,1.899999999999999834e-04,-6.999999999999999387e-05,-1.899999999999999834e-04,-2.299999999999999799e-04,-3.699999999999999947e-04,-2.000000000000000164e-05,5.000000000000000240e-05,1.600000000000000131e-04,6.000000000000000000e+00,1.100000000000000000e+01
2.671000000000000000e+04,1.899999999999999834e-04,-6.999999999999999387e-05,-1.899999999999999834e-04,-2.299999999999999799e-04,-3.699999999999999947e-04,-2.000000000000000164e-05,5.000000000000000240e-05,1.600000000000000131e-04,6.000000000000000000e+00,1.100000000000000000e+01
2.671100000000000000e+04,1.899999999999999834e-04,-6.999999999999999387e-05,-1.899999999999999834e-04,-2.299999999999999799e-04,-3.699999999999999947e-04,-2.000000000000000164e-05,5.000000000000000240e-05,1.600000000000000131e-04,6.000000000000000000e+00,1.100000000000000000e+01
2.671200000000000000e+04,1.899999999999999834e-04,-6.999999999999999387e-05,-1.899999999999999834e-04,-2.299999999999999799e-04,-3.699999999999999947e-04,-2.000000000000000164e-05,5.000000000000000240e-05,1.600000000000000131e-04,6.000000000000000000e+00,1.100000000000000000e+01
2.671300000000000000e+04,1.899999999999999834e-04,-6.999999999999999387e-05,-1.899999999999999834e-04,-2.299999999999999799e-04,-3.699999999999999947e-04,-2.000000000000000164e-05,5.000000000000000240e-05,1.600000000000000131e-04,6.000000000000000000e+00,1.100000000000000000e+01
2.671400000000000000e+04,1.899999999999999834e-04,-6.999999999999999387e-05,-1.899999999999999834e-04,-2.299999999999999799e-04,-3.699999999999999947e-04,-2.000000000000000164e-05,5.000000000000000240e-05,1.600000000000000131e-04,6.000000000000000000e+00,1.100000000000000000e+01
2.671500000000000000e+04,1.899999999999999834e-04,-6.999999999999999387e-05,-1.899999999999999834e-04,-2.299999999999999799e-04,-3.699999999999999947e-04,-2.000000000000000164e-05,5.000000000000000240e-05,1.600000000000000131e-04,6.000000000000000000e+00,1.100000000000000000e+01
2.671600000000000000e+04,2.600000000000000314e-04,-2.999999999999999737e-05,-1.100000000000000039e-04,-1.000000000000000048e-04,-4.599999999999999597e-04,-1.300000000000000157e-04,1.300000000000000157e-04,7.099999999999999107e-04,6.000000000000000000e+00,1.100000000000000000e+01
2.671700000000000000e+04,9.000000000000000567e-05,-2.999999999999999737e-05,2.999999999999999737e-05,2.999999999999999737e-05,-4.000000000000000327e-05,-1.899999999999999834e-04,-1.100000000000000039e-04,1.300000000000000157e-04,6.000000000000000000e+00,1.100000000000000000e+01
2.671800000000000000e+04,9.000000000000000567e-05,-2.999999999999999737e-05,2.999999999999999737e-05,2.999999999999999737e-05,-4.000000000000000327e-05,-1.899999999999999834e-04,-1.100000000000000039e-04,1.300000000000000157e-04,6.000000000000000000e+00,1.100000000000000000e+01
2.671900000000000000e+04,9.000000000000000567e-05,-2.999999999999999737e-05,2.999999999999999737e-05,2.999999999999999737e-05,-4.000000000000000327e-05,-1.899999999999999834e-04,-1.100000000000000039e-04,1.300000000000000157e-04,6.000000000000000000e+00,1.100000000000000000e+01
2.672000000000000000e+04,9.000000000000000567e-05,-2.999999999999999737e-05,2.999999999999999737e-05,2.999999999999999737e-05,-4.000000000000000327e-05,-1.899999999999999834e-04,-1.100000000000000039e-04,1.300000000000000157e-04,6.000000000000000000e+00,1.100000000000000000e+01
2.672100000000000000e+04,9.000000000000000567e-05,-2.999999999999999737e-05,2.999999999999999737e-05,2.999999999999999737e-05,-4.000000000000000327e-05,-1.899999999999999834e-04,-1.100000000000000039e-04,1.300000000000000157e-04,6.000000000000000000e+00,1.100000000000000000e+01
2.672200000000000000e+04,9.000000000000000567e-05,-2.999999999999999737e-05,2.999999999999999737e-05,2.999999999999999737e-05,-4.000000000000000327e-05,-1.899999999999999834e-04,-1.100000000000000039e-04,1.300000000000000157e-04,6.000000000000000000e+00,1.100000000000000000e+01
2.672300000000000000e+04,9.000000000000000567e-05,-2.999999999999999737e-05,2.999999999999999737e-05,2.999999999999999737e-05,-4.000000000000000327e-05,-1.899999999999999834e-04,-1.100000000000000039e-04,1.300000000000000157e-04,6.000000000000000000e+00,1.100000000000000000e+01
2.672400000000000000e+04,9.000000000000000567e-05,-2.999999999999999737e-05,2.999999999999999737e-05,2.999999999999999737e-05,-4.000000000000000327e-05,-1.899999999999999834e-04,-1.100000000000000039e-04,1.300000000000000157e-04,6.000000000000000000e+00,1.100000000000000000e+01
2.672500000000000000e+04,9.000000000000000567e-05,-2.999999999999999737e-05,2.999999999999999737e-05,2.999999999999999737e-05,-4.000000000000000327e-05,-1.899999999999999834e-04,-1.100000000000000039e-04,1.300000000000000157e-04,6.000000000000000000e+00,1.100000000000000000e+01
2.672600000000000000e+04,9.000000000000000567e-05,-2.999999999999999737e-05,2.999999999999999737e-05,2.999999999999999737e-05,-4.000000000000000327e-05,-1.899999999999999834e-04,-1.100000000000000039e-04,1.300000000000000157e-04,6.000000000000000000e+00,1.100000000000000000e+01
2.672800000000000000e+04,9.000000000000000567e-05,-2.999999999999999737e-05,2.999999999999999737e-05,2.999999999999999737e-05,-4.000000000000000327e-05,-1.899999999999999834e-04,-1.100000000000000039e-04,1.300000000000000157e-04,6.000000000000000000e+00,1.100000000000000000e+01
2.672900000000000000e+04,9.000000000000000567e-05,-2.999999999999999737e-05,2.999999999999999737e-05,2.999999999999999737e-05,-4.000000000000000327e-05,-1.899999999999999834e-04,-1.100000000000000039e-04,1.300000000000000157e-04,6.000000000000000000e+00,1.100000000000000000e+01
2.673000000000000000e+04,9.000000000000000567e-05,-2.999999999999999737e-05,2.999999999999999737e-05,2.999999999999999737e-05,-4.000000000000000327e-05,-1.899999999999999834e-04,-1.100000000000000039e-04,1.300000000000000157e-04,6.000000000000000000e+00,1.100000000000000000e+01
2.673100000000000000e+04,9.000000000000000567e-05,-2.999999999999999737e-05,2.999999999999999737e-05,2.999999999999999737e-05,-4.000000000000000327e-05,-1.899999999999999834e-04,-1.100000000000000039e-04,1.300000000000000157e-04,6.000000000000000000e+00,1.100000000000000000e+01
2.673200000000000000e+04,9.000000000000000567e-05,-2.999999999999999737e-05,2.999999999999999737e-05,2.999999999999999737e-05,-4.000000000000000327e-05,-1.899999999999999834e-04,-1.100000000000000039e-04,1.300000000000000157e-04,6.000000000000000000e+00,1.100000000000000000e+01
2.673300000000000000e+04,9.000000000000000567e-05,-2.999999999999999737e-05,2.999999999999999737e-05,2.999999999999999737e-05,-4.000000000000000327e-05,-1.899999999999999834e-04,-1.100000000000000039e-04,1.300000000000000157e-04,6.000000000000000000e+00,1.100000000000000000e+01
2.673400000000000000e+04,9.000000000000000567e-05,-2.999999999999999737e-05,2.999999999999999737e-05,2.999999999999999737e-05,-4.000000000000000327e-05,-1.899999999999999834e-04,-1.100000000000000039e-04,1.300000000000000157e-04,6.000000000000000000e+00,1.100000000000000000e+01
2.673500000000000000e+04,9.000000000000000567e-05,-2.999999999999999737e-05,2.999999999999999737e-05,2.999999999999999737e-05,-4.000000000000000327e-05,-1.899999999999999834e-04,-1.100000000000000039e-04,1.300000000000000157e-04,6.000000000000000000e+00,1.100000000000000000e+01
2.673600000000000000e+04,9.000000000000000567e-05,-2.999999999999999737e-05,2.999999999999999737e-05,2.999999999999999737e-05,-4.000000000000000327e-05,-1.899999999999999834e-04,-1.100000000000000039e-04,1.300000000000000157e-04,6.000000000000000000e+00,1.100000000000000000e+01
2.673700000000000000e+04,9.000000000000000567e-05,-2.999999999999999737e-05,2.999999999999999737e-05,2.999999999999999737e-05,-4.000000000000000327e-05,-1.899999999999999834e-04,-1.100000000000000039e-04,1.300000000000000157e-04,6.000000000000000000e+00,1.100000000000000000e+01
2.673800000000000000e+04,-2.000000000000000164e-05,-1.300000000000000157e-04,2.000000000000000164e-05,4.000000000000000327e-05,5.999999999999999474e-05,-4.000000000000000327e-05,-1.399999999999999877e-04,5.999999999999999474e-05,6.000000000000000000e+00,1.100000000000000000e+01
2.673900000000000000e+04,-2.000000000000000164e-05,-1.300000000000000157e-04,2.000000000000000164e-05,4.000000000000000327e-05,5.999999999999999474e-05,-4.000000000000000327e-05,-1.399999999999999877e-04,5.999999999999999474e-05,6.000000000000000000e+00,1.100000000000000000e+01
2.674000000000000000e+04,-8.099999999999999561e-04,-1.300000000000000157e-04,-5.999999999999999474e-05,-1.000000000000000082e-05,1.100000000000000039e-04,2.100000000000000087e-04,-9.000000000000000567e-05,-5.200000000000000629e-04,6.000000000000000000e+00,1.100000000000000000e+01
2.674100000000000000e+04,-8.099999999999999561e-04,-1.300000000000000157e-04,-5.999999999999999474e-05,-1.000000000000000082e-05,1.100000000000000039e-04,2.100000000000000087e-04,-9.000000000000000567e-05,-5.200000000000000629e-04,6.000000000000000000e+00,1.100000000000000000e+01
2.674200000000000000e+04,-8.099999999999999561e-04,-1.300000000000000157e-04,-5.999999999999999474e-05,-1.000000000000000082e-05,1.100000000000000039e-04,2.100000000000000087e-04,-9.000000000000000567e-05,-5.200000000000000629e-04,6.000000000000000000e+00,1.100000000000000000e+01
2.674300000000000000e+04,-8.099999999999999561e-04,-1.300000000000000157e-04,-5.999999999999999474e-05,-1.000000000000000082e-05,1.100000000000000039e-04,2.100000000000000087e-04,-9.000000000000000567e-05,-5.200000000000000629e-04,6.000000000000000000e+00,1.100000000000000000e+01
2.674400000000000000e+04,-8.099999999999999561e-04,-1.300000000000000157e-04,-5.999999999999999474e-05,-1.000000000000000082e-05,1.100000000000000039e-04,2.100000000000000087e-04,-9.000000000000000567e-05,-5.200000000000000629e-04,6.000000000000000000e+00,1.100000000000000000e+01
2.674500000000000000e+04,-8.099999999999999561e-04,-1.300000000000000157e-04,-5.999999999999999474e-05,-1.000000000000000082e-05,1.100000000000000039e-04,2.100000000000000087e-04,-9.000000000000000567e-05,-5.200000000000000629e-04,6.000000000000000000e+00,1.100000000000000000e+01
2.674600000000000000e+04,-8.099999999999999561e-04,-1.300000000000000157e-04,-5.999999999999999474e-05,-1.000000000000000082e-05,1.100000000000000039e-04,2.100000000000000087e-04,-9.000000000000000567e-05,-5.200000000000000629e-04,6.000000000000000000e+00,1.100000000000000000e+01
2.674700000000000000e+04,-8.099999999999999561e-04,-1.300000000000000157e-04,-5.999999999999999474e-05,-1.000000000000000082e-05,1.100000000000000039e-04,2.100000000000000087e-04,-9.000000000000000567e-05,-5.200000000000000629e-04,6.000000000000000000e+00,1.100000000000000000e+01
2.674800000000000000e+04,-8.099999999999999561e-04,-1.300000000000000157e-04,-5.999999999999999474e-05,-1.000000000000000082e-05,1.100000000000000039e-04,2.100000000000000087e-04,-9.000000000000000567e-05,-5.200000000000000629e-04,6.000000000000000000e+00,1.100000000000000000e+01
2.674900000000000000e+04,-8.099999999999999561e-04,-1.300000000000000157e-04,-5.999999999999999474e-05,-1.000000000000000082e-05,1.100000000000000039e-04,2.100000000000000087e-04,-9.000000000000000567e-05,-5.200000000000000629e-04,6.000000000000000000e+00,1.100000000000000000e+01
2.675000000000000000e+04,-8.099999999999999561e-04,-1.300000000000000157e-04,-5.999999999999999474e-05,-1.000000000000000082e-05,1.100000000000000039e-04,2.100000000000000087e-04,-9.000000000000000567e-05,-5.200000000000000629e-04,6.000000000000000000e+00,1.100000000000000000e+01
2.675100000000000000e+04,-8.099999999999999561e-04,-1.300000000000000157e-04,-5.999999999999999474e-05,-1.000000000000000082e-05,1.100000000000000039e-04,2.100000000000000087e-04,-9.000000000000000567e-05,-5.200000000000000629e-04,6.000000000000000000e+00,1.100000000000000000e+01
2.675200000000000000e+04,4.000000000000000192e-04,6.999999999999999387e-05,-1.000000000000000082e-05,2.000000000000000164e-05,1.000000000000000048e-04,-2.900000000000000017e-04,-1.399999999999999877e-04,-1.499999999999999869e-04,6.000000000000000000e+00,1.100000000000000000e+01
2.675300000000000000e+04,4.000000000000000192e-04,6.999999999999999387e-05,-1.000000000000000082e-05,2.000000000000000164e-05,1.000000000000000048e-04,-2.900000000000000017e-04,-1.399999999999999877e-04,-1.499999999999999869e-04,6.000000000000000000e+00,1.100000000000000000e+01
2.675400000000000000e+04,4.000000000000000192e-04,6.999999999999999387e-05,-1.000000000000000082e-05,2.000000000000000164e-05,1.000000000000000048e-04,-2.900000000000000017e-04,-1.399999999999999877e-04,-1.499999999999999869e-04,6.000000000000000000e+00,1.100000000000000000e+01
2.675500000000000000e+04,4.000000000000000192e-04,6.999999999999999387e-05,-1.000000000000000082e-05,2.000000000000000164e-05,1.000000000000000048e-04,-2.900000000000000017e-04,-1.399999999999999877e-04,-1.499999999999999869e-04,6.000000000000000000e+00,1.100000000000000000e+01
2.675600000000000000e+04,4.000000000000000192e-04,6.999999999999999387e-05,-1.000000000000000082e-05,2.000000000000000164e-05,1.000000000000000048e-04,-2.900000000000000017e-04,-1.399999999999999877e-04,-1.499999999999999869e-04,6.000000000000000000e+00,1.100000000000000000e+01
2.675700000000000000e+04,4.000000000000000192e-04,6.999999999999999387e-05,-1.000000000000000082e-05,2.000000000000000164e-05,1.000000000000000048e-04,-2.900000000000000017e-04,-1.399999999999999877e-04,-1.499999999999999869e-04,6.000000000000000000e+00,1.100000000000000000e+01
2.675800000000000000e+04,4.000000000000000192e-04,6.999999999999999387e-05,-1.000000000000000082e-05,2.000000000000000164e-05,1.000000000000000048e-04,-2.900000000000000017e-04,-1.399999999999999877e-04,-1.499999999999999869e-04,6.000000000000000000e+00,1.100000000000000000e+01
2.675900000000000000e+04,4.000000000000000192e-04,6.999999999999999387e-05,-1.000000000000000082e-05,2.000000000000000164e-05,1.000000000000000048e-04,-2.900000000000000017e-04,-1.399999999999999877e-04,-1.499999999999999869e-04,6.000000000000000000e+00,1.100000000000000000e+01
2.676000000000000000e+04,4.000000000000000192e-04,6.999999999999999387e-05,-1.000000000000000082e-05,2.000000000000000164e-05,1.000000000000000048e-04,-2.900000000000000017e-04,-1.399999999999999877e-04,-1.499999999999999869e-04,6.000000000000000000e+00,1.100000000000000000e+01
2.676100000000000000e+04,1.499999999999999869e-04,-4.000000000000000327e-05,1.000000000000000082e-05,-5.999999999999999474e-05,-2.799999999999999755e-04,5.000000000000000240e-05,-1.499999999999999869e-04,-2.900000000000000017e-04,6.000000000000000000e+00,1.100000000000000000e+01
2.676200000000000000e+04,1.499999999999999869e-04,-4.000000000000000327e-05,1.000000000000000082e-05,-5.999999999999999474e-05,-2.799999999999999755e-04,5.000000000000000240e-05,-1.499999999999999869e-04,-2.900000000000000017e-04,6.000000000000000000e+00,1.100000000000000000e+01
2.676300000000000000e+04,1.499999999999999869e-04,-4.000000000000000327e-05,1.000000000000000082e-05,-5.999999999999999474e-05,-2.799999999999999755e-04,5.000000000000000240e-05,-1.499999999999999869e-04,-2.900000000000000017e-04,6.000000000000000000e+00,1.100000000000000000e+01
2.676400000000000000e+04,1.499999999999999869e-04,-4.000000000000000327e-05,1.000000000000000082e-05,-5.999999999999999474e-05,-2.799999999999999755e-04,5.000000000000000240e-05,-1.499999999999999869e-04,-2.900000000000000017e-04,6.000000000000000000e+00,1.100000000000000000e+01
2.676500000000000000e+04,1.499999999999999869e-04,-4.000000000000000327e-05,1.000000000000000082e-05,-5.999999999999999474e-05,-2.799999999999999755e-04,5.000000000000000240e-05,-1.499999999999999869e-04,-2.900000000000000017e-04,6.000000000000000000e+00,1.100000000000000000e+01
2.676600000000000000e+04,1.499999999999999869e-04,-4.000000000000000327e-05,1.000000000000000082e-05,-5.999999999999999474e-05,-2.799999999999999755e-04,5.000000000000000240e-05,-1.499999999999999869e-04,-2.900000000000000017e-04,6.000000000000000000e+00,1.100000000000000000e+01
2.676700000000000000e+04,1.499999999999999869e-04,-4.000000000000000327e-05,1.000000000000000082e-05,-5.999999999999999474e-05,-2.799999999999999755e-04,5.000000000000000240e-05,-1.499999999999999869e-04,-2.900000000000000017e-04,6.000000000000000000e+00,1.100000000000000000e+01
2.676800000000000000e+04,1.499999999999999869e-04,-4.000000000000000327e-05,1.000000000000000082e-05,-5.999999999999999474e-05,-2.799999999999999755e-04,5.000000000000000240e-05,-1.499999999999999869e-04,-2.900000000000000017e-04,6.000000000000000000e+00,1.100000000000000000e+01
2.676900000000000000e+04,1.499999999999999869e-04,-4.000000000000000327e-05,1.000000000000000082e-05,-5.999999999999999474e-05,-2.799999999999999755e-04,5.000000000000000240e-05,-1.499999999999999869e-04,-2.900000000000000017e-04,6.000000000000000000e+00,1.100000000000000000e+01
2.677000000000000000e+04,1.499999999999999869e-04,-4.000000000000000327e-05,1.000000000000000082e-05,-5.999999999999999474e-05,-2.799999999999999755e-04,5.000000000000000240e-05,-1.499999999999999869e-04,-2.900000000000000017e-04,6.000000000000000000e+00,1.100000000000000000e+01
2.677100000000000000e+04,1.499999999999999869e-04,-4.000000000000000327e-05,1.000000000000000082e-05,-5.999999999999999474e-05,-2.799999999999999755e-04,5.000000000000000240e-05,-1.499999999999999869e-04,-2.900000000000000017e-04,6.000000000000000000e+00,1.100000000000000000e+01
2.677200000000000000e+04,1.499999999999999869e-04,-4.000000000000000327e-05,1.000000000000000082e-05,-5.999999999999999474e-05,-2.799999999999999755e-04,5.000000000000000240e-05,-1.499999999999999869e-04,-2.900000000000000017e-04,6.000000000000000000e+00,1.100000000000000000e+01
2.677300000000000000e+04,1.499999999999999869e-04,-4.000000000000000327e-05,1.000000000000000082e-05,-5.999999999999999474e-05,-2.799999999999999755e-04,5.000000000000000240e-05,-1.499999999999999869e-04,-2.900000000000000017e-04,6.000000000000000000e+00,1.100000000000000000e+01
2.677500000000000000e+04,1.499999999999999869e-04,-4.000000000000000327e-05,1.000000000000000082e-05,-5.999999999999999474e-05,-2.799999999999999755e-04,5.000000000000000240e-05,-1.499999999999999869e-04,-2.900000000000000017e-04,6.000000000000000000e+00,1.100000000000000000e+01
2.677600000000000000e+04,-3.099999999999999999e-04,-2.999999999999999737e-05,-5.000000000000000240e-05,-1.199999999999999895e-04,4.000000000000000327e-05,1.199999999999999895e-04,-3.899999999999999929e-04,-1.300000000000000157e-04,6.000000000000000000e+00,1.100000000000000000e+01
2.677700000000000000e+04,-3.399999999999999702e-04,0.000000000000000000e+00,-1.000000000000000082e-05,5.000000000000000240e-05,6.999999999999999387e-05,2.600000000000000314e-04,2.000000000000000096e-04,5.200000000000000629e-04,6.000000000000000000e+00,1.100000000000000000e+01
2.677800000000000000e+04,-3.399999999999999702e-04,0.000000000000000000e+00,-1.000000000000000082e-05,5.000000000000000240e-05,6.999999999999999387e-05,2.600000000000000314e-04,2.000000000000000096e-04,5.200000000000000629e-04,6.000000000000000000e+00,1.100000000000000000e+01
2.677900000000000000e+04,-3.399999999999999702e-04,0.000000000000000000e+00,-1.000000000000000082e-05,5.000000000000000240e-05,6.999999999999999387e-05,2.600000000000000314e-04,2.000000000000000096e-04,5.200000000000000629e-04,6.000000000000000000e+00,1.100000000000000000e+01
2.678000000000000000e+04,-3.399999999999999702e-04,0.000000000000000000e+00,-1.000000000000000082e-05,5.000000000000000240e-05,6.999999999999999387e-05,2.600000000000000314e-04,2.000000000000000096e-04,5.200000000000000629e-04,6.000000000000000000e+00,1.100000000000000000e+01
2.678100000000000000e+04,-3.399999999999999702e-04,0.000000000000000000e+00,-1.000000000000000082e-05,5.000000000000000240e-05,6.999999999999999387e-05,2.600000000000000314e-04,2.000000000000000096e-04,5.200000000000000629e-04,6.000000000000000000e+00,1.100000000000000000e+01
2.678200000000000000e+04,-3.399999999999999702e-04,0.000000000000000000e+00,-1.000000000000000082e-05,5.000000000000000240e-05,6.999999999999999387e-05,2.600000000000000314e-04,2.000000000000000096e-04,5.200000000000000629e-04,6.000000000000000000e+00,1.100000000000000000e+01
2.678300000000000000e+04,-3.399999999999999702e-04,0.000000000000000000e+00,-1.000000000000000082e-05,5.000000000000000240e-05,6.999999999999999387e-05,2.600000000000000314e-04,2.000000000000000096e-04,5.200000000000000629e-04,6.000000000000000000e+00,1.100000000000000000e+01
2.678400000000000000e+04,-3.399999999999999702e-04,0.000000000000000000e+00,-1.000000000000000082e-05,5.000000000000000240e-05,6.999999999999999387e-05,2.600000000000000314e-04,2.000000000000000096e-04,5.200000000000000629e-04,6.000000000000000000e+00,1.100000000000000000e+01
2.678500000000000000e+04,-3.399999999999999702e-04,0.000000000000000000e+00,-1.000000000000000082e-05,5.000000000000000240e-05,6.999999999999999387e-05,2.600000000000000314e-04,2.000000000000000096e-04,5.200000000000000629e-04,6.000000000000000000e+00,1.100000000000000000e+01
2.678600000000000000e+04,-3.399999999999999702e-04,0.000000000000000000e+00,-1.000000000000000082e-05,5.000000000000000240e-05,6.999999999999999387e-05,2.600000000000000314e-04,2.000000000000000096e-04,5.200000000000000629e-04,6.000000000000000000e+00,1.100000000000000000e+01
2.678700000000000000e+04,-3.399999999999999702e-04,0.000000000000000000e+00,-1.000000000000000082e-05,5.000000000000000240e-05,6.999999999999999387e-05,2.600000000000000314e-04,2.000000000000000096e-04,5.200000000000000629e-04,6.000000000000000000e+00,1.100000000000000000e+01
2.678800000000000000e+04,-3.399999999999999702e-04,0.000000000000000000e+00,-1.000000000000000082e-05,5.000000000000000240e-05,6.999999999999999387e-05,2.600000000000000314e-04,2.000000000000000096e-04,5.200000000000000629e-04,6.000000000000000000e+00,1.100000000000000000e+01
2.678900000000000000e+04,-3.399999999999999702e-04,0.000000000000000000e+00,-1.000000000000000082e-05,5.000000000000000240e-05,6.999999999999999387e-05,2.600000000000000314e-04,2.000000000000000096e-04,5.200000000000000629e-04,6.000000000000000000e+00,1.100000000000000000e+01
2.679000000000000000e+04,-3.399999999999999702e-04,0.000000000000000000e+00,-1.000000000000000082e-05,5.000000000000000240e-05,6.999999999999999387e-05,2.600000000000000314e-04,2.000000000000000096e-04,5.200000000000000629e-04,6.000000000000000000e+00,1.100000000000000000e+01
2.679100000000000000e+04,-3.399999999999999702e-04,0.000000000000000000e+00,-1.000000000000000082e-05,5.000000000000000240e-05,6.999999999999999387e-05,2.600000000000000314e-04,2.000000000000000096e-04,5.200000000000000629e-04,6.000000000000000000e+00,1.100000000000000000e+01
2.679200000000000000e+04,-3.399999999999999702e-04,0.000000000000000000e+00,-1.000000000000000082e-05,5.000000000000000240e-05,6.999999999999999387e-05,2.600000000000000314e-04,2.000000000000000096e-04,5.200000000000000629e-04,6.000000000000000000e+00,1.100000000000000000e+01
2.679300000000000000e+04,-3.399999999999999702e-04,0.000000000000000000e+00,-1.000000000000000082e-05,5.000000000000000240e-05,6.999999999999999387e-05,2.600000000000000314e-04,2.000000000000000096e-04,5.200000000000000629e-04,6.000000000000000000e+00,1.100000000000000000e+01
2.679400000000000000e+04,-3.399999999999999702e-04,0.000000000000000000e+00,-1.000000000000000082e-05,5.000000000000000240e-05,6.999999999999999387e-05,2.600000000000000314e-04,2.000000000000000096e-04,5.200000000000000629e-04,6.000000000000000000e+00,1.100000000000000000e+01
2.679500000000000000e+04,-3.399999999999999702e-04,0.000000000000000000e+00,-1.000000000000000082e-05,5.000000000000000240e-05,6.999999999999999387e-05,2.600000000000000314e-04,2.000000000000000096e-04,5.200000000000000629e-04,6.000000000000000000e+00,1.100000000000000000e+01
2.679600000000000000e+04,-3.399999999999999702e-04,0.000000000000000000e+00,-1.000000000000000082e-05,5.000000000000000240e-05,6.999999999999999387e-05,2.600000000000000314e-04,2.000000000000000096e-04,5.200000000000000629e-04,6.000000000000000000e+00,1.100000000000000000e+01
2.679700000000000000e+04,-3.399999999999999702e-04,0.000000000000000000e+00,-1.000000000000000082e-05,5.000000000000000240e-05,6.999999999999999387e-05,2.600000000000000314e-04,2.000000000000000096e-04,5.200000000000000629e-04,6.000000000000000000e+00,1.100000000000000000e+01
2.679800000000000000e+04,-2.000000000000000164e-05,2.000000000000000096e-04,1.000000000000000048e-04,-2.000000000000000164e-05,-2.000000000000000096e-04,5.999999999999999474e-05,-1.000000000000000048e-04,-2.999999999999999737e-04,6.000000000000000000e+00,1.100000000000000000e+01
2.679900000000000000e+04,-2.000000000000000164e-05,2.000000000000000096e-04,1.000000000000000048e-04,-2.000000000000000164e-05,-2.000000000000000096e-04,5.999999999999999474e-05,-1.000000000000000048e-04,-2.999999999999999737e-04,6.000000000000000000e+00,1.100000000000000000e+01
2.680000000000000000e+04,2.000000000000000096e-04,2.999999999999999737e-05,1.000000000000000082e-05,5.999999999999999474e-05,9.000000000000000567e-05,1.300000000000000157e-04,-2.000000000000000164e-05,1.199999999999999895e-04,6.000000000000000000e+00,1.100000000000000000e+01
2.680100000000000000e+04,2.000000000000000096e-04,2.999999999999999737e-05,1.000000000000000082e-05,5.999999999999999474e-05,9.000000000000000567e-05,1.300000000000000157e-04,-2.000000000000000164e-05,1.199999999999999895e-04,6.000000000000000000e+00,1.100000000000000000e+01
2.680200000000000000e+04,2.000000000000000096e-04,2.999999999999999737e-05,1.000000000000000082e-05,5.999999999999999474e-05,9.000000000000000567e-05,1.300000000000000157e-04,-2.000000000000000164e-05,1.199999999999999895e-04,6.000000000000000000e+00,1.100000000000000000e+01
2.680300000000000000e+04,2.000000000000000096e-04,2.999999999999999737e-05,1.000000000000000082e-05,5.999999999999999474e-05,9.000000000000000567e-05,1.300000000000000157e-04,-2.000000000000000164e-05,1.199999999999999895e-04,6.000000000000000000e+00,1.100000000000000000e+01
2.680400000000000000e+04,2.000000000000000096e-04,2.999999999999999737e-05,1.000000000000000082e-05,5.999999999999999474e-05,9.000000000000000567e-05,1.300000000000000157e-04,-2.000000000000000164e-05,1.199999999999999895e-04,6.000000000000000000e+00,1.100000000000000000e+01
2.680500000000000000e+04,2.000000000000000096e-04,2.999999999999999737e-05,1.000000000000000082e-05,5.999999999999999474e-05,9.000000000000000567e-05,1.300000000000000157e-04,-2.000000000000000164e-05,1.199999999999999895e-04,6.000000000000000000e+00,1.100000000000000000e+01
2.680600000000000000e+04,2.000000000000000096e-04,2.999999999999999737e-05,1.000000000000000082e-05,5.999999999999999474e-05,9.000000000000000567e-05,1.300000000000000157e-04,-2.000000000000000164e-05,1.199999999999999895e-04,6.000000000000000000e+00,1.100000000000000000e+01
2.680700000000000000e+04,2.000000000000000096e-04,2.999999999999999737e-05,1.000000000000000082e-05,5.999999999999999474e-05,9.000000000000000567e-05,1.300000000000000157e-04,-2.000000000000000164e-05,1.199999999999999895e-04,6.000000000000000000e+00,1.100000000000000000e+01
2.680800000000000000e+04,2.000000000000000096e-04,2.999999999999999737e-05,1.000000000000000082e-05,5.999999999999999474e-05,9.000000000000000567e-05,1.300000000000000157e-04,-2.000000000000000164e-05,1.199999999999999895e-04,6.000000000000000000e+00,1.100000000000000000e+01
2.680900000000000000e+04,2.000000000000000096e-04,2.999999999999999737e-05,1.000000000000000082e-05,5.999999999999999474e-05,9.000000000000000567e-05,1.300000000000000157e-04,-2.000000000000000164e-05,1.199999999999999895e-04,6.000000000000000000e+00,1.100000000000000000e+01
2.681000000000000000e+04,2.000000000000000096e-04,2.999999999999999737e-05,1.000000000000000082e-05,5.999999999999999474e-05,9.000000000000000567e-05,1.300000000000000157e-04,-2.000000000000000164e-05,1.199999999999999895e-04,6.000000000000000000e+00,1.100000000000000000e+01
2.681100000000000000e+04,2.000000000000000096e-04,2.999999999999999737e-05,1.000000000000000082e-05,5.999999999999999474e-05,9.000000000000000567e-05,1.300000000000000157e-04,-2.000000000000000164e-05,1.199999999999999895e-04,6.000000000000000000e+00,1.100000000000000000e+01
2.681200000000000000e+04,2.600000000000000314e-04,-1.000000000000000082e-05,-2.000000000000000164e-05,0.000000000000000000e+00,-6.999999999999999387e-05,-1.499999999999999869e-04,5.000000000000000240e-05,-8.000000000000000654e-05,6.000000000000000000e+00,1.100000000000000000e+01
2.681300000000000000e+04,2.600000000000000314e-04,-1.000000000000000082e-05,-2.000000000000000164e-05,0.000000000000000000e+00,-6.999999999999999387e-05,-1.499999999999999869e-04,5.000000000000000240e-05,-8.000000000000000654e-05,6.000000000000000000e+00,1.100000000000000000e+01
2.681400000000000000e+04,2.600000000000000314e-04,-1.000000000000000082e-05,-2.000000000000000164e-05,0.000000000000000000e+00,-6.999999999999999387e-05,-1.499999999999999869e-04,5.000000000000000240e-05,-8.000000000000000654e-05,6.000000000000000000e+00,1.100000000000000000e+01
2.681500000000000000e+04,2.600000000000000314e-04,-1.000000000000000082e-05,-2.000000000000000164e-05,0.000000000000000000e+00,-6.999999999999999387e-05,-1.499999999999999869e-04,5.000000000000000240e-05,-8.000000000000000654e-05,6.000000000000000000e+00,1.100000000000000000e+01
2.681600000000000000e+04,2.600000000000000314e-04,-1.000000000000000082e-05,-2.000000000000000164e-05,0.000000000000000000e+00,-6.999999999999999387e-05,-1.499999999999999869e-04,5.000000000000000240e-05,-8.000000000000000654e-05,6.000000000000000000e+00,1.100000000000000000e+01
2.681700000000000000e+04,2.600000000000000314e-04,-1.000000000000000082e-05,-2.000000000000000164e-05,0.000000000000000000e+00,-6.999999999999999387e-05,-1.499999999999999869e-04,5.000000000000000240e-05,-8.000000000000000654e-05,6.000000000000000000e+00,1.100000000000000000e+01
2.681800000000000000e+04,2.600000000000000314e-04,-1.000000000000000082e-05,-2.000000000000000164e-05,0.000000000000000000e+00,-6.999999999999999387e-05,-1.499999999999999869e-04,5.000000000000000240e-05,-8.000000000000000654e-05,6.000000000000000000e+00,1.100000000000000000e+01
2.681900000000000000e+04,2.600000000000000314e-04,-1.000000000000000082e-05,-2.000000000000000164e-05,0.000000000000000000e+00,-6.999999999999999387e-05,-1.499999999999999869e-04,5.000000000000000240e-05,-8.000000000000000654e-05,6.000000000000000000e+00,1.100000000000000000e+01
2.682000000000000000e+04,2.600000000000000314e-04,-1.000000000000000082e-05,-2.000000000000000164e-05,0.000000000000000000e+00,-6.999999999999999387e-05,-1.499999999999999869e-04,5.000000000000000240e-05,-8.000000000000000654e-05,6.000000000000000000e+00,1.100000000000000000e+01
2.682200000000000000e+04,-7.500000000000000156e-04,-2.000000000000000164e-05,2.999999999999999737e-05,-8.000000000000000654e-05,-1.499999999999999869e-04,-6.999999999999999387e-05,-1.000000000000000048e-04,-1.100000000000000039e-04,6.000000000000000000e+00,1.100000000000000000e+01
2.682300000000000000e+04,-7.500000000000000156e-04,-2.000000000000000164e-05,2.999999999999999737e-05,-8.000000000000000654e-05,-1.499999999999999869e-04,-6.999999999999999387e-05,-1.000000000000000048e-04,-1.100000000000000039e-04,6.000000000000000000e+00,1.100000000000000000e+01
2.682400000000000000e+04,-7.500000000000000156e-04,-2.000000000000000164e-05,2.999999999999999737e-05,-8.000000000000000654e-05,-1.499999999999999869e-04,-6.999999999999999387e-05,-1.000000000000000048e-04,-1.100000000000000039e-04,6.000000000000000000e+00,1.100000000000000000e+01
2.682500000000000000e+04,-7.500000000000000156e-04,-2.000000000000000164e-05,2.999999999999999737e-05,-8.000000000000000654e-05,-1.499999999999999869e-04,-6.999999999999999387e-05,-1.000000000000000048e-04,-1.100000000000000039e-04,6.000000000000000000e+00,1.100000000000000000e+01
2.682600000000000000e+04,-7.500000000000000156e-04,-2.000000000000000164e-05,2.999999999999999737e-05,-8.000000000000000654e-05,-1.499999999999999869e-04,-6.999999999999999387e-05,-1.000000000000000048e-04,-1.100000000000000039e-04,6.000000000000000000e+00,1.100000000000000000e+01
2.682700000000000000e+04,-7.500000000000000156e-04,-2.000000000000000164e-05,2.999999999999999737e-05,-8.000000000000000654e-05,-1.499999999999999869e-04,-6.999999999999999387e-05,-1.000000000000000048e-04,-1.100000000000000039e-04,6.000000000000000000e+00,1.100000000000000000e+01
2.682800000000000000e+04,-7.500000000000000156e-04,-2.000000000000000164e-05,2.999999999999999737e-05,-8.000000000000000654e-05,-1.499999999999999869e-04,-6.999999999999999387e-05,-1.000000000000000048e-04,-1.100000000000000039e-04,6.000000000000000000e+00,1.100000000000000000e+01
2.682900000000000000e+04,-7.500000000000000156e-04,-2.000000000000000164e-05,2.999999999999999737e-05,-8.000000000000000654e-05,-1.499999999999999869e-04,-6.999999999999999387e-05,-1.000000000000000048e-04,-1.100000000000000039e-04,6.000000000000000000e+00,1.100000000000000000e+01
2.683000000000000000e+04,-7.500000000000000156e-04,-2.000000000000000164e-05,2.999999999999999737e-05,-8.000000000000000654e-05,-1.499999999999999869e-04,-6.999999999999999387e-05,-1.000000000000000048e-04,-1.100000000000000039e-04,6.000000000000000000e+00,1.100000000000000000e+01
2.683100000000000000e+04,-7.500000000000000156e-04,-2.000000000000000164e-05,2.999999999999999737e-05,-8.000000000000000654e-05,-1.499999999999999869e-04,-6.999999999999999387e-05,-1.000000000000000048e-04,-1.100000000000000039e-04,6.000000000000000000e+00,1.100000000000000000e+01
2.683200000000000000e+04,-7.500000000000000156e-04,-2.000000000000000164e-05,2.999999999999999737e-05,-8.000000000000000654e-05,-1.499999999999999869e-04,-6.999999999999999387e-05,-1.000000000000000048e-04,-1.100000000000000039e-04,6.000000000000000000e+00,1.100000000000000000e+01
2.683300000000000000e+04,-7.500000000000000156e-04,-2.000000000000000164e-05,2.999999999999999737e-05,-8.000000000000000654e-05,-1.499999999999999869e-04,-6.999999999999999387e-05,-1.000000000000000048e-04,-1.100000000000000039e-04,6.000000000000000000e+00,1.100000000000000000e+01
2.683400000000000000e+04,-7.500000000000000156e-04,-2.000000000000000164e-05,2.999999999999999737e-05,-8.000000000000000654e-05,-1.499999999999999869e-04,-6.999999999999999387e-05,-1.000000000000000048e-04,-1.100000000000000039e-04,6.000000000000000000e+00,1.100000000000000000e+01
2.683500000000000000e+04,-7.500000000000000156e-04,-2.000000000000000164e-05,2.999999999999999737e-05,-8.000000000000000654e-05,-1.499999999999999869e-04,-6.999999999999999387e-05,-1.000000000000000048e-04,-1.100000000000000039e-04,6.000000000000000000e+00,1.100000000000000000e+01
2.683600000000000000e+04,-7.500000000000000156e-04,-2.000000000000000164e-05,2.999999999999999737e-05,-8.000000000000000654e-05,-1.499999999999999869e-04,-6.999999999999999387e-05,-1.000000000000000048e-04,-1.100000000000000039e-04,6.000000000000000000e+00,1.100000000000000000e+01
2.683700000000000000e+04,-7.500000000000000156e-04,-2.000000000000000164e-05,2.999999999999999737e-05,-8.000000000000000654e-05,-1.499999999999999869e-04,-6.999999999999999387e-05,-1.000000000000000048e-04,-1.100000000000000039e-04,6.000000000000000000e+00,1.100000000000000000e+01
2.683800000000000000e+04,2.100000000000000087e-04,-9.000000000000000567e-05,-2.999999999999999737e-05,2.000000000000000164e-05,5.000000000000000240e-05,-2.200000000000000078e-04,-1.300000000000000157e-04,3.399999999999999702e-04,6.000000000000000000e+00,1.100000000000000000e+01
2.683900000000000000e+04,2.100000000000000087e-04,-9.000000000000000567e-05,-2.999999999999999737e-05,2.000000000000000164e-05,5.000000000000000240e-05,-2.200000000000000078e-04,-1.300000000000000157e-04,3.399999999999999702e-04,6.000000000000000000e+00,1.100000000000000000e+01
2.684000000000000000e+04,2.100000000000000087e-04,-9.000000000000000567e-05,-2.999999999999999737e-05,2.000000000000000164e-05,5.000000000000000240e-05,-2.200000000000000078e-04,-1.300000000000000157e-04,3.399999999999999702e-04,6.000000000000000000e+00,1.100000000000000000e+01
2.684100000000000000e+04,2.100000000000000087e-04,-9.000000000000000567e-05,-2.999999999999999737e-05,2.000000000000000164e-05,5.000000000000000240e-05,-2.200000000000000078e-04,-1.300000000000000157e-04,3.399999999999999702e-04,6.000000000000000000e+00,1.100000000000000000e+01
2.684200000000000000e+04,2.100000000000000087e-04,-9.000000000000000567e-05,-2.999999999999999737e-05,2.000000000000000164e-05,5.000000000000000240e-05,-2.200000000000000078e-04,-1.300000000000000157e-04,3.399999999999999702e-04,6.000000000000000000e+00,1.100000000000000000e+01
2.684300000000000000e+04,2.100000000000000087e-04,-9.000000000000000567e-05,-2.999999999999999737e-05,2.000000000000000164e-05,5.000000000000000240e-05,-2.200000000000000078e-04,-1.300000000000000157e-04,3.399999999999999702e-04,6.000000000000000000e+00,1.100000000000000000e+01
2.684400000000000000e+04,2.100000000000000087e-04,-9.000000000000000567e-05,-2.999999999999999737e-05,2.000000000000000164e-05,5.000000000000000240e-05,-2.200000000000000078e-04,-1.300000000000000157e-04,3.399999999999999702e-04,6.000000000000000000e+00,1.100000000000000000e+01
2.684500000000000000e+04,2.100000000000000087e-04,-9.000000000000000567e-05,-2.999999999999999737e-05,2.000000000000000164e-05,5.000000000000000240e-05,-2.200000000000000078e-04,-1.300000000000000157e-04,3.399999999999999702e-04,6.000000000000000000e+00,1.100000000000000000e+01
2.684600000000000000e+04,2.100000000000000087e-04,-9.000000000000000567e-05,-2.999999999999999737e-05,2.000000000000000164e-05,5.000000000000000240e-05,-2.200000000000000078e-04,-1.300000000000000157e-04,3.399999999999999702e-04,6.000000000000000000e+00,1.100000000000000000e+01
2.684700000000000000e+04,2.100000000000000087e-04,-9.000000000000000567e-05,-2.999999999999999737e-05,2.000000000000000164e-05,5.000000000000000240e-05,-2.200000000000000078e-04,-1.300000000000000157e-04,3.399999999999999702e-04,6.000000000000000000e+00,1.100000000000000000e+01
2.684800000000000000e+04,2.100000000000000087e-04,-9.000000000000000567e-05,-2.999999999999999737e-05,2.000000000000000164e-05,5.000000000000000240e-05,-2.200000000000000078e-04,-1.300000000000000157e-04,3.399999999999999702e-04,6.000000000000000000e+00,1.100000000000000000e+01
2.684900000000000000e+04,2.100000000000000087e-04,-9.000000000000000567e-05,-2.999999999999999737e-05,2.000000000000000164e-05,5.000000000000000240e-05,-2.200000000000000078e-04,-1.300000000000000157e-04,3.399999999999999702e-04,6.000000000000000000e+00,1.100000000000000000e+01
2.685100000000000000e+04,2.100000000000000087e-04,-9.000000000000000567e-05,-2.999999999999999737e-05,2.000000000000000164e-05,5.000000000000000240e-05,-2.200000000000000078e-04,-1.300000000000000157e-04,3.399999999999999702e-04,6.000000000000000000e+00,1.100000000000000000e+01
2.685200000000000000e+04,2.100000000000000087e-04,-9.000000000000000567e-05,-2.999999999999999737e-05,2.000000000000000164e-05,5.000000000000000240e-05,-2.200000000000000078e-04,-1.300000000000000157e-04,3.399999999999999702e-04,6.000000000000000000e+00,1.100000000000000000e+01
2.685300000000000000e+04,2.100000000000000087e-04,-9.000000000000000567e-05,-2.999999999999999737e-05,2.000000000000000164e-05,5.000000000000000240e-05,-2.200000000000000078e-04,-1.300000000000000157e-04,3.399999999999999702e-04,6.000000000000000000e+00,1.100000000000000000e+01
2.685400000000000000e+04,2.100000000000000087e-04,-9.000000000000000567e-05,-2.999999999999999737e-05,2.000000000000000164e-05,5.000000000000000240e-05,-2.200000000000000078e-04,-1.300000000000000157e-04,3.399999999999999702e-04,6.000000000000000000e+00,1.100000000000000000e+01
2.685500000000000000e+04,2.100000000000000087e-04,-9.000000000000000567e-05,-2.999999999999999737e-05,2.000000000000000164e-05,5.000000000000000240e-05,-2.200000000000000078e-04,-1.300000000000000157e-04,3.399999999999999702e-04,6.000000000000000000e+00,1.100000000000000000e+01
2.685600000000000000e+04,2.100000000000000087e-04,-9.000000000000000567e-05,-2.999999999999999737e-05,2.000000000000000164e-05,5.000000000000000240e-05,-2.200000000000000078e-04,-1.300000000000000157e-04,3.399999999999999702e-04,6.000000000000000000e+00,1.100000000000000000e+01
2.685700000000000000e+04,2.100000000000000087e-04,-9.000000000000000567e-05,-2.999999999999999737e-05,2.000000000000000164e-05,5.000000000000000240e-05,-2.200000000000000078e-04,-1.300000000000000157e-04,3.399999999999999702e-04,6.000000000000000000e+00,1.100000000000000000e+01
2.685800000000000000e+04,-3.099999999999999999e-04,-1.000000000000000082e-05,2.999999999999999737e-05,2.200000000000000078e-04,7.700000000000000681e-04,1.100000000000000039e-04,5.999999999999999474e-05,-3.200000000000000262e-04,6.000000000000000000e+00,1.100000000000000000e+01
2.685900000000000000e+04,-3.099999999999999999e-04,-1.000000000000000082e-05,2.999999999999999737e-05,2.200000000000000078e-04,7.700000000000000681e-04,1.100000000000000039e-04,5.999999999999999474e-05,-3.200000000000000262e-04,6.000000000000000000e+00,1.100000000000000000e+01
2.686000000000000000e+04,-2.100000000000000087e-04,-2.000000000000000164e-05,-1.000000000000000082e-05,-9.000000000000000567e-05,-2.900000000000000017e-04,-2.999999999999999737e-05,0.000000000000000000e+00,-1.899999999999999834e-04,6.000000000000000000e+00,1.100000000000000000e+01
2.686100000000000000e+04,-2.100000000000000087e-04,-2.000000000000000164e-05,-1.000000000000000082e-05,-9.000000000000000567e-05,-2.900000000000000017e-04,-2.999999999999999737e-05,0.000000000000000000e+00,-1.899999999999999834e-04,6.000000000000000000e+00,1.100000000000000000e+01
2.686200000000000000e+04,-2.100000000000000087e-04,-2.000000000000000164e-05,-1.000000000000000082e-05,-9.000000000000000567e-05,-2.900000000000000017e-04,-2.999999999999999737e-05,0.000000000000000000e+00,-1.899999999999999834e-04,6.000000000000000000e+00,1.100000000000000000e+01
2.686300000000000000e+04,-2.100000000000000087e-04,-2.000000000000000164e-05,-1.000000000000000082e-05,-9.000000000000000567e-05,-2.900000000000000017e-04,-2.999999999999999737e-05,0.000000000000000000e+00,-1.899999999999999834e-04,6.000000000000000000e+00,1.100000000000000000e+01
2.686400000000000000e+04,-2.100000000000000087e-04,-2.000000000000000164e-05,-1.000000000000000082e-05,-9.000000000000000567e-05,-2.900000000000000017e-04,-2.999999999999999737e-05,0.000000000000000000e+00,-1.899999999999999834e-04,6.000000000000000000e+00,1.100000000000000000e+01
2.686500000000000000e+04,-2.100000000000000087e-04,-2.000000000000000164e-05,-1.000000000000000082e-05,-9.000000000000000567e-05,-2.900000000000000017e-04,-2.999999999999999737e-05,0.000000000000000000e+00,-1.899999999999999834e-04,6.000000000000000000e+00,1.100000000000000000e+01
2.686600000000000000e+04,-2.100000000000000087e-04,-2.000000000000000164e-05,-1.000000000000000082e-05,-9.000000000000000567e-05,-2.900000000000000017e-04,-2.999999999999999737e-05,0.000000000000000000e+00,-1.899999999999999834e-04,6.000000000000000000e+00,1.100000000000000000e+01
2.686700000000000000e+04,-2.100000000000000087e-04,-2.000000000000000164e-05,-1.000000000000000082e-05,-9.000000000000000567e-05,-2.900000000000000017e-04,-2.999999999999999737e-05,0.000000000000000000e+00,-1.899999999999999834e-04,6.000000000000000000e+00,1.100000000000000000e+01
2.686900000000000000e+04,-2.100000000000000087e-04,-2.000000000000000164e-05,-1.000000000000000082e-05,-9.000000000000000567e-05,-2.900000000000000017e-04,-2.999999999999999737e-05,0.000000000000000000e+00,-1.899999999999999834e-04,6.000000000000000000e+00,1.100000000000000000e+01
2.687000000000000000e+04,-2.100000000000000087e-04,-2.000000000000000164e-05,-1.000000000000000082e-05,-9.000000000000000567e-05,-2.900000000000000017e-04,-2.999999999999999737e-05,0.000000000000000000e+00,-1.899999999999999834e-04,6.000000000000000000e+00,1.100000000000000000e+01
2.687100000000000000e+04,-2.100000000000000087e-04,-2.000000000000000164e-05,-1.000000000000000082e-05,-9.000000000000000567e-05,-2.900000000000000017e-04,-2.999999999999999737e-05,0.000000000000000000e+00,-1.899999999999999834e-04,6.000000000000000000e+00,1.100000000000000000e+01
2.687200000000000000e+04,1.100000000000000039e-04,0.000000000000000000e+00,-5.999999999999999474e-05,-6.999999999999999387e-05,-1.699999999999999851e-04,1.000000000000000048e-04,9.000000000000000567e-05,2.799999999999999755e-04,6.000000000000000000e+00,1.100000000000000000e+01
2.687300000000000000e+04,1.100000000000000039e-04,0.000000000000000000e+00,-5.999999999999999474e-05,-6.999999999999999387e-05,-1.699999999999999851e-04,1.000000000000000048e-04,9.000000000000000567e-05,2.799999999999999755e-04,6.000000000000000000e+00,1.100000000000000000e+01
2.687400000000000000e+04,1.100000000000000039e-04,0.000000000000000000e+00,-5.999999999999999474e-05,-6.999999999999999387e-05,-1.699999999999999851e-04,1.000000000000000048e-04,9.000000000000000567e-05,2.799999999999999755e-04,6.000000000000000000e+00,1.100000000000000000e+01
2.687500000000000000e+04,1.100000000000000039e-04,0.000000000000000000e+00,-5.999999999999999474e-05,-6.999999999999999387e-05,-1.699999999999999851e-04,1.000000000000000048e-04,9.000000000000000567e-05,2.799999999999999755e-04,6.000000000000000000e+00,1.100000000000000000e+01
2.687600000000000000e+04,1.100000000000000039e-04,0.000000000000000000e+00,-5.999999999999999474e-05,-6.999999999999999387e-05,-1.699999999999999851e-04,1.000000000000000048e-04,9.000000000000000567e-05,2.799999999999999755e-04,6.000000000000000000e+00,1.100000000000000000e+01
2.687700000000000000e+04,1.100000000000000039e-04,0.000000000000000000e+00,-5.999999999999999474e-05,-6.999999999999999387e-05,-1.699999999999999851e-04,1.000000000000000048e-04,9.000000000000000567e-05,2.799999999999999755e-04,6.000000000000000000e+00,1.100000000000000000e+01
2.687800000000000000e+04,1.100000000000000039e-04,0.000000000000000000e+00,-5.999999999999999474e-05,-6.999999999999999387e-05,-1.699999999999999851e-04,1.000000000000000048e-04,9.000000000000000567e-05,2.799999999999999755e-04,6.000000000000000000e+00,1.100000000000000000e+01
2.687900000000000000e+04,1.100000000000000039e-04,0.000000000000000000e+00,-5.999999999999999474e-05,-6.999999999999999387e-05,-1.699999999999999851e-04,1.000000000000000048e-04,9.000000000000000567e-05,2.799999999999999755e-04,6.000000000000000000e+00,1.100000000000000000e+01
2.688000000000000000e+04,1.100000000000000039e-04,0.000000000000000000e+00,-5.999999999999999474e-05,-6.999999999999999387e-05,-1.699999999999999851e-04,1.000000000000000048e-04,9.000000000000000567e-05,2.799999999999999755e-04,6.000000000000000000e+00,1.100000000000000000e+01
2.688100000000000000e+04,-5.999999999999999474e-05,1.000000000000000082e-05,2.999999999999999737e-05,-1.000000000000000082e-05,-2.999999999999999737e-05,4.000000000000000327e-05,-1.199999999999999895e-04,-2.000000000000000096e-04,6.000000000000000000e+00,1.100000000000000000e+01
2.688200000000000000e+04,-5.999999999999999474e-05,1.000000000000000082e-05,2.999999999999999737e-05,-1.000000000000000082e-05,-2.999999999999999737e-05,4.000000000000000327e-05,-1.199999999999999895e-04,-2.000000000000000096e-04,6.000000000000000000e+00,1.100000000000000000e+01
2.688300000000000000e+04,-5.999999999999999474e-05,1.000000000000000082e-05,2.999999999999999737e-05,-1.000000000000000082e-05,-2.999999999999999737e-05,4.000000000000000327e-05,-1.199999999999999895e-04,-2.000000000000000096e-04,6.000000000000000000e+00,1.100000000000000000e+01
2.688400000000000000e+04,-5.999999999999999474e-05,1.000000000000000082e-05,2.999999999999999737e-05,-1.000000000000000082e-05,-2.999999999999999737e-05,4.000000000000000327e-05,-1.199999999999999895e-04,-2.000000000000000096e-04,6.000000000000000000e+00,1.100000000000000000e+01
2.688500000000000000e+04,-5.999999999999999474e-05,1.000000000000000082e-05,2.999999999999999737e-05,-1.000000000000000082e-05,-2.999999999999999737e-05,4.000000000000000327e-05,-1.199999999999999895e-04,-2.000000000000000096e-04,6.000000000000000000e+00,1.100000000000000000e+01
2.688600000000000000e+04,-5.999999999999999474e-05,1.000000000000000082e-05,2.999999999999999737e-05,-1.000000000000000082e-05,-2.999999999999999737e-05,4.000000000000000327e-05,-1.199999999999999895e-04,-2.000000000000000096e-04,6.000000000000000000e+00,1.100000000000000000e+01
2.688700000000000000e+04,-5.999999999999999474e-05,1.000000000000000082e-05,2.999999999999999737e-05,-1.000000000000000082e-05,-2.999999999999999737e-05,4.000000000000000327e-05,-1.199999999999999895e-04,-2.000000000000000096e-04,6.000000000000000000e+00,1.100000000000000000e+01
2.688800000000000000e+04,-5.999999999999999474e-05,1.000000000000000082e-05,2.999999999999999737e-05,-1.000000000000000082e-05,-2.999999999999999737e-05,4.000000000000000327e-05,-1.199999999999999895e-04,-2.000000000000000096e-04,6.000000000000000000e+00,1.100000000000000000e+01
2.688900000000000000e+04,-5.999999999999999474e-05,1.000000000000000082e-05,2.999999999999999737e-05,-1.000000000000000082e-05,-2.999999999999999737e-05,4.000000000000000327e-05,-1.199999999999999895e-04,-2.000000000000000096e-04,6.000000000000000000e+00,1.100000000000000000e+01
2.689000000000000000e+04,-5.999999999999999474e-05,1.000000000000000082e-05,2.999999999999999737e-05,-1.000000000000000082e-05,-2.999999999999999737e-05,4.000000000000000327e-05,-1.199999999999999895e-04,-2.000000000000000096e-04,6.000000000000000000e+00,1.100000000000000000e+01
2.689100000000000000e+04,-5.999999999999999474e-05,1.000000000000000082e-05,2.999999999999999737e-05,-1.000000000000000082e-05,-2.999999999999999737e-05,4.000000000000000327e-05,-1.199999999999999895e-04,-2.000000000000000096e-04,6.000000000000000000e+00,1.100000000000000000e+01
2.689200000000000000e+04,-5.999999999999999474e-05,1.000000000000000082e-05,2.999999999999999737e-05,-1.000000000000000082e-05,-2.999999999999999737e-05,4.000000000000000327e-05,-1.199999999999999895e-04,-2.000000000000000096e-04,6.000000000000000000e+00,1.100000000000000000e+01
2.689300000000000000e+04,-5.999999999999999474e-05,1.000000000000000082e-05,2.999999999999999737e-05,-1.000000000000000082e-05,-2.999999999999999737e-05,4.000000000000000327e-05,-1.199999999999999895e-04,-2.000000000000000096e-04,6.000000000000000000e+00,1.100000000000000000e+01
2.689400000000000000e+04,-5.999999999999999474e-05,1.000000000000000082e-05,2.999999999999999737e-05,-1.000000000000000082e-05,-2.999999999999999737e-05,4.000000000000000327e-05,-1.199999999999999895e-04,-2.000000000000000096e-04,6.000000000000000000e+00,1.100000000000000000e+01
2.689500000000000000e+04,-5.999999999999999474e-05,1.000000000000000082e-05,2.999999999999999737e-05,-1.000000000000000082e-05,-2.999999999999999737e-05,4.000000000000000327e-05,-1.199999999999999895e-04,-2.000000000000000096e-04,6.000000000000000000e+00,1.100000000000000000e+01
2.689600000000000000e+04,-2.299999999999999799e-04,-1.300000000000000157e-04,-9.000000000000000567e-05,1.000000000000000082e-05,-4.000000000000000327e-05,5.999999999999999474e-05,-5.999999999999999474e-05,2.100000000000000087e-04,6.000000000000000000e+00,1.100000000000000000e+01
2.689700000000000000e+04,-3.099999999999999999e-04,-1.100000000000000039e-04,-2.999999999999999737e-05,-1.300000000000000157e-04,-4.700000000000000401e-04,-1.699999999999999851e-04,-5.999999999999999474e-05,-1.800000000000000113e-04,6.000000000000000000e+00,1.100000000000000000e+01
2.689900000000000000e+04,-3.099999999999999999e-04,-1.100000000000000039e-04,-2.999999999999999737e-05,-1.300000000000000157e-04,-4.700000000000000401e-04,-1.699999999999999851e-04,-5.999999999999999474e-05,-1.800000000000000113e-04,6.000000000000000000e+00,1.100000000000000000e+01
2.690000000000000000e+04,-3.099999999999999999e-04,-1.100000000000000039e-04,-2.999999999999999737e-05,-1.300000000000000157e-04,-4.700000000000000401e-04,-1.699999999999999851e-04,-5.999999999999999474e-05,-1.800000000000000113e-04,6.000000000000000000e+00,1.100000000000000000e+01
2.690200000000000000e+04,-3.099999999999999999e-04,-1.100000000000000039e-04,-2.999999999999999737e-05,-1.300000000000000157e-04,-4.700000000000000401e-04,-1.699999999999999851e-04,-5.999999999999999474e-05,-1.800000000000000113e-04,6.000000000000000000e+00,1.100000000000000000e+01
2.690300000000000000e+04,-3.099999999999999999e-04,-1.100000000000000039e-04,-2.999999999999999737e-05,-1.300000000000000157e-04,-4.700000000000000401e-04,-1.699999999999999851e-04,-5.999999999999999474e-05,-1.800000000000000113e-04,6.000000000000000000e+00,1.100000000000000000e+01
2.690400000000000000e+04,-3.099999999999999999e-04,-1.100000000000000039e-04,-2.999999999999999737e-05,-1.300000000000000157e-04,-4.700000000000000401e-04,-1.699999999999999851e-04,-5.999999999999999474e-05,-1.800000000000000113e-04,6.000000000000000000e+00,1.100000000000000000e+01
2.690500000000000000e+04,-3.099999999999999999e-04,-1.100000000000000039e-04,-2.999999999999999737e-05,-1.300000000000000157e-04,-4.700000000000000401e-04,-1.699999999999999851e-04,-5.999999999999999474e-05,-1.800000000000000113e-04,6.000000000000000000e+00,1.100000000000000000e+01
2.690600000000000000e+04,-3.099999999999999999e-04,-1.100000000000000039e-04,-2.999999999999999737e-05,-1.300000000000000157e-04,-4.700000000000000401e-04,-1.699999999999999851e-04,-5.999999999999999474e-05,-1.800000000000000113e-04,6.000000000000000000e+00,1.100000000000000000e+01
2.690700000000000000e+04,-3.099999999999999999e-04,-1.100000000000000039e-04,-2.999999999999999737e-05,-1.300000000000000157e-04,-4.700000000000000401e-04,-1.699999999999999851e-04,-5.999999999999999474e-05,-1.800000000000000113e-04,6.000000000000000000e+00,1.100000000000000000e+01
2.690800000000000000e+04,-3.099999999999999999e-04,-1.100000000000000039e-04,-2.999999999999999737e-05,-1.300000000000000157e-04,-4.700000000000000401e-04,-1.699999999999999851e-04,-5.999999999999999474e-05,-1.800000000000000113e-04,6.000000000000000000e+00,1.100000000000000000e+01
2.690900000000000000e+04,-3.099999999999999999e-04,-1.100000000000000039e-04,-2.999999999999999737e-05,-1.300000000000000157e-04,-4.700000000000000401e-04,-1.699999999999999851e-04,-5.999999999999999474e-05,-1.800000000000000113e-04,6.000000000000000000e+00,1.100000000000000000e+01
2.691000000000000000e+04,-3.099999999999999999e-04,-1.100000000000000039e-04,-2.999999999999999737e-05,-1.300000000000000157e-04,-4.700000000000000401e-04,-1.699999999999999851e-04,-5.999999999999999474e-05,-1.800000000000000113e-04,6.000000000000000000e+00,1.100000000000000000e+01
2.691100000000000000e+04,-3.099999999999999999e-04,-1.100000000000000039e-04,-2.999999999999999737e-05,-1.300000000000000157e-04,-4.700000000000000401e-04,-1.699999999999999851e-04,-5.999999999999999474e-05,-1.800000000000000113e-04,6.000000000000000000e+00,1.100000000000000000e+01
2.691200000000000000e+04,-3.099999999999999999e-04,-1.100000000000000039e-04,-2.999999999999999737e-05,-1.300000000000000157e-04,-4.700000000000000401e-04,-1.699999999999999851e-04,-5.999999999999999474e-05,-1.800000000000000113e-04,6.000000000000000000e+00,1.100000000000000000e+01
2.691300000000000000e+04,-3.099999999999999999e-04,-1.100000000000000039e-04,-2.999999999999999737e-05,-1.300000000000000157e-04,-4.700000000000000401e-04,-1.699999999999999851e-04,-5.999999999999999474e-05,-1.800000000000000113e-04,6.000000000000000000e+00,1.100000000000000000e+01
2.691500000000000000e+04,-3.099999999999999999e-04,-1.100000000000000039e-04,-2.999999999999999737e-05,-1.300000000000000157e-04,-4.700000000000000401e-04,-1.699999999999999851e-04,-5.999999999999999474e-05,-1.800000000000000113e-04,6.000000000000000000e+00,1.100000000000000000e+01
2.691600000000000000e+04,-3.099999999999999999e-04,-1.100000000000000039e-04,-2.999999999999999737e-05,-1.300000000000000157e-04,-4.700000000000000401e-04,-1.699999999999999851e-04,-5.999999999999999474e-05,-1.800000000000000113e-04,6.000000000000000000e+00,1.100000000000000000e+01
2.691700000000000000e+04,-3.099999999999999999e-04,-1.100000000000000039e-04,-2.999999999999999737e-05,-1.300000000000000157e-04,-4.700000000000000401e-04,-1.699999999999999851e-04,-5.999999999999999474e-05,-1.800000000000000113e-04,6.000000000000000000e+00,1.100000000000000000e+01
2.691800000000000000e+04,3.499999999999999964e-04,4.000000000000000327e-05,5.000000000000000240e-05,-4.000000000000000327e-05,-5.000000000000000240e-05,1.000000000000000082e-05,6.999999999999999387e-05,3.499999999999999964e-04,6.000000000000000000e+00,1.100000000000000000e+01
2.691900000000000000e+04,3.499999999999999964e-04,4.000000000000000327e-05,5.000000000000000240e-05,-4.000000000000000327e-05,-5.000000000000000240e-05,1.000000000000000082e-05,6.999999999999999387e-05,3.499999999999999964e-04,6.000000000000000000e+00,1.100000000000000000e+01
2.692000000000000000e+04,6.799999999999999404e-04,1.499999999999999869e-04,5.000000000000000240e-05,9.000000000000000567e-05,2.600000000000000314e-04,2.299999999999999799e-04,1.199999999999999895e-04,5.299999999999999807e-04,6.000000000000000000e+00,1.100000000000000000e+01
2.692100000000000000e+04,6.799999999999999404e-04,1.499999999999999869e-04,5.000000000000000240e-05,9.000000000000000567e-05,2.600000000000000314e-04,2.299999999999999799e-04,1.199999999999999895e-04,5.299999999999999807e-04,6.000000000000000000e+00,1.100000000000000000e+01
2.692200000000000000e+04,6.799999999999999404e-04,1.499999999999999869e-04,5.000000000000000240e-05,9.000000000000000567e-05,2.600000000000000314e-04,2.299999999999999799e-04,1.199999999999999895e-04,5.299999999999999807e-04,6.000000000000000000e+00,1.100000000000000000e+01
2.692300000000000000e+04,6.799999999999999404e-04,1.499999999999999869e-04,5.000000000000000240e-05,9.000000000000000567e-05,2.600000000000000314e-04,2.299999999999999799e-04,1.199999999999999895e-04,5.299999999999999807e-04,6.000000000000000000e+00,1.100000000000000000e+01
2.692400000000000000e+04,6.799999999999999404e-04,1.499999999999999869e-04,5.000000000000000240e-05,9.000000000000000567e-05,2.600000000000000314e-04,2.299999999999999799e-04,1.199999999999999895e-04,5.299999999999999807e-04,6.000000000000000000e+00,1.100000000000000000e+01
2.692500000000000000e+04,6.799999999999999404e-04,1.499999999999999869e-04,5.000000000000000240e-05,9.000000000000000567e-05,2.600000000000000314e-04,2.299999999999999799e-04,1.199999999999999895e-04,5.299999999999999807e-04,6.000000000000000000e+00,1.100000000000000000e+01
2.692600000000000000e+04,6.799999999999999404e-04,1.499999999999999869e-04,5.000000000000000240e-05,9.000000000000000567e-05,2.600000000000000314e-04,2.299999999999999799e-04,1.199999999999999895e-04,5.299999999999999807e-04,6.000000000000000000e+00,1.100000000000000000e+01
2.692700000000000000e+04,6.799999999999999404e-04,1.499999999999999869e-04,5.000000000000000240e-05,9.000000000000000567e-05,2.600000000000000314e-04,2.299999999999999799e-04,1.199999999999999895e-04,5.299999999999999807e-04,6.000000000000000000e+00,1.100000000000000000e+01
2.692800000000000000e+04,6.799999999999999404e-04,1.499999999999999869e-04,5.000000000000000240e-05,9.000000000000000567e-05,2.600000000000000314e-04,2.299999999999999799e-04,1.199999999999999895e-04,5.299999999999999807e-04,6.000000000000000000e+00,1.100000000000000000e+01
2.692900000000000000e+04,6.799999999999999404e-04,1.499999999999999869e-04,5.000000000000000240e-05,9.000000000000000567e-05,2.600000000000000314e-04,2.299999999999999799e-04,1.199999999999999895e-04,5.299999999999999807e-04,6.000000000000000000e+00,1.100000000000000000e+01
2.693000000000000000e+04,6.799999999999999404e-04,1.499999999999999869e-04,5.000000000000000240e-05,9.000000000000000567e-05,2.600000000000000314e-04,2.299999999999999799e-04,1.199999999999999895e-04,5.299999999999999807e-04,6.000000000000000000e+00,1.100000000000000000e+01
2.693100000000000000e+04,6.799999999999999404e-04,1.499999999999999869e-04,5.000000000000000240e-05,9.000000000000000567e-05,2.600000000000000314e-04,2.299999999999999799e-04,1.199999999999999895e-04,5.299999999999999807e-04,6.000000000000000000e+00,1.100000000000000000e+01
2.693200000000000000e+04,6.799999999999999404e-04,1.499999999999999869e-04,5.000000000000000240e-05,9.000000000000000567e-05,2.600000000000000314e-04,2.299999999999999799e-04,1.199999999999999895e-04,5.299999999999999807e-04,6.000000000000000000e+00,1.100000000000000000e+01
2.693300000000000000e+04,6.799999999999999404e-04,1.499999999999999869e-04,5.000000000000000240e-05,9.000000000000000567e-05,2.600000000000000314e-04,2.299999999999999799e-04,1.199999999999999895e-04,5.299999999999999807e-04,6.000000000000000000e+00,1.100000000000000000e+01
2.693400000000000000e+04,6.799999999999999404e-04,1.499999999999999869e-04,5.000000000000000240e-05,9.000000000000000567e-05,2.600000000000000314e-04,2.299999999999999799e-04,1.199999999999999895e-04,5.299999999999999807e-04,6.000000000000000000e+00,1.100000000000000000e+01
2.693500000000000000e+04,6.799999999999999404e-04,1.499999999999999869e-04,5.000000000000000240e-05,9.000000000000000567e-05,2.600000000000000314e-04,2.299999999999999799e-04,1.199999999999999895e-04,5.299999999999999807e-04,6.000000000000000000e+00,1.100000000000000000e+01
2.693600000000000000e+04,6.799999999999999404e-04,1.499999999999999869e-04,5.000000000000000240e-05,9.000000000000000567e-05,2.600000000000000314e-04,2.299999999999999799e-04,1.199999999999999895e-04,5.299999999999999807e-04,6.000000000000000000e+00,1.100000000000000000e+01
2.693700000000000000e+04,6.799999999999999404e-04,1.499999999999999869e-04,5.000000000000000240e-05,9.000000000000000567e-05,2.600000000000000314e-04,2.299999999999999799e-04,1.199999999999999895e-04,5.299999999999999807e-04,6.000000000000000000e+00,1.100000000000000000e+01
2.693800000000000000e+04,6.799999999999999404e-04,1.499999999999999869e-04,5.000000000000000240e-05,9.000000000000000567e-05,2.600000000000000314e-04,2.299999999999999799e-04,1.199999999999999895e-04,5.299999999999999807e-04,6.000000000000000000e+00,1.100000000000000000e+01
2.693900000000000000e+04,6.799999999999999404e-04,1.499999999999999869e-04,5.000000000000000240e-05,9.000000000000000567e-05,2.600000000000000314e-04,2.299999999999999799e-04,1.199999999999999895e-04,5.299999999999999807e-04,6.000000000000000000e+00,1.100000000000000000e+01
2.694000000000000000e+04,6.799999999999999404e-04,1.499999999999999869e-04,5.000000000000000240e-05,9.000000000000000567e-05,2.600000000000000314e-04,2.299999999999999799e-04,1.199999999999999895e-04,5.299999999999999807e-04,6.000000000000000000e+00,1.100000000000000000e+01
2.694100000000000000e+04,-2.999999999999999737e-05,2.999999999999999737e-05,-2.000000000000000164e-05,-5.000000000000000240e-05,-8.000000000000000654e-05,3.899999999999999929e-04,4.200000000000000174e-04,1.000000000000000082e-05,6.000000000000000000e+00,1.100000000000000000e+01
2.694200000000000000e+04,3.299999999999999982e-04,2.999999999999999737e-05,-1.100000000000000039e-04,2.999999999999999737e-05,5.099999999999999282e-04,1.000000000000000082e-05,-1.399999999999999877e-04,-3.499999999999999964e-04,6.000000000000000000e+00,1.100000000000000000e+01
2.694300000000000000e+04,3.299999999999999982e-04,2.999999999999999737e-05,-1.100000000000000039e-04,2.999999999999999737e-05,5.099999999999999282e-04,1.000000000000000082e-05,-1.399999999999999877e-04,-3.499999999999999964e-04,6.000000000000000000e+00,1.100000000000000000e+01
2.694400000000000000e+04,3.299999999999999982e-04,2.999999999999999737e-05,-1.100000000000000039e-04,2.999999999999999737e-05,5.099999999999999282e-04,1.000000000000000082e-05,-1.399999999999999877e-04,-3.499999999999999964e-04,6.000000000000000000e+00,1.100000000000000000e+01
2.694500000000000000e+04,3.299999999999999982e-04,2.999999999999999737e-05,-1.100000000000000039e-04,2.999999999999999737e-05,5.099999999999999282e-04,1.000000000000000082e-05,-1.399999999999999877e-04,-3.499999999999999964e-04,6.000000000000000000e+00,1.100000000000000000e+01
2.694600000000000000e+04,3.299999999999999982e-04,2.999999999999999737e-05,-1.100000000000000039e-04,2.999999999999999737e-05,5.099999999999999282e-04,1.000000000000000082e-05,-1.399999999999999877e-04,-3.499999999999999964e-04,6.000000000000000000e+00,1.100000000000000000e+01
2.694700000000000000e+04,3.299999999999999982e-04,2.999999999999999737e-05,-1.100000000000000039e-04,2.999999999999999737e-05,5.099999999999999282e-04,1.000000000000000082e-05,-1.399999999999999877e-04,-3.499999999999999964e-04,6.000000000000000000e+00,1.100000000000000000e+01
2.694800000000000000e+04,3.299999999999999982e-04,2.999999999999999737e-05,-1.100000000000000039e-04,2.999999999999999737e-05,5.099999999999999282e-04,1.000000000000000082e-05,-1.399999999999999877e-04,-3.499999999999999964e-04,6.000000000000000000e+00,1.100000000000000000e+01
2.694900000000000000e+04,3.299999999999999982e-04,2.999999999999999737e-05,-1.100000000000000039e-04,2.999999999999999737e-05,5.099999999999999282e-04,1.000000000000000082e-05,-1.399999999999999877e-04,-3.499999999999999964e-04,6.000000000000000000e+00,1.100000000000000000e+01
2.695000000000000000e+04,3.299999999999999982e-04,2.999999999999999737e-05,-1.100000000000000039e-04,2.999999999999999737e-05,5.099999999999999282e-04,1.000000000000000082e-05,-1.399999999999999877e-04,-3.499999999999999964e-04,6.000000000000000000e+00,1.100000000000000000e+01
2.695100000000000000e+04,3.299999999999999982e-04,2.999999999999999737e-05,-1.100000000000000039e-04,2.999999999999999737e-05,5.099999999999999282e-04,1.000000000000000082e-05,-1.399999999999999877e-04,-3.499999999999999964e-04,6.000000000000000000e+00,1.100000000000000000e+01
2.695200000000000000e+04,3.299999999999999982e-04,2.999999999999999737e-05,-1.100000000000000039e-04,2.999999999999999737e-05,5.099999999999999282e-04,1.000000000000000082e-05,-1.399999999999999877e-04,-3.499999999999999964e-04,6.000000000000000000e+00,1.100000000000000000e+01
2.695300000000000000e+04,3.299999999999999982e-04,2.999999999999999737e-05,-1.100000000000000039e-04,2.999999999999999737e-05,5.099999999999999282e-04,1.000000000000000082e-05,-1.399999999999999877e-04,-3.499999999999999964e-04,6.000000000000000000e+00,1.100000000000000000e+01
2.695400000000000000e+04,3.299999999999999982e-04,2.999999999999999737e-05,-1.100000000000000039e-04,2.999999999999999737e-05,5.099999999999999282e-04,1.000000000000000082e-05,-1.399999999999999877e-04,-3.499999999999999964e-04,6.000000000000000000e+00,1.100000000000000000e+01
2.695500000000000000e+04,3.299999999999999982e-04,2.999999999999999737e-05,-1.100000000000000039e-04,2.999999999999999737e-05,5.099999999999999282e-04,1.000000000000000082e-05,-1.399999999999999877e-04,-3.499999999999999964e-04,6.000000000000000000e+00,1.100000000000000000e+01
2.695600000000000000e+04,0.000000000000000000e+00,-4.000000000000000327e-05,5.999999999999999474e-05,-5.999999999999999474e-05,-3.799999999999999667e-04,-2.000000000000000096e-04,-1.899999999999999834e-04,-2.100000000000000087e-04,6.000000000000000000e+00,1.100000000000000000e+01
2.695700000000000000e+04,0.000000000000000000e+00,-4.000000000000000327e-05,5.999999999999999474e-05,-5.999999999999999474e-05,-3.799999999999999667e-04,-2.000000000000000096e-04,-1.899999999999999834e-04,-2.100000000000000087e-04,6.000000000000000000e+00,1.100000000000000000e+01
2.695800000000000000e+04,-2.200000000000000078e-04,-5.000000000000000240e-05,-2.999999999999999737e-05,-5.000000000000000240e-05,8.000000000000000654e-05,2.299999999999999799e-04,2.600000000000000314e-04,2.299999999999999799e-04,6.000000000000000000e+00,1.100000000000000000e+01
2.695900000000000000e+04,-2.200000000000000078e-04,-5.000000000000000240e-05,-2.999999999999999737e-05,-5.000000000000000240e-05,8.000000000000000654e-05,2.299999999999999799e-04,2.600000000000000314e-04,2.299999999999999799e-04,6.000000000000000000e+00,1.100000000000000000e+01
2.696000000000000000e+04,-2.200000000000000078e-04,-5.000000000000000240e-05,-2.999999999999999737e-05,-5.000000000000000240e-05,8.000000000000000654e-05,2.299999999999999799e-04,2.600000000000000314e-04,2.299999999999999799e-04,6.000000000000000000e+00,1.100000000000000000e+01
2.696100000000000000e+04,-2.200000000000000078e-04,-5.000000000000000240e-05,-2.999999999999999737e-05,-5.000000000000000240e-05,8.000000000000000654e-05,2.299999999999999799e-04,2.600000000000000314e-04,2.299999999999999799e-04,6.000000000000000000e+00,1.100000000000000000e+01
2.696300000000000000e+04,-2.200000000000000078e-04,-5.000000000000000240e-05,-2.999999999999999737e-05,-5.000000000000000240e-05,8.000000000000000654e-05,2.299999999999999799e-04,2.600000000000000314e-04,2.299999999999999799e-04,6.000000000000000000e+00,1.100000000000000000e+01
2.696400000000000000e+04,-2.200000000000000078e-04,-5.000000000000000240e-05,-2.999999999999999737e-05,-5.000000000000000240e-05,8.000000000000000654e-05,2.299999999999999799e-04,2.600000000000000314e-04,2.299999999999999799e-04,6.000000000000000000e+00,1.100000000000000000e+01
2.696500000000000000e+04,-2.200000000000000078e-04,-5.000000000000000240e-05,-2.999999999999999737e-05,-5.000000000000000240e-05,8.000000000000000654e-05,2.299999999999999799e-04,2.600000000000000314e-04,2.299999999999999799e-04,6.000000000000000000e+00,1.100000000000000000e+01
2.696600000000000000e+04,-2.200000000000000078e-04,-5.000000000000000240e-05,-2.999999999999999737e-05,-5.000000000000000240e-05,8.000000000000000654e-05,2.299999999999999799e-04,2.600000000000000314e-04,2.299999999999999799e-04,6.000000000000000000e+00,1.100000000000000000e+01
2.696700000000000000e+04,-2.200000000000000078e-04,-5.000000000000000240e-05,-2.999999999999999737e-05,-5.000000000000000240e-05,8.000000000000000654e-05,2.299999999999999799e-04,2.600000000000000314e-04,2.299999999999999799e-04,6.000000000000000000e+00,1.100000000000000000e+01
2.696800000000000000e+04,-2.200000000000000078e-04,-5.000000000000000240e-05,-2.999999999999999737e-05,-5.000000000000000240e-05,8.000000000000000654e-05,2.299999999999999799e-04,2.600000000000000314e-04,2.299999999999999799e-04,6.000000000000000000e+00,1.100000000000000000e+01
2.696900000000000000e+04,-2.200000000000000078e-04,-5.000000000000000240e-05,-2.999999999999999737e-05,-5.000000000000000240e-05,8.000000000000000654e-05,2.299999999999999799e-04,2.600000000000000314e-04,2.299999999999999799e-04,6.000000000000000000e+00,1.100000000000000000e+01
2.697000000000000000e+04,-2.200000000000000078e-04,-5.000000000000000240e-05,-2.999999999999999737e-05,-5.000000000000000240e-05,8.000000000000000654e-05,2.299999999999999799e-04,2.600000000000000314e-04,2.299999999999999799e-04,6.000000000000000000e+00,1.100000000000000000e+01
2.697100000000000000e+04,-2.200000000000000078e-04,-5.000000000000000240e-05,-2.999999999999999737e-05,-5.000000000000000240e-05,8.000000000000000654e-05,2.299999999999999799e-04,2.600000000000000314e-04,2.299999999999999799e-04,6.000000000000000000e+00,1.100000000000000000e+01
2.697200000000000000e+04,-2.200000000000000078e-04,-5.000000000000000240e-05,-2.999999999999999737e-05,-5.000000000000000240e-05,8.000000000000000654e-05,2.299999999999999799e-04,2.600000000000000314e-04,2.299999999999999799e-04,6.000000000000000000e+00,1.100000000000000000e+01
2.697300000000000000e+04,-2.200000000000000078e-04,-5.000000000000000240e-05,-2.999999999999999737e-05,-5.000000000000000240e-05,8.000000000000000654e-05,2.299999999999999799e-04,2.600000000000000314e-04,2.299999999999999799e-04,6.000000000000000000e+00,1.100000000000000000e+01
2.697400000000000000e+04,-2.200000000000000078e-04,-5.000000000000000240e-05,-2.999999999999999737e-05,-5.000000000000000240e-05,8.000000000000000654e-05,2.299999999999999799e-04,2.600000000000000314e-04,2.299999999999999799e-04,6.000000000000000000e+00,1.100000000000000000e+01
2.697500000000000000e+04,-2.200000000000000078e-04,-5.000000000000000240e-05,-2.999999999999999737e-05,-5.000000000000000240e-05,8.000000000000000654e-05,2.299999999999999799e-04,2.600000000000000314e-04,2.299999999999999799e-04,6.000000000000000000e+00,1.100000000000000000e+01
2.697600000000000000e+04,-2.200000000000000078e-04,-5.000000000000000240e-05,-2.999999999999999737e-05,-5.000000000000000240e-05,8.000000000000000654e-05,2.299999999999999799e-04,2.600000000000000314e-04,2.299999999999999799e-04,6.000000000000000000e+00,1.100000000000000000e+01
