6.475900000000000000e+04,-2.999999999999999737e-05,-2.999999999999999737e-05,-1.000000000000000082e-05,1.499999999999999869e-04,3.699999999999999947e-04,9.699999999999999421e-04,1.800000000000000113e-04,0.000000000000000000e+00,6.000000000000000000e+00,2.300000000000000000e+01
6.476000000000000000e+04,-2.999999999999999737e-05,-2.999999999999999737e-05,-1.000000000000000082e-05,1.499999999999999869e-04,3.699999999999999947e-04,9.699999999999999421e-04,1.800000000000000113e-04,0.000000000000000000e+00,6.000000000000000000e+00,2.300000000000000000e+01
6.476100000000000000e+04,-2.999999999999999737e-05,-2.999999999999999737e-05,-1.000000000000000082e-05,1.499999999999999869e-04,3.699999999999999947e-04,9.699999999999999421e-04,1.800000000000000113e-04,0.000000000000000000e+00,6.000000000000000000e+00,2.300000000000000000e+01
6.476200000000000000e+04,-2.999999999999999737e-05,-2.999999999999999737e-05,-1.000000000000000082e-05,1.499999999999999869e-04,3.699999999999999947e-04,9.699999999999999421e-04,1.800000000000000113e-04,0.000000000000000000e+00,6.000000000000000000e+00,2.300000000000000000e+01
6.476300000000000000e+04,-2.999999999999999737e-05,-2.999999999999999737e-05,-1.000000000000000082e-05,1.499999999999999869e-04,3.699999999999999947e-04,9.699999999999999421e-04,1.800000000000000113e-04,0.000000000000000000e+00,6.000000000000000000e+00,2.300000000000000000e+01
6.476400000000000000e+04,-2.999999999999999737e-05,-2.999999999999999737e-05,-1.000000000000000082e-05,1.499999999999999869e-04,3.699999999999999947e-04,9.699999999999999421e-04,1.800000000000000113e-04,0.000000000000000000e+00,6.000000000000000000e+00,2.300000000000000000e+01
6.476500000000000000e+04,-2.999999999999999737e-05,-2.999999999999999737e-05,-1.000000000000000082e-05,1.499999999999999869e-04,3.699999999999999947e-04,9.699999999999999421e-04,1.800000000000000113e-04,0.000000000000000000e+00,6.000000000000000000e+00,2.300000000000000000e+01
6.476600000000000000e+04,-2.999999999999999737e-05,-2.999999999999999737e-05,-1.000000000000000082e-05,1.499999999999999869e-04,3.699999999999999947e-04,9.699999999999999421e-04,1.800000000000000113e-04,0.000000000000000000e+00,6.000000000000000000e+00,2.300000000000000000e+01
6.476700000000000000e+04,-2.999999999999999737e-05,-2.999999999999999737e-05,-1.000000000000000082e-05,1.499999999999999869e-04,3.699999999999999947e-04,9.699999999999999421e-04,1.800000000000000113e-04,0.000000000000000000e+00,6.000000000000000000e+00,2.300000000000000000e+01
6.476800000000000000e+04,-2.999999999999999737e-05,-2.999999999999999737e-05,-1.000000000000000082e-05,1.499999999999999869e-04,3.699999999999999947e-04,9.699999999999999421e-04,1.800000000000000113e-04,0.000000000000000000e+00,6.000000000000000000e+00,2.300000000000000000e+01
6.476900000000000000e+04,-2.999999999999999737e-05,-2.999999999999999737e-05,-1.000000000000000082e-05,1.499999999999999869e-04,3.699999999999999947e-04,9.699999999999999421e-04,1.800000000000000113e-04,0.000000000000000000e+00,6.000000000000000000e+00,2.300000000000000000e+01
6.477000000000000000e+04,-2.999999999999999737e-05,-2.999999999999999737e-05,-1.000000000000000082e-05,1.499999999999999869e-04,3.699999999999999947e-04,9.699999999999999421e-04,1.800000000000000113e-04,0.000000000000000000e+00,6.000000000000000000e+00,2.300000000000000000e+01
6.477100000000000000e+04,4.000000000000000327e-05,-1.000000000000000082e-05,-5.000000000000000240e-05,-2.700000000000000035e-04,-2.600000000000000314e-04,-7.900000000000000121e-04,-5.999999999999999474e-05,1.399999999999999877e-04,6.000000000000000000e+00,2.300000000000000000e+01
6.477200000000000000e+04,-1.399999999999999877e-04,-9.000000000000000567e-05,-5.999999999999999474e-05,0.000000000000000000e+00,-2.000000000000000164e-05,1.300000000000000157e-04,2.999999999999999737e-05,6.999999999999999387e-05,6.000000000000000000e+00,2.300000000000000000e+01
6.477300000000000000e+04,-1.399999999999999877e-04,-9.000000000000000567e-05,-5.999999999999999474e-05,0.000000000000000000e+00,-2.000000000000000164e-05,1.300000000000000157e-04,2.999999999999999737e-05,6.999999999999999387e-05,6.000000000000000000e+00,2.300000000000000000e+01
6.477400000000000000e+04,-1.399999999999999877e-04,-9.000000000000000567e-05,-5.999999999999999474e-05,0.000000000000000000e+00,-2.000000000000000164e-05,1.300000000000000157e-04,2.999999999999999737e-05,6.999999999999999387e-05,6.000000000000000000e+00,2.300000000000000000e+01
6.477500000000000000e+04,-1.399999999999999877e-04,-9.000000000000000567e-05,-5.999999999999999474e-05,0.000000000000000000e+00,-2.000000000000000164e-05,1.300000000000000157e-04,2.999999999999999737e-05,6.999999999999999387e-05,6.000000000000000000e+00,2.300000000000000000e+01
6.477600000000000000e+04,-1.399999999999999877e-04,-9.000000000000000567e-05,-5.999999999999999474e-05,0.000000000000000000e+00,-2.000000000000000164e-05,1.300000000000000157e-04,2.999999999999999737e-05,6.999999999999999387e-05,6.000000000000000000e+00,2.300000000000000000e+01
6.477700000000000000e+04,-1.399999999999999877e-04,-9.000000000000000567e-05,-5.999999999999999474e-05,0.000000000000000000e+00,-2.000000000000000164e-05,1.300000000000000157e-04,2.999999999999999737e-05,6.999999999999999387e-05,6.000000000000000000e+00,2.300000000000000000e+01
6.477800000000000000e+04,-1.399999999999999877e-04,-9.000000000000000567e-05,-5.999999999999999474e-05,0.000000000000000000e+00,-2.000000000000000164e-05,1.300000000000000157e-04,2.999999999999999737e-05,6.999999999999999387e-05,6.000000000000000000e+00,2.300000000000000000e+01
6.477900000000000000e+04,-1.399999999999999877e-04,-9.000000000000000567e-05,-5.999999999999999474e-05,0.000000000000000000e+00,-2.000000000000000164e-05,1.300000000000000157e-04,2.999999999999999737e-05,6.999999999999999387e-05,6.000000000000000000e+00,2.300000000000000000e+01
6.478000000000000000e+04,-1.399999999999999877e-04,-9.000000000000000567e-05,-5.999999999999999474e-05,0.000000000000000000e+00,-2.000000000000000164e-05,1.300000000000000157e-04,2.999999999999999737e-05,6.999999999999999387e-05,6.000000000000000000e+00,2.300000000000000000e+01
6.478100000000000000e+04,-1.399999999999999877e-04,-9.000000000000000567e-05,-5.999999999999999474e-05,0.000000000000000000e+00,-2.000000000000000164e-05,1.300000000000000157e-04,2.999999999999999737e-05,6.999999999999999387e-05,6.000000000000000000e+00,2.300000000000000000e+01
6.478200000000000000e+04,-1.399999999999999877e-04,-9.000000000000000567e-05,-5.999999999999999474e-05,0.000000000000000000e+00,-2.000000000000000164e-05,1.300000000000000157e-04,2.999999999999999737e-05,6.999999999999999387e-05,6.000000000000000000e+00,2.300000000000000000e+01
6.478300000000000000e+04,-1.399999999999999877e-04,-9.000000000000000567e-05,-5.999999999999999474e-05,0.000000000000000000e+00,-2.000000000000000164e-05,1.300000000000000157e-04,2.999999999999999737e-05,6.999999999999999387e-05,6.000000000000000000e+00,2.300000000000000000e+01
6.478400000000000000e+04,-1.399999999999999877e-04,-9.000000000000000567e-05,-5.999999999999999474e-05,0.000000000000000000e+00,-2.000000000000000164e-05,1.300000000000000157e-04,2.999999999999999737e-05,6.999999999999999387e-05,6.000000000000000000e+00,2.300000000000000000e+01
6.478500000000000000e+04,-1.399999999999999877e-04,-9.000000000000000567e-05,-5.999999999999999474e-05,0.000000000000000000e+00,-2.000000000000000164e-05,1.300000000000000157e-04,2.999999999999999737e-05,6.999999999999999387e-05,6.000000000000000000e+00,2.300000000000000000e+01
6.478600000000000000e+04,-1.399999999999999877e-04,-9.000000000000000567e-05,-5.999999999999999474e-05,0.000000000000000000e+00,-2.000000000000000164e-05,1.300000000000000157e-04,2.999999999999999737e-05,6.999999999999999387e-05,6.000000000000000000e+00,2.300000000000000000e+01
6.478800000000000000e+04,-1.399999999999999877e-04,-9.000000000000000567e-05,-5.999999999999999474e-05,0.000000000000000000e+00,-2.000000000000000164e-05,1.300000000000000157e-04,2.999999999999999737e-05,6.999999999999999387e-05,6.000000000000000000e+00,2.300000000000000000e+01
6.478900000000000000e+04,-1.399999999999999877e-04,-9.000000000000000567e-05,-5.999999999999999474e-05,0.000000000000000000e+00,-2.000000000000000164e-05,1.300000000000000157e-04,2.999999999999999737e-05,6.999999999999999387e-05,6.000000000000000000e+00,2.300000000000000000e+01
6.479000000000000000e+04,-1.399999999999999877e-04,-9.000000000000000567e-05,-5.999999999999999474e-05,0.000000000000000000e+00,-2.000000000000000164e-05,1.300000000000000157e-04,2.999999999999999737e-05,6.999999999999999387e-05,6.000000000000000000e+00,2.300000000000000000e+01
6.479100000000000000e+04,-1.399999999999999877e-04,-9.000000000000000567e-05,-5.999999999999999474e-05,0.000000000000000000e+00,-2.000000000000000164e-05,1.300000000000000157e-04,2.999999999999999737e-05,6.999999999999999387e-05,6.000000000000000000e+00,2.300000000000000000e+01
6.479200000000000000e+04,-1.399999999999999877e-04,-9.000000000000000567e-05,-5.999999999999999474e-05,0.000000000000000000e+00,-2.000000000000000164e-05,1.300000000000000157e-04,2.999999999999999737e-05,6.999999999999999387e-05,6.000000000000000000e+00,2.300000000000000000e+01
6.479300000000000000e+04,-1.399999999999999877e-04,-9.000000000000000567e-05,-5.999999999999999474e-05,0.000000000000000000e+00,-2.000000000000000164e-05,1.300000000000000157e-04,2.999999999999999737e-05,6.999999999999999387e-05,6.000000000000000000e+00,2.300000000000000000e+01
6.479400000000000000e+04,8.000000000000000654e-05,1.199999999999999895e-04,1.300000000000000157e-04,2.000000000000000164e-05,-2.399999999999999790e-04,-2.399999999999999790e-04,1.399999999999999877e-04,6.900000000000000751e-04,6.000000000000000000e+00,2.300000000000000000e+01
6.479500000000000000e+04,-5.000000000000000240e-05,-6.999999999999999387e-05,-8.000000000000000654e-05,-2.999999999999999737e-04,-1.280000000000000105e-03,-1.100000000000000039e-04,-1.499999999999999869e-04,1.199999999999999895e-04,6.000000000000000000e+00,2.300000000000000000e+01
6.479600000000000000e+04,-5.000000000000000240e-05,-6.999999999999999387e-05,-8.000000000000000654e-05,-2.999999999999999737e-04,-1.280000000000000105e-03,-1.100000000000000039e-04,-1.499999999999999869e-04,1.199999999999999895e-04,6.000000000000000000e+00,2.300000000000000000e+01
6.479700000000000000e+04,-5.000000000000000240e-05,-6.999999999999999387e-05,-8.000000000000000654e-05,-2.999999999999999737e-04,-1.280000000000000105e-03,-1.100000000000000039e-04,-1.499999999999999869e-04,1.199999999999999895e-04,6.000000000000000000e+00,2.300000000000000000e+01
6.479800000000000000e+04,-5.000000000000000240e-05,-6.999999999999999387e-05,-8.000000000000000654e-05,-2.999999999999999737e-04,-1.280000000000000105e-03,-1.100000000000000039e-04,-1.499999999999999869e-04,1.199999999999999895e-04,6.000000000000000000e+00,2.300000000000000000e+01
6.479900000000000000e+04,-5.000000000000000240e-05,-6.999999999999999387e-05,-8.000000000000000654e-05,-2.999999999999999737e-04,-1.280000000000000105e-03,-1.100000000000000039e-04,-1.499999999999999869e-04,1.199999999999999895e-04,6.000000000000000000e+00,2.300000000000000000e+01
6.480000000000000000e+04,-5.000000000000000240e-05,-6.999999999999999387e-05,-8.000000000000000654e-05,-2.999999999999999737e-04,-1.280000000000000105e-03,-1.100000000000000039e-04,-1.499999999999999869e-04,1.199999999999999895e-04,6.000000000000000000e+00,2.300000000000000000e+01
6.480100000000000000e+04,-5.000000000000000240e-05,-6.999999999999999387e-05,-8.000000000000000654e-05,-2.999999999999999737e-04,-1.280000000000000105e-03,-1.100000000000000039e-04,-1.499999999999999869e-04,1.199999999999999895e-04,6.000000000000000000e+00,2.300000000000000000e+01
6.480200000000000000e+04,-5.000000000000000240e-05,-6.999999999999999387e-05,-8.000000000000000654e-05,-2.999999999999999737e-04,-1.280000000000000105e-03,-1.100000000000000039e-04,-1.499999999999999869e-04,1.199999999999999895e-04,6.000000000000000000e+00,2.300000000000000000e+01
6.480300000000000000e+04,-5.000000000000000240e-05,-6.999999999999999387e-05,-8.000000000000000654e-05,-2.999999999999999737e-04,-1.280000000000000105e-03,-1.100000000000000039e-04,-1.499999999999999869e-04,1.199999999999999895e-04,6.000000000000000000e+00,2.300000000000000000e+01
6.480400000000000000e+04,-5.000000000000000240e-05,-6.999999999999999387e-05,-8.000000000000000654e-05,-2.999999999999999737e-04,-1.280000000000000105e-03,-1.100000000000000039e-04,-1.499999999999999869e-04,1.199999999999999895e-04,6.000000000000000000e+00,2.300000000000000000e+01
6.480500000000000000e+04,-5.000000000000000240e-05,-6.999999999999999387e-05,-8.000000000000000654e-05,-2.999999999999999737e-04,-1.280000000000000105e-03,-1.100000000000000039e-04,-1.499999999999999869e-04,1.199999999999999895e-04,6.000000000000000000e+00,2.300000000000000000e+01
6.480600000000000000e+04,-5.000000000000000240e-05,-6.999999999999999387e-05,-8.000000000000000654e-05,-2.999999999999999737e-04,-1.280000000000000105e-03,-1.100000000000000039e-04,-1.499999999999999869e-04,1.199999999999999895e-04,6.000000000000000000e+00,2.300000000000000000e+01
6.480700000000000000e+04,-5.000000000000000240e-05,-6.999999999999999387e-05,-8.000000000000000654e-05,-2.999999999999999737e-04,-1.280000000000000105e-03,-1.100000000000000039e-04,-1.499999999999999869e-04,1.199999999999999895e-04,6.000000000000000000e+00,2.300000000000000000e+01
6.480800000000000000e+04,-5.000000000000000240e-05,-6.999999999999999387e-05,-8.000000000000000654e-05,-2.999999999999999737e-04,-1.280000000000000105e-03,-1.100000000000000039e-04,-1.499999999999999869e-04,1.199999999999999895e-04,6.000000000000000000e+00,2.300000000000000000e+01
6.480900000000000000e+04,-5.999999999999999474e-05,-5.999999999999999474e-05,-4.000000000000000327e-05,-6.999999999999999387e-05,3.099999999999999999e-04,7.599999999999999334e-04,8.000000000000000654e-05,3.699999999999999947e-04,6.000000000000000000e+00,2.300000000000000000e+01
6.481000000000000000e+04,-5.000000000000000240e-05,-1.100000000000000039e-04,-1.100000000000000039e-04,-1.499999999999999869e-04,1.899999999999999834e-04,1.800000000000000113e-04,-6.999999999999999387e-05,1.899999999999999834e-04,6.000000000000000000e+00,2.300000000000000000e+01
6.481100000000000000e+04,-5.000000000000000240e-05,-1.100000000000000039e-04,-1.100000000000000039e-04,-1.499999999999999869e-04,1.899999999999999834e-04,1.800000000000000113e-04,-6.999999999999999387e-05,1.899999999999999834e-04,6.000000000000000000e+00,2.300000000000000000e+01
6.481200000000000000e+04,-5.000000000000000240e-05,-1.100000000000000039e-04,-1.100000000000000039e-04,-1.499999999999999869e-04,1.899999999999999834e-04,1.800000000000000113e-04,-6.999999999999999387e-05,1.899999999999999834e-04,6.000000000000000000e+00,2.300000000000000000e+01
6.481300000000000000e+04,-5.000000000000000240e-05,-1.100000000000000039e-04,-1.100000000000000039e-04,-1.499999999999999869e-04,1.899999999999999834e-04,1.800000000000000113e-04,-6.999999999999999387e-05,1.899999999999999834e-04,6.000000000000000000e+00,2.300000000000000000e+01
6.481400000000000000e+04,-5.000000000000000240e-05,-1.100000000000000039e-04,-1.100000000000000039e-04,-1.499999999999999869e-04,1.899999999999999834e-04,1.800000000000000113e-04,-6.999999999999999387e-05,1.899999999999999834e-04,6.000000000000000000e+00,2.300000000000000000e+01
6.481500000000000000e+04,-5.000000000000000240e-05,-1.100000000000000039e-04,-1.100000000000000039e-04,-1.499999999999999869e-04,1.899999999999999834e-04,1.800000000000000113e-04,-6.999999999999999387e-05,1.899999999999999834e-04,6.000000000000000000e+00,2.300000000000000000e+01
6.481600000000000000e+04,-5.000000000000000240e-05,-1.100000000000000039e-04,-1.100000000000000039e-04,-1.499999999999999869e-04,1.899999999999999834e-04,1.800000000000000113e-04,-6.999999999999999387e-05,1.899999999999999834e-04,6.000000000000000000e+00,2.300000000000000000e+01
6.481700000000000000e+04,-5.000000000000000240e-05,-1.100000000000000039e-04,-1.100000000000000039e-04,-1.499999999999999869e-04,1.899999999999999834e-04,1.800000000000000113e-04,-6.999999999999999387e-05,1.899999999999999834e-04,6.000000000000000000e+00,2.300000000000000000e+01
6.481800000000000000e+04,-5.000000000000000240e-05,-1.100000000000000039e-04,-1.100000000000000039e-04,-1.499999999999999869e-04,1.899999999999999834e-04,1.800000000000000113e-04,-6.999999999999999387e-05,1.899999999999999834e-04,6.000000000000000000e+00,2.300000000000000000e+01
6.481900000000000000e+04,-5.000000000000000240e-05,-1.100000000000000039e-04,-1.100000000000000039e-04,-1.499999999999999869e-04,1.899999999999999834e-04,1.800000000000000113e-04,-6.999999999999999387e-05,1.899999999999999834e-04,6.000000000000000000e+00,2.300000000000000000e+01
6.482000000000000000e+04,-5.000000000000000240e-05,-1.100000000000000039e-04,-1.100000000000000039e-04,-1.499999999999999869e-04,1.899999999999999834e-04,1.800000000000000113e-04,-6.999999999999999387e-05,1.899999999999999834e-04,6.000000000000000000e+00,2.300000000000000000e+01
6.482100000000000000e+04,-5.000000000000000240e-05,-1.100000000000000039e-04,-1.100000000000000039e-04,-1.499999999999999869e-04,1.899999999999999834e-04,1.800000000000000113e-04,-6.999999999999999387e-05,1.899999999999999834e-04,6.000000000000000000e+00,2.300000000000000000e+01
6.482200000000000000e+04,-5.000000000000000240e-05,-1.100000000000000039e-04,-1.100000000000000039e-04,-1.499999999999999869e-04,1.899999999999999834e-04,1.800000000000000113e-04,-6.999999999999999387e-05,1.899999999999999834e-04,6.000000000000000000e+00,2.300000000000000000e+01
6.482300000000000000e+04,-5.000000000000000240e-05,-1.100000000000000039e-04,-1.100000000000000039e-04,-1.499999999999999869e-04,1.899999999999999834e-04,1.800000000000000113e-04,-6.999999999999999387e-05,1.899999999999999834e-04,6.000000000000000000e+00,2.300000000000000000e+01
6.482400000000000000e+04,-5.000000000000000240e-05,-1.100000000000000039e-04,-1.100000000000000039e-04,-1.499999999999999869e-04,1.899999999999999834e-04,1.800000000000000113e-04,-6.999999999999999387e-05,1.899999999999999834e-04,6.000000000000000000e+00,2.300000000000000000e+01
6.482500000000000000e+04,-5.000000000000000240e-05,-1.100000000000000039e-04,-1.100000000000000039e-04,-1.499999999999999869e-04,1.899999999999999834e-04,1.800000000000000113e-04,-6.999999999999999387e-05,1.899999999999999834e-04,6.000000000000000000e+00,2.300000000000000000e+01
6.482600000000000000e+04,-5.000000000000000240e-05,-1.100000000000000039e-04,-1.100000000000000039e-04,-1.499999999999999869e-04,1.899999999999999834e-04,1.800000000000000113e-04,-6.999999999999999387e-05,1.899999999999999834e-04,6.000000000000000000e+00,2.300000000000000000e+01
6.482700000000000000e+04,-5.000000000000000240e-05,-1.100000000000000039e-04,-1.100000000000000039e-04,-1.499999999999999869e-04,1.899999999999999834e-04,1.800000000000000113e-04,-6.999999999999999387e-05,1.899999999999999834e-04,6.000000000000000000e+00,2.300000000000000000e+01
6.482800000000000000e+04,-5.000000000000000240e-05,-1.100000000000000039e-04,-1.100000000000000039e-04,-1.499999999999999869e-04,1.899999999999999834e-04,1.800000000000000113e-04,-6.999999999999999387e-05,1.899999999999999834e-04,6.000000000000000000e+00,2.300000000000000000e+01
6.482900000000000000e+04,-5.000000000000000240e-05,-1.100000000000000039e-04,-1.100000000000000039e-04,-1.499999999999999869e-04,1.899999999999999834e-04,1.800000000000000113e-04,-6.999999999999999387e-05,1.899999999999999834e-04,6.000000000000000000e+00,2.300000000000000000e+01
6.483000000000000000e+04,-5.000000000000000240e-05,-1.100000000000000039e-04,-1.100000000000000039e-04,-1.499999999999999869e-04,1.899999999999999834e-04,1.800000000000000113e-04,-6.999999999999999387e-05,1.899999999999999834e-04,6.000000000000000000e+00,2.300000000000000000e+01
6.483100000000000000e+04,-4.000000000000000327e-05,2.000000000000000164e-05,1.000000000000000082e-05,-3.600000000000000227e-04,-3.699999999999999947e-04,2.399999999999999790e-04,-6.999999999999999929e-04,1.399999999999999877e-04,6.000000000000000000e+00,2.300000000000000000e+01
6.483200000000000000e+04,-1.000000000000000082e-05,-2.000000000000000164e-05,-6.999999999999999387e-05,-1.199999999999999895e-04,5.599999999999999509e-04,-2.100000000000000087e-04,-1.000000000000000048e-04,-2.500000000000000052e-04,6.000000000000000000e+00,2.300000000000000000e+01
6.483300000000000000e+04,-1.000000000000000082e-05,-2.000000000000000164e-05,-6.999999999999999387e-05,-1.199999999999999895e-04,5.599999999999999509e-04,-2.100000000000000087e-04,-1.000000000000000048e-04,-2.500000000000000052e-04,6.000000000000000000e+00,2.300000000000000000e+01
6.483400000000000000e+04,-1.000000000000000082e-05,-2.000000000000000164e-05,-6.999999999999999387e-05,-1.199999999999999895e-04,5.599999999999999509e-04,-2.100000000000000087e-04,-1.000000000000000048e-04,-2.500000000000000052e-04,6.000000000000000000e+00,2.300000000000000000e+01
6.483500000000000000e+04,-1.000000000000000082e-05,-2.000000000000000164e-05,-6.999999999999999387e-05,-1.199999999999999895e-04,5.599999999999999509e-04,-2.100000000000000087e-04,-1.000000000000000048e-04,-2.500000000000000052e-04,6.000000000000000000e+00,2.300000000000000000e+01
6.483600000000000000e+04,-1.000000000000000082e-05,-2.000000000000000164e-05,-6.999999999999999387e-05,-1.199999999999999895e-04,5.599999999999999509e-04,-2.100000000000000087e-04,-1.000000000000000048e-04,-2.500000000000000052e-04,6.000000000000000000e+00,2.300000000000000000e+01
6.483800000000000000e+04,-1.000000000000000082e-05,-2.000000000000000164e-05,-6.999999999999999387e-05,-1.199999999999999895e-04,5.599999999999999509e-04,-2.100000000000000087e-04,-1.000000000000000048e-04,-2.500000000000000052e-04,6.000000000000000000e+00,2.300000000000000000e+01
6.483900000000000000e+04,-1.000000000000000082e-05,-2.000000000000000164e-05,-6.999999999999999387e-05,-1.199999999999999895e-04,5.599999999999999509e-04,-2.100000000000000087e-04,-1.000000000000000048e-04,-2.500000000000000052e-04,6.000000000000000000e+00,2.300000000000000000e+01
6.484100000000000000e+04,-1.000000000000000082e-05,-2.000000000000000164e-05,-6.999999999999999387e-05,-1.199999999999999895e-04,5.599999999999999509e-04,-2.100000000000000087e-04,-1.000000000000000048e-04,-2.500000000000000052e-04,6.000000000000000000e+00,2.300000000000000000e+01
6.484200000000000000e+04,-1.000000000000000082e-05,-2.000000000000000164e-05,-6.999999999999999387e-05,-1.199999999999999895e-04,5.599999999999999509e-04,-2.100000000000000087e-04,-1.000000000000000048e-04,-2.500000000000000052e-04,6.000000000000000000e+00,2.300000000000000000e+01
6.484300000000000000e+04,-1.000000000000000082e-05,-2.000000000000000164e-05,-6.999999999999999387e-05,-1.199999999999999895e-04,5.599999999999999509e-04,-2.100000000000000087e-04,-1.000000000000000048e-04,-2.500000000000000052e-04,6.000000000000000000e+00,2.300000000000000000e+01
6.484400000000000000e+04,-1.000000000000000082e-05,-2.000000000000000164e-05,-6.999999999999999387e-05,-1.199999999999999895e-04,5.599999999999999509e-04,-2.100000000000000087e-04,-1.000000000000000048e-04,-2.500000000000000052e-04,6.000000000000000000e+00,2.300000000000000000e+01
6.484500000000000000e+04,-1.000000000000000082e-05,-2.000000000000000164e-05,-6.999999999999999387e-05,-1.199999999999999895e-04,5.599999999999999509e-04,-2.100000000000000087e-04,-1.000000000000000048e-04,-2.500000000000000052e-04,6.000000000000000000e+00,2.300000000000000000e+01
6.484600000000000000e+04,-1.000000000000000082e-05,-2.000000000000000164e-05,-6.999999999999999387e-05,-1.199999999999999895e-04,5.599999999999999509e-04,-2.100000000000000087e-04,-1.000000000000000048e-04,-2.500000000000000052e-04,6.000000000000000000e+00,2.300000000000000000e+01
6.484700000000000000e+04,-1.000000000000000082e-05,-2.000000000000000164e-05,-6.999999999999999387e-05,-1.199999999999999895e-04,5.599999999999999509e-04,-2.100000000000000087e-04,-1.000000000000000048e-04,-2.500000000000000052e-04,6.000000000000000000e+00,2.300000000000000000e+01
6.484800000000000000e+04,-1.000000000000000082e-05,-2.000000000000000164e-05,-6.999999999999999387e-05,-1.199999999999999895e-04,5.599999999999999509e-04,-2.100000000000000087e-04,-1.000000000000000048e-04,-2.500000000000000052e-04,6.000000000000000000e+00,2.300000000000000000e+01
6.484900000000000000e+04,-1.000000000000000082e-05,-2.000000000000000164e-05,-6.999999999999999387e-05,-1.199999999999999895e-04,5.599999999999999509e-04,-2.100000000000000087e-04,-1.000000000000000048e-04,-2.500000000000000052e-04,6.000000000000000000e+00,2.300000000000000000e+01
6.485000000000000000e+04,-1.000000000000000082e-05,-2.000000000000000164e-05,-6.999999999999999387e-05,-1.199999999999999895e-04,5.599999999999999509e-04,-2.100000000000000087e-04,-1.000000000000000048e-04,-2.500000000000000052e-04,6.000000000000000000e+00,2.300000000000000000e+01
6.485100000000000000e+04,-1.000000000000000082e-05,-2.000000000000000164e-05,-6.999999999999999387e-05,-1.199999999999999895e-04,5.599999999999999509e-04,-2.100000000000000087e-04,-1.000000000000000048e-04,-2.500000000000000052e-04,6.000000000000000000e+00,2.300000000000000000e+01
6.485200000000000000e+04,-1.000000000000000082e-05,-2.000000000000000164e-05,-6.999999999999999387e-05,-1.199999999999999895e-04,5.599999999999999509e-04,-2.100000000000000087e-04,-1.000000000000000048e-04,-2.500000000000000052e-04,6.000000000000000000e+00,2.300000000000000000e+01
6.485300000000000000e+04,-1.000000000000000082e-05,-2.000000000000000164e-05,-6.999999999999999387e-05,-1.199999999999999895e-04,5.599999999999999509e-04,-2.100000000000000087e-04,-1.000000000000000048e-04,-2.500000000000000052e-04,6.000000000000000000e+00,2.300000000000000000e+01
6.485400000000000000e+04,2.000000000000000164e-05,1.000000000000000082e-05,-1.000000000000000082e-05,-2.700000000000000035e-04,-1.069999999999999988e-03,-9.300000000000000541e-04,0.000000000000000000e+00,9.599999999999999159e-04,6.000000000000000000e+00,2.300000000000000000e+01
6.485500000000000000e+04,-1.399999999999999877e-04,-2.999999999999999737e-05,-1.000000000000000082e-05,1.199999999999999895e-04,7.900000000000000121e-04,-5.800000000000000034e-04,-2.600000000000000314e-04,-3.600000000000000227e-04,6.000000000000000000e+00,2.300000000000000000e+01
6.485600000000000000e+04,-1.399999999999999877e-04,-2.999999999999999737e-05,-1.000000000000000082e-05,1.199999999999999895e-04,7.900000000000000121e-04,-5.800000000000000034e-04,-2.600000000000000314e-04,-3.600000000000000227e-04,6.000000000000000000e+00,2.300000000000000000e+01
6.485700000000000000e+04,-1.399999999999999877e-04,-2.999999999999999737e-05,-1.000000000000000082e-05,1.199999999999999895e-04,7.900000000000000121e-04,-5.800000000000000034e-04,-2.600000000000000314e-04,-3.600000000000000227e-04,6.000000000000000000e+00,2.300000000000000000e+01
6.485800000000000000e+04,-1.399999999999999877e-04,-2.999999999999999737e-05,-1.000000000000000082e-05,1.199999999999999895e-04,7.900000000000000121e-04,-5.800000000000000034e-04,-2.600000000000000314e-04,-3.600000000000000227e-04,6.000000000000000000e+00,2.300000000000000000e+01
6.485900000000000000e+04,-1.399999999999999877e-04,-2.999999999999999737e-05,-1.000000000000000082e-05,1.199999999999999895e-04,7.900000000000000121e-04,-5.800000000000000034e-04,-2.600000000000000314e-04,-3.600000000000000227e-04,6.000000000000000000e+00,2.300000000000000000e+01
6.486000000000000000e+04,-1.399999999999999877e-04,-2.999999999999999737e-05,-1.000000000000000082e-05,1.199999999999999895e-04,7.900000000000000121e-04,-5.800000000000000034e-04,-2.600000000000000314e-04,-3.600000000000000227e-04,6.000000000000000000e+00,2.300000000000000000e+01
6.486100000000000000e+04,-1.399999999999999877e-04,-2.999999999999999737e-05,-1.000000000000000082e-05,1.199999999999999895e-04,7.900000000000000121e-04,-5.800000000000000034e-04,-2.600000000000000314e-04,-3.600000000000000227e-04,6.000000000000000000e+00,2.300000000000000000e+01
6.486200000000000000e+04,-1.399999999999999877e-04,-2.999999999999999737e-05,-1.000000000000000082e-05,1.199999999999999895e-04,7.900000000000000121e-04,-5.800000000000000034e-04,-2.600000000000000314e-04,-3.600000000000000227e-04,6.000000000000000000e+00,2.300000000000000000e+01
6.486300000000000000e+04,-1.399999999999999877e-04,-2.999999999999999737e-05,-1.000000000000000082e-05,1.199999999999999895e-04,7.900000000000000121e-04,-5.800000000000000034e-04,-2.600000000000000314e-04,-3.600000000000000227e-04,6.000000000000000000e+00,2.300000000000000000e+01
6.486400000000000000e+04,-1.399999999999999877e-04,-2.999999999999999737e-05,-1.000000000000000082e-05,1.199999999999999895e-04,7.900000000000000121e-04,-5.800000000000000034e-04,-2.600000000000000314e-04,-3.600000000000000227e-04,6.000000000000000000e+00,2.300000000000000000e+01
6.486500000000000000e+04,-1.399999999999999877e-04,-2.999999999999999737e-05,-1.000000000000000082e-05,1.199999999999999895e-04,7.900000000000000121e-04,-5.800000000000000034e-04,-2.600000000000000314e-04,-3.600000000000000227e-04,6.000000000000000000e+00,2.300000000000000000e+01
6.486600000000000000e+04,-1.399999999999999877e-04,-2.999999999999999737e-05,-1.000000000000000082e-05,1.199999999999999895e-04,7.900000000000000121e-04,-5.800000000000000034e-04,-2.600000000000000314e-04,-3.600000000000000227e-04,6.000000000000000000e+00,2.300000000000000000e+01
6.486700000000000000e+04,-1.399999999999999877e-04,-2.999999999999999737e-05,-1.000000000000000082e-05,1.199999999999999895e-04,7.900000000000000121e-04,-5.800000000000000034e-04,-2.600000000000000314e-04,-3.600000000000000227e-04,6.000000000000000000e+00,2.300000000000000000e+01
6.486800000000000000e+04,-1.399999999999999877e-04,-2.999999999999999737e-05,-1.000000000000000082e-05,1.199999999999999895e-04,7.900000000000000121e-04,-5.800000000000000034e-04,-2.600000000000000314e-04,-3.600000000000000227e-04,6.000000000000000000e+00,2.300000000000000000e+01
6.486900000000000000e+04,2.000000000000000164e-05,1.000000000000000082e-05,4.000000000000000327e-05,2.299999999999999799e-04,-1.000000000000000048e-04,2.500000000000000052e-04,4.000000000000000327e-05,-4.700000000000000401e-04,6.000000000000000000e+00,2.300000000000000000e+01
6.487000000000000000e+04,2.000000000000000164e-05,1.000000000000000082e-05,4.000000000000000327e-05,2.299999999999999799e-04,-1.000000000000000048e-04,2.500000000000000052e-04,4.000000000000000327e-05,-4.700000000000000401e-04,6.000000000000000000e+00,2.300000000000000000e+01
6.487100000000000000e+04,2.000000000000000164e-05,1.000000000000000082e-05,4.000000000000000327e-05,2.299999999999999799e-04,-1.000000000000000048e-04,2.500000000000000052e-04,4.000000000000000327e-05,-4.700000000000000401e-04,6.000000000000000000e+00,2.300000000000000000e+01
6.487200000000000000e+04,2.000000000000000164e-05,1.000000000000000082e-05,4.000000000000000327e-05,2.299999999999999799e-04,-1.000000000000000048e-04,2.500000000000000052e-04,4.000000000000000327e-05,-4.700000000000000401e-04,6.000000000000000000e+00,2.300000000000000000e+01
6.487300000000000000e+04,2.000000000000000164e-05,1.000000000000000082e-05,4.000000000000000327e-05,2.299999999999999799e-04,-1.000000000000000048e-04,2.500000000000000052e-04,4.000000000000000327e-05,-4.700000000000000401e-04,6.000000000000000000e+00,2.300000000000000000e+01
6.487400000000000000e+04,2.000000000000000164e-05,1.000000000000000082e-05,4.000000000000000327e-05,2.299999999999999799e-04,-1.000000000000000048e-04,2.500000000000000052e-04,4.000000000000000327e-05,-4.700000000000000401e-04,6.000000000000000000e+00,2.300000000000000000e+01
6.487500000000000000e+04,2.000000000000000164e-05,1.000000000000000082e-05,4.000000000000000327e-05,2.299999999999999799e-04,-1.000000000000000048e-04,2.500000000000000052e-04,4.000000000000000327e-05,-4.700000000000000401e-04,6.000000000000000000e+00,2.300000000000000000e+01
6.487600000000000000e+04,2.000000000000000164e-05,1.000000000000000082e-05,4.000000000000000327e-05,2.299999999999999799e-04,-1.000000000000000048e-04,2.500000000000000052e-04,4.000000000000000327e-05,-4.700000000000000401e-04,6.000000000000000000e+00,2.300000000000000000e+01
6.487700000000000000e+04,2.000000000000000164e-05,1.000000000000000082e-05,4.000000000000000327e-05,2.299999999999999799e-04,-1.000000000000000048e-04,2.500000000000000052e-04,4.000000000000000327e-05,-4.700000000000000401e-04,6.000000000000000000e+00,2.300000000000000000e+01
6.487800000000000000e+04,2.000000000000000164e-05,1.000000000000000082e-05,4.000000000000000327e-05,2.299999999999999799e-04,-1.000000000000000048e-04,2.500000000000000052e-04,4.000000000000000327e-05,-4.700000000000000401e-04,6.000000000000000000e+00,2.300000000000000000e+01
6.487900000000000000e+04,2.000000000000000164e-05,1.000000000000000082e-05,4.000000000000000327e-05,2.299999999999999799e-04,-1.000000000000000048e-04,2.500000000000000052e-04,4.000000000000000327e-05,-4.700000000000000401e-04,6.000000000000000000e+00,2.300000000000000000e+01
6.488000000000000000e+04,2.000000000000000164e-05,1.000000000000000082e-05,4.000000000000000327e-05,2.299999999999999799e-04,-1.000000000000000048e-04,2.500000000000000052e-04,4.000000000000000327e-05,-4.700000000000000401e-04,6.000000000000000000e+00,2.300000000000000000e+01
6.488100000000000000e+04,2.000000000000000164e-05,1.000000000000000082e-05,4.000000000000000327e-05,2.299999999999999799e-04,-1.000000000000000048e-04,2.500000000000000052e-04,4.000000000000000327e-05,-4.700000000000000401e-04,6.000000000000000000e+00,2.300000000000000000e+01
6.488200000000000000e+04,2.000000000000000164e-05,1.000000000000000082e-05,4.000000000000000327e-05,2.299999999999999799e-04,-1.000000000000000048e-04,2.500000000000000052e-04,4.000000000000000327e-05,-4.700000000000000401e-04,6.000000000000000000e+00,2.300000000000000000e+01
6.488300000000000000e+04,2.000000000000000164e-05,1.000000000000000082e-05,4.000000000000000327e-05,2.299999999999999799e-04,-1.000000000000000048e-04,2.500000000000000052e-04,4.000000000000000327e-05,-4.700000000000000401e-04,6.000000000000000000e+00,2.300000000000000000e+01
6.488400000000000000e+04,2.000000000000000164e-05,1.000000000000000082e-05,4.000000000000000327e-05,2.299999999999999799e-04,-1.000000000000000048e-04,2.500000000000000052e-04,4.000000000000000327e-05,-4.700000000000000401e-04,6.000000000000000000e+00,2.300000000000000000e+01
6.488500000000000000e+04,2.000000000000000164e-05,1.000000000000000082e-05,4.000000000000000327e-05,2.299999999999999799e-04,-1.000000000000000048e-04,2.500000000000000052e-04,4.000000000000000327e-05,-4.700000000000000401e-04,6.000000000000000000e+00,2.300000000000000000e+01
6.488600000000000000e+04,2.000000000000000164e-05,1.000000000000000082e-05,4.000000000000000327e-05,2.299999999999999799e-04,-1.000000000000000048e-04,2.500000000000000052e-04,4.000000000000000327e-05,-4.700000000000000401e-04,6.000000000000000000e+00,2.300000000000000000e+01
6.488900000000000000e+04,2.000000000000000164e-05,1.000000000000000082e-05,4.000000000000000327e-05,2.299999999999999799e-04,-1.000000000000000048e-04,2.500000000000000052e-04,4.000000000000000327e-05,-4.700000000000000401e-04,6.000000000000000000e+00,2.300000000000000000e+01
6.489000000000000000e+04,2.000000000000000164e-05,1.000000000000000082e-05,4.000000000000000327e-05,2.299999999999999799e-04,-1.000000000000000048e-04,2.500000000000000052e-04,4.000000000000000327e-05,-4.700000000000000401e-04,6.000000000000000000e+00,2.300000000000000000e+01
6.489100000000000000e+04,-9.000000000000000567e-05,-1.499999999999999869e-04,-1.199999999999999895e-04,-9.000000000000000567e-05,-3.699999999999999947e-04,8.000000000000000654e-05,1.399999999999999877e-04,-2.600000000000000314e-04,6.000000000000000000e+00,2.300000000000000000e+01
6.489200000000000000e+04,1.000000000000000048e-04,5.999999999999999474e-05,4.000000000000000327e-05,-2.399999999999999790e-04,-9.699999999999999421e-04,-3.399999999999999702e-04,0.000000000000000000e+00,5.999999999999999474e-05,6.000000000000000000e+00,2.300000000000000000e+01
6.489300000000000000e+04,1.000000000000000048e-04,5.999999999999999474e-05,4.000000000000000327e-05,-2.399999999999999790e-04,-9.699999999999999421e-04,-3.399999999999999702e-04,0.000000000000000000e+00,5.999999999999999474e-05,6.000000000000000000e+00,2.300000000000000000e+01
6.489400000000000000e+04,1.000000000000000048e-04,5.999999999999999474e-05,4.000000000000000327e-05,-2.399999999999999790e-04,-9.699999999999999421e-04,-3.399999999999999702e-04,0.000000000000000000e+00,5.999999999999999474e-05,6.000000000000000000e+00,2.300000000000000000e+01
6.489500000000000000e+04,1.000000000000000048e-04,5.999999999999999474e-05,4.000000000000000327e-05,-2.399999999999999790e-04,-9.699999999999999421e-04,-3.399999999999999702e-04,0.000000000000000000e+00,5.999999999999999474e-05,6.000000000000000000e+00,2.300000000000000000e+01
6.489600000000000000e+04,1.000000000000000048e-04,5.999999999999999474e-05,4.000000000000000327e-05,-2.399999999999999790e-04,-9.699999999999999421e-04,-3.399999999999999702e-04,0.000000000000000000e+00,5.999999999999999474e-05,6.000000000000000000e+00,2.300000000000000000e+01
6.489700000000000000e+04,1.000000000000000048e-04,5.999999999999999474e-05,4.000000000000000327e-05,-2.399999999999999790e-04,-9.699999999999999421e-04,-3.399999999999999702e-04,0.000000000000000000e+00,5.999999999999999474e-05,6.000000000000000000e+00,2.300000000000000000e+01
6.489800000000000000e+04,1.000000000000000048e-04,5.999999999999999474e-05,4.000000000000000327e-05,-2.399999999999999790e-04,-9.699999999999999421e-04,-3.399999999999999702e-04,0.000000000000000000e+00,5.999999999999999474e-05,6.000000000000000000e+00,2.300000000000000000e+01
6.489900000000000000e+04,1.000000000000000048e-04,5.999999999999999474e-05,4.000000000000000327e-05,-2.399999999999999790e-04,-9.699999999999999421e-04,-3.399999999999999702e-04,0.000000000000000000e+00,5.999999999999999474e-05,6.000000000000000000e+00,2.300000000000000000e+01
6.490000000000000000e+04,1.000000000000000048e-04,5.999999999999999474e-05,4.000000000000000327e-05,-2.399999999999999790e-04,-9.699999999999999421e-04,-3.399999999999999702e-04,0.000000000000000000e+00,5.999999999999999474e-05,6.000000000000000000e+00,2.300000000000000000e+01
6.490100000000000000e+04,1.000000000000000048e-04,5.999999999999999474e-05,4.000000000000000327e-05,-2.399999999999999790e-04,-9.699999999999999421e-04,-3.399999999999999702e-04,0.000000000000000000e+00,5.999999999999999474e-05,6.000000000000000000e+00,2.300000000000000000e+01
6.490200000000000000e+04,1.000000000000000048e-04,5.999999999999999474e-05,4.000000000000000327e-05,-2.399999999999999790e-04,-9.699999999999999421e-04,-3.399999999999999702e-04,0.000000000000000000e+00,5.999999999999999474e-05,6.000000000000000000e+00,2.300000000000000000e+01
6.490300000000000000e+04,1.000000000000000048e-04,5.999999999999999474e-05,4.000000000000000327e-05,-2.399999999999999790e-04,-9.699999999999999421e-04,-3.399999999999999702e-04,0.000000000000000000e+00,5.999999999999999474e-05,6.000000000000000000e+00,2.300000000000000000e+01
6.490400000000000000e+04,1.000000000000000048e-04,5.999999999999999474e-05,4.000000000000000327e-05,-2.399999999999999790e-04,-9.699999999999999421e-04,-3.399999999999999702e-04,0.000000000000000000e+00,5.999999999999999474e-05,6.000000000000000000e+00,2.300000000000000000e+01
6.490500000000000000e+04,1.000000000000000048e-04,5.999999999999999474e-05,4.000000000000000327e-05,-2.399999999999999790e-04,-9.699999999999999421e-04,-3.399999999999999702e-04,0.000000000000000000e+00,5.999999999999999474e-05,6.000000000000000000e+00,2.300000000000000000e+01
6.490600000000000000e+04,1.000000000000000048e-04,5.999999999999999474e-05,4.000000000000000327e-05,-2.399999999999999790e-04,-9.699999999999999421e-04,-3.399999999999999702e-04,0.000000000000000000e+00,5.999999999999999474e-05,6.000000000000000000e+00,2.300000000000000000e+01
6.490700000000000000e+04,1.000000000000000048e-04,5.999999999999999474e-05,4.000000000000000327e-05,-2.399999999999999790e-04,-9.699999999999999421e-04,-3.399999999999999702e-04,0.000000000000000000e+00,5.999999999999999474e-05,6.000000000000000000e+00,2.300000000000000000e+01
6.490800000000000000e+04,1.000000000000000048e-04,5.999999999999999474e-05,4.000000000000000327e-05,-2.399999999999999790e-04,-9.699999999999999421e-04,-3.399999999999999702e-04,0.000000000000000000e+00,5.999999999999999474e-05,6.000000000000000000e+00,2.300000000000000000e+01
6.490900000000000000e+04,1.000000000000000048e-04,5.999999999999999474e-05,4.000000000000000327e-05,-2.399999999999999790e-04,-9.699999999999999421e-04,-3.399999999999999702e-04,0.000000000000000000e+00,5.999999999999999474e-05,6.000000000000000000e+00,2.300000000000000000e+01
6.491000000000000000e+04,1.000000000000000048e-04,5.999999999999999474e-05,4.000000000000000327e-05,-2.399999999999999790e-04,-9.699999999999999421e-04,-3.399999999999999702e-04,0.000000000000000000e+00,5.999999999999999474e-05,6.000000000000000000e+00,2.300000000000000000e+01
6.491100000000000000e+04,1.000000000000000048e-04,5.999999999999999474e-05,4.000000000000000327e-05,-2.399999999999999790e-04,-9.699999999999999421e-04,-3.399999999999999702e-04,0.000000000000000000e+00,5.999999999999999474e-05,6.000000000000000000e+00,2.300000000000000000e+01
6.491200000000000000e+04,1.000000000000000048e-04,5.999999999999999474e-05,4.000000000000000327e-05,-2.399999999999999790e-04,-9.699999999999999421e-04,-3.399999999999999702e-04,0.000000000000000000e+00,5.999999999999999474e-05,6.000000000000000000e+00,2.300000000000000000e+01
6.491300000000000000e+04,1.000000000000000048e-04,5.999999999999999474e-05,4.000000000000000327e-05,-2.399999999999999790e-04,-9.699999999999999421e-04,-3.399999999999999702e-04,0.000000000000000000e+00,5.999999999999999474e-05,6.000000000000000000e+00,2.300000000000000000e+01
6.491400000000000000e+04,1.000000000000000048e-04,5.999999999999999474e-05,4.000000000000000327e-05,-2.399999999999999790e-04,-9.699999999999999421e-04,-3.399999999999999702e-04,0.000000000000000000e+00,5.999999999999999474e-05,6.000000000000000000e+00,2.300000000000000000e+01
6.491500000000000000e+04,0.000000000000000000e+00,1.000000000000000082e-05,-5.000000000000000240e-05,-3.600000000000000227e-04,-5.599999999999999509e-04,-3.600000000000000227e-04,2.700000000000000035e-04,6.999999999999999387e-05,6.000000000000000000e+00,2.300000000000000000e+01
6.491600000000000000e+04,0.000000000000000000e+00,1.000000000000000082e-05,-5.000000000000000240e-05,-3.600000000000000227e-04,-5.599999999999999509e-04,-3.600000000000000227e-04,2.700000000000000035e-04,6.999999999999999387e-05,6.000000000000000000e+00,2.300000000000000000e+01
6.491700000000000000e+04,0.000000000000000000e+00,1.000000000000000082e-05,-5.000000000000000240e-05,-3.600000000000000227e-04,-5.599999999999999509e-04,-3.600000000000000227e-04,2.700000000000000035e-04,6.999999999999999387e-05,6.000000000000000000e+00,2.300000000000000000e+01
6.491800000000000000e+04,0.000000000000000000e+00,1.000000000000000082e-05,-5.000000000000000240e-05,-3.600000000000000227e-04,-5.599999999999999509e-04,-3.600000000000000227e-04,2.700000000000000035e-04,6.999999999999999387e-05,6.000000000000000000e+00,2.300000000000000000e+01
6.491900000000000000e+04,0.000000000000000000e+00,1.000000000000000082e-05,-5.000000000000000240e-05,-3.600000000000000227e-04,-5.599999999999999509e-04,-3.600000000000000227e-04,2.700000000000000035e-04,6.999999999999999387e-05,6.000000000000000000e+00,2.300000000000000000e+01
6.492000000000000000e+04,0.000000000000000000e+00,1.000000000000000082e-05,-5.000000000000000240e-05,-3.600000000000000227e-04,-5.599999999999999509e-04,-3.600000000000000227e-04,2.700000000000000035e-04,6.999999999999999387e-05,6.000000000000000000e+00,2.300000000000000000e+01
6.492100000000000000e+04,0.000000000000000000e+00,1.000000000000000082e-05,-5.000000000000000240e-05,-3.600000000000000227e-04,-5.599999999999999509e-04,-3.600000000000000227e-04,2.700000000000000035e-04,6.999999999999999387e-05,6.000000000000000000e+00,2.300000000000000000e+01
6.492200000000000000e+04,-6.999999999999999387e-05,-2.999999999999999737e-05,-5.999999999999999474e-05,-2.299999999999999799e-04,-6.599999999999999964e-04,-8.400000000000000348e-04,-2.100000000000000087e-04,1.399999999999999877e-04,6.000000000000000000e+00,2.300000000000000000e+01
6.492300000000000000e+04,-6.999999999999999387e-05,-2.999999999999999737e-05,-5.999999999999999474e-05,-2.299999999999999799e-04,-6.599999999999999964e-04,-8.400000000000000348e-04,-2.100000000000000087e-04,1.399999999999999877e-04,6.000000000000000000e+00,2.300000000000000000e+01
6.492400000000000000e+04,-6.999999999999999387e-05,-2.999999999999999737e-05,-5.999999999999999474e-05,-2.299999999999999799e-04,-6.599999999999999964e-04,-8.400000000000000348e-04,-2.100000000000000087e-04,1.399999999999999877e-04,6.000000000000000000e+00,2.300000000000000000e+01
6.492500000000000000e+04,-6.999999999999999387e-05,-2.999999999999999737e-05,-5.999999999999999474e-05,-2.299999999999999799e-04,-6.599999999999999964e-04,-8.400000000000000348e-04,-2.100000000000000087e-04,1.399999999999999877e-04,6.000000000000000000e+00,2.300000000000000000e+01
6.492600000000000000e+04,-6.999999999999999387e-05,-2.999999999999999737e-05,-5.999999999999999474e-05,-2.299999999999999799e-04,-6.599999999999999964e-04,-8.400000000000000348e-04,-2.100000000000000087e-04,1.399999999999999877e-04,6.000000000000000000e+00,2.300000000000000000e+01
6.492700000000000000e+04,-6.999999999999999387e-05,-2.999999999999999737e-05,-5.999999999999999474e-05,-2.299999999999999799e-04,-6.599999999999999964e-04,-8.400000000000000348e-04,-2.100000000000000087e-04,1.399999999999999877e-04,6.000000000000000000e+00,2.300000000000000000e+01
6.492800000000000000e+04,-6.999999999999999387e-05,-2.999999999999999737e-05,-5.999999999999999474e-05,-2.299999999999999799e-04,-6.599999999999999964e-04,-8.400000000000000348e-04,-2.100000000000000087e-04,1.399999999999999877e-04,6.000000000000000000e+00,2.300000000000000000e+01
6.492900000000000000e+04,-6.999999999999999387e-05,-2.999999999999999737e-05,-5.999999999999999474e-05,-2.299999999999999799e-04,-6.599999999999999964e-04,-8.400000000000000348e-04,-2.100000000000000087e-04,1.399999999999999877e-04,6.000000000000000000e+00,2.300000000000000000e+01
6.493000000000000000e+04,-1.399999999999999877e-04,-9.000000000000000567e-05,-1.699999999999999851e-04,-1.000000000000000048e-04,-4.400000000000000157e-04,2.399999999999999790e-04,-3.699999999999999947e-04,-9.499999999999999981e-04,6.000000000000000000e+00,2.300000000000000000e+01
6.493100000000000000e+04,1.600000000000000131e-04,4.000000000000000327e-05,6.999999999999999387e-05,-1.499999999999999869e-04,-4.200000000000000174e-04,1.699999999999999851e-04,2.000000000000000164e-05,5.999999999999999474e-05,6.000000000000000000e+00,2.300000000000000000e+01
6.493200000000000000e+04,1.600000000000000131e-04,4.000000000000000327e-05,6.999999999999999387e-05,-1.499999999999999869e-04,-4.200000000000000174e-04,1.699999999999999851e-04,2.000000000000000164e-05,5.999999999999999474e-05,6.000000000000000000e+00,2.300000000000000000e+01
6.493300000000000000e+04,1.600000000000000131e-04,4.000000000000000327e-05,6.999999999999999387e-05,-1.499999999999999869e-04,-4.200000000000000174e-04,1.699999999999999851e-04,2.000000000000000164e-05,5.999999999999999474e-05,6.000000000000000000e+00,2.300000000000000000e+01
6.493400000000000000e+04,1.600000000000000131e-04,4.000000000000000327e-05,6.999999999999999387e-05,-1.499999999999999869e-04,-4.200000000000000174e-04,1.699999999999999851e-04,2.000000000000000164e-05,5.999999999999999474e-05,6.000000000000000000e+00,2.300000000000000000e+01
6.493500000000000000e+04,1.600000000000000131e-04,4.000000000000000327e-05,6.999999999999999387e-05,-1.499999999999999869e-04,-4.200000000000000174e-04,1.699999999999999851e-04,2.000000000000000164e-05,5.999999999999999474e-05,6.000000000000000000e+00,2.300000000000000000e+01
6.493600000000000000e+04,1.600000000000000131e-04,4.000000000000000327e-05,6.999999999999999387e-05,-1.499999999999999869e-04,-4.200000000000000174e-04,1.699999999999999851e-04,2.000000000000000164e-05,5.999999999999999474e-05,6.000000000000000000e+00,2.300000000000000000e+01
6.493800000000000000e+04,1.600000000000000131e-04,4.000000000000000327e-05,6.999999999999999387e-05,-1.499999999999999869e-04,-4.200000000000000174e-04,1.699999999999999851e-04,2.000000000000000164e-05,5.999999999999999474e-05,6.000000000000000000e+00,2.300000000000000000e+01
6.493900000000000000e+04,1.600000000000000131e-04,4.000000000000000327e-05,6.999999999999999387e-05,-1.499999999999999869e-04,-4.200000000000000174e-04,1.699999999999999851e-04,2.000000000000000164e-05,5.999999999999999474e-05,6.000000000000000000e+00,2.300000000000000000e+01
6.494000000000000000e+04,1.600000000000000131e-04,4.000000000000000327e-05,6.999999999999999387e-05,-1.499999999999999869e-04,-4.200000000000000174e-04,1.699999999999999851e-04,2.000000000000000164e-05,5.999999999999999474e-05,6.000000000000000000e+00,2.300000000000000000e+01
6.494100000000000000e+04,1.600000000000000131e-04,4.000000000000000327e-05,6.999999999999999387e-05,-1.499999999999999869e-04,-4.200000000000000174e-04,1.699999999999999851e-04,2.000000000000000164e-05,5.999999999999999474e-05,6.000000000000000000e+00,2.300000000000000000e+01
6.494200000000000000e+04,1.600000000000000131e-04,4.000000000000000327e-05,6.999999999999999387e-05,-1.499999999999999869e-04,-4.200000000000000174e-04,1.699999999999999851e-04,2.000000000000000164e-05,5.999999999999999474e-05,6.000000000000000000e+00,2.300000000000000000e+01
6.494300000000000000e+04,1.600000000000000131e-04,4.000000000000000327e-05,6.999999999999999387e-05,-1.499999999999999869e-04,-4.200000000000000174e-04,1.699999999999999851e-04,2.000000000000000164e-05,5.999999999999999474e-05,6.000000000000000000e+00,2.300000000000000000e+01
6.494400000000000000e+04,1.600000000000000131e-04,4.000000000000000327e-05,6.999999999999999387e-05,-1.499999999999999869e-04,-4.200000000000000174e-04,1.699999999999999851e-04,2.000000000000000164e-05,5.999999999999999474e-05,6.000000000000000000e+00,2.300000000000000000e+01
6.494500000000000000e+04,1.600000000000000131e-04,4.000000000000000327e-05,6.999999999999999387e-05,-1.499999999999999869e-04,-4.200000000000000174e-04,1.699999999999999851e-04,2.000000000000000164e-05,5.999999999999999474e-05,6.000000000000000000e+00,2.300000000000000000e+01
6.494600000000000000e+04,1.600000000000000131e-04,4.000000000000000327e-05,6.999999999999999387e-05,-1.499999999999999869e-04,-4.200000000000000174e-04,1.699999999999999851e-04,2.000000000000000164e-05,5.999999999999999474e-05,6.000000000000000000e+00,2.300000000000000000e+01
6.494700000000000000e+04,1.600000000000000131e-04,4.000000000000000327e-05,6.999999999999999387e-05,-1.499999999999999869e-04,-4.200000000000000174e-04,1.699999999999999851e-04,2.000000000000000164e-05,5.999999999999999474e-05,6.000000000000000000e+00,2.300000000000000000e+01
6.494800000000000000e+04,1.600000000000000131e-04,4.000000000000000327e-05,6.999999999999999387e-05,-1.499999999999999869e-04,-4.200000000000000174e-04,1.699999999999999851e-04,2.000000000000000164e-05,5.999999999999999474e-05,6.000000000000000000e+00,2.300000000000000000e+01
6.494900000000000000e+04,1.600000000000000131e-04,4.000000000000000327e-05,6.999999999999999387e-05,-1.499999999999999869e-04,-4.200000000000000174e-04,1.699999999999999851e-04,2.000000000000000164e-05,5.999999999999999474e-05,6.000000000000000000e+00,2.300000000000000000e+01
6.495000000000000000e+04,1.600000000000000131e-04,4.000000000000000327e-05,6.999999999999999387e-05,-1.499999999999999869e-04,-4.200000000000000174e-04,1.699999999999999851e-04,2.000000000000000164e-05,5.999999999999999474e-05,6.000000000000000000e+00,2.300000000000000000e+01
6.495100000000000000e+04,1.000000000000000082e-05,-2.999999999999999737e-05,2.999999999999999737e-05,-1.100000000000000039e-04,1.000000000000000048e-04,-4.000000000000000327e-05,-2.100000000000000087e-04,1.399999999999999877e-04,6.000000000000000000e+00,2.300000000000000000e+01
6.495200000000000000e+04,-6.999999999999999387e-05,-2.999999999999999737e-05,-4.000000000000000327e-05,-1.199999999999999895e-04,-4.899999999999999842e-04,-5.800000000000000034e-04,-5.000000000000000240e-05,-3.099999999999999999e-04,6.000000000000000000e+00,2.300000000000000000e+01
6.495300000000000000e+04,-6.999999999999999387e-05,-2.999999999999999737e-05,-4.000000000000000327e-05,-1.199999999999999895e-04,-4.899999999999999842e-04,-5.800000000000000034e-04,-5.000000000000000240e-05,-3.099999999999999999e-04,6.000000000000000000e+00,2.300000000000000000e+01
6.495400000000000000e+04,-6.999999999999999387e-05,-2.999999999999999737e-05,-4.000000000000000327e-05,-1.199999999999999895e-04,-4.899999999999999842e-04,-5.800000000000000034e-04,-5.000000000000000240e-05,-3.099999999999999999e-04,6.000000000000000000e+00,2.300000000000000000e+01
6.495500000000000000e+04,-6.999999999999999387e-05,-2.999999999999999737e-05,-4.000000000000000327e-05,-1.199999999999999895e-04,-4.899999999999999842e-04,-5.800000000000000034e-04,-5.000000000000000240e-05,-3.099999999999999999e-04,6.000000000000000000e+00,2.300000000000000000e+01
6.495600000000000000e+04,-6.999999999999999387e-05,-2.999999999999999737e-05,-4.000000000000000327e-05,-1.199999999999999895e-04,-4.899999999999999842e-04,-5.800000000000000034e-04,-5.000000000000000240e-05,-3.099999999999999999e-04,6.000000000000000000e+00,2.300000000000000000e+01
6.495700000000000000e+04,-6.999999999999999387e-05,-2.999999999999999737e-05,-4.000000000000000327e-05,-1.199999999999999895e-04,-4.899999999999999842e-04,-5.800000000000000034e-04,-5.000000000000000240e-05,-3.099999999999999999e-04,6.000000000000000000e+00,2.300000000000000000e+01
6.495800000000000000e+04,-6.999999999999999387e-05,-2.999999999999999737e-05,-4.000000000000000327e-05,-1.199999999999999895e-04,-4.899999999999999842e-04,-5.800000000000000034e-04,-5.000000000000000240e-05,-3.099999999999999999e-04,6.000000000000000000e+00,2.300000000000000000e+01
6.495900000000000000e+04,-6.999999999999999387e-05,-2.999999999999999737e-05,-4.000000000000000327e-05,-1.199999999999999895e-04,-4.899999999999999842e-04,-5.800000000000000034e-04,-5.000000000000000240e-05,-3.099999999999999999e-04,6.000000000000000000e+00,2.300000000000000000e+01
6.496000000000000000e+04,-6.999999999999999387e-05,-2.999999999999999737e-05,-4.000000000000000327e-05,-1.199999999999999895e-04,-4.899999999999999842e-04,-5.800000000000000034e-04,-5.000000000000000240e-05,-3.099999999999999999e-04,6.000000000000000000e+00,2.300000000000000000e+01
6.496100000000000000e+04,-6.999999999999999387e-05,-2.999999999999999737e-05,-4.000000000000000327e-05,-1.199999999999999895e-04,-4.899999999999999842e-04,-5.800000000000000034e-04,-5.000000000000000240e-05,-3.099999999999999999e-04,6.000000000000000000e+00,2.300000000000000000e+01
6.496200000000000000e+04,-6.999999999999999387e-05,-2.999999999999999737e-05,-4.000000000000000327e-05,-1.199999999999999895e-04,-4.899999999999999842e-04,-5.800000000000000034e-04,-5.000000000000000240e-05,-3.099999999999999999e-04,6.000000000000000000e+00,2.300000000000000000e+01
6.496300000000000000e+04,-6.999999999999999387e-05,-2.999999999999999737e-05,-4.000000000000000327e-05,-1.199999999999999895e-04,-4.899999999999999842e-04,-5.800000000000000034e-04,-5.000000000000000240e-05,-3.099999999999999999e-04,6.000000000000000000e+00,2.300000000000000000e+01
6.496400000000000000e+04,-6.999999999999999387e-05,-2.999999999999999737e-05,-4.000000000000000327e-05,-1.199999999999999895e-04,-4.899999999999999842e-04,-5.800000000000000034e-04,-5.000000000000000240e-05,-3.099999999999999999e-04,6.000000000000000000e+00,2.300000000000000000e+01
6.496500000000000000e+04,-6.999999999999999387e-05,-2.999999999999999737e-05,-4.000000000000000327e-05,-1.199999999999999895e-04,-4.899999999999999842e-04,-5.800000000000000034e-04,-5.000000000000000240e-05,-3.099999999999999999e-04,6.000000000000000000e+00,2.300000000000000000e+01
6.496600000000000000e+04,-6.999999999999999387e-05,-2.999999999999999737e-05,-4.000000000000000327e-05,-1.199999999999999895e-04,-4.899999999999999842e-04,-5.800000000000000034e-04,-5.000000000000000240e-05,-3.099999999999999999e-04,6.000000000000000000e+00,2.300000000000000000e+01
6.496700000000000000e+04,-6.999999999999999387e-05,-2.999999999999999737e-05,-4.000000000000000327e-05,-1.199999999999999895e-04,-4.899999999999999842e-04,-5.800000000000000034e-04,-5.000000000000000240e-05,-3.099999999999999999e-04,6.000000000000000000e+00,2.300000000000000000e+01
6.496800000000000000e+04,-6.999999999999999387e-05,-2.999999999999999737e-05,-4.000000000000000327e-05,-1.199999999999999895e-04,-4.899999999999999842e-04,-5.800000000000000034e-04,-5.000000000000000240e-05,-3.099999999999999999e-04,6.000000000000000000e+00,2.300000000000000000e+01
6.496900000000000000e+04,-6.999999999999999387e-05,-2.999999999999999737e-05,-4.000000000000000327e-05,-1.199999999999999895e-04,-4.899999999999999842e-04,-5.800000000000000034e-04,-5.000000000000000240e-05,-3.099999999999999999e-04,6.000000000000000000e+00,2.300000000000000000e+01
6.497000000000000000e+04,-6.999999999999999387e-05,-2.999999999999999737e-05,-4.000000000000000327e-05,-1.199999999999999895e-04,-4.899999999999999842e-04,-5.800000000000000034e-04,-5.000000000000000240e-05,-3.099999999999999999e-04,6.000000000000000000e+00,2.300000000000000000e+01
6.497100000000000000e+04,-6.999999999999999387e-05,-2.999999999999999737e-05,-4.000000000000000327e-05,-1.199999999999999895e-04,-4.899999999999999842e-04,-5.800000000000000034e-04,-5.000000000000000240e-05,-3.099999999999999999e-04,6.000000000000000000e+00,2.300000000000000000e+01
6.497200000000000000e+04,-6.999999999999999387e-05,-2.999999999999999737e-05,-4.000000000000000327e-05,-1.199999999999999895e-04,-4.899999999999999842e-04,-5.800000000000000034e-04,-5.000000000000000240e-05,-3.099999999999999999e-04,6.000000000000000000e+00,2.300000000000000000e+01
6.497300000000000000e+04,-6.999999999999999387e-05,-2.999999999999999737e-05,-4.000000000000000327e-05,-1.199999999999999895e-04,-4.899999999999999842e-04,-5.800000000000000034e-04,-5.000000000000000240e-05,-3.099999999999999999e-04,6.000000000000000000e+00,2.300000000000000000e+01
6.497400000000000000e+04,-6.999999999999999387e-05,-2.999999999999999737e-05,-4.000000000000000327e-05,-1.199999999999999895e-04,-4.899999999999999842e-04,-5.800000000000000034e-04,-5.000000000000000240e-05,-3.099999999999999999e-04,6.000000000000000000e+00,2.300000000000000000e+01
6.497500000000000000e+04,1.499999999999999869e-04,1.000000000000000082e-05,2.999999999999999737e-05,5.500000000000000331e-04,7.099999999999999107e-04,-5.699999999999999772e-04,0.000000000000000000e+00,1.800000000000000113e-04,6.000000000000000000e+00,2.300000000000000000e+01
6.497600000000000000e+04,2.999999999999999737e-05,-5.999999999999999474e-05,-8.000000000000000654e-05,-1.100000000000000039e-04,3.200000000000000262e-04,3.899999999999999929e-04,2.000000000000000164e-05,-2.000000000000000164e-05,6.000000000000000000e+00,2.300000000000000000e+01
6.497700000000000000e+04,2.999999999999999737e-05,-5.999999999999999474e-05,-8.000000000000000654e-05,-1.100000000000000039e-04,3.200000000000000262e-04,3.899999999999999929e-04,2.000000000000000164e-05,-2.000000000000000164e-05,6.000000000000000000e+00,2.300000000000000000e+01
6.497800000000000000e+04,2.999999999999999737e-05,-5.999999999999999474e-05,-8.000000000000000654e-05,-1.100000000000000039e-04,3.200000000000000262e-04,3.899999999999999929e-04,2.000000000000000164e-05,-2.000000000000000164e-05,6.000000000000000000e+00,2.300000000000000000e+01
6.497900000000000000e+04,2.999999999999999737e-05,-5.999999999999999474e-05,-8.000000000000000654e-05,-1.100000000000000039e-04,3.200000000000000262e-04,3.899999999999999929e-04,2.000000000000000164e-05,-2.000000000000000164e-05,6.000000000000000000e+00,2.300000000000000000e+01
6.498000000000000000e+04,2.999999999999999737e-05,-5.999999999999999474e-05,-8.000000000000000654e-05,-1.100000000000000039e-04,3.200000000000000262e-04,3.899999999999999929e-04,2.000000000000000164e-05,-2.000000000000000164e-05,6.000000000000000000e+00,2.300000000000000000e+01
6.498100000000000000e+04,2.999999999999999737e-05,-5.999999999999999474e-05,-8.000000000000000654e-05,-1.100000000000000039e-04,3.200000000000000262e-04,3.899999999999999929e-04,2.000000000000000164e-05,-2.000000000000000164e-05,6.000000000000000000e+00,2.300000000000000000e+01
6.498200000000000000e+04,2.999999999999999737e-05,-5.999999999999999474e-05,-8.000000000000000654e-05,-1.100000000000000039e-04,3.200000000000000262e-04,3.899999999999999929e-04,2.000000000000000164e-05,-2.000000000000000164e-05,6.000000000000000000e+00,2.300000000000000000e+01
6.498300000000000000e+04,2.999999999999999737e-05,-5.999999999999999474e-05,-8.000000000000000654e-05,-1.100000000000000039e-04,3.200000000000000262e-04,3.899999999999999929e-04,2.000000000000000164e-05,-2.000000000000000164e-05,6.000000000000000000e+00,2.300000000000000000e+01
6.498400000000000000e+04,2.999999999999999737e-05,-5.999999999999999474e-05,-8.000000000000000654e-05,-1.100000000000000039e-04,3.200000000000000262e-04,3.899999999999999929e-04,2.000000000000000164e-05,-2.000000000000000164e-05,6.000000000000000000e+00,2.300000000000000000e+01
6.498500000000000000e+04,2.999999999999999737e-05,-5.999999999999999474e-05,-8.000000000000000654e-05,-1.100000000000000039e-04,3.200000000000000262e-04,3.899999999999999929e-04,2.000000000000000164e-05,-2.000000000000000164e-05,6.000000000000000000e+00,2.300000000000000000e+01
6.498600000000000000e+04,2.999999999999999737e-05,-5.999999999999999474e-05,-8.000000000000000654e-05,-1.100000000000000039e-04,3.200000000000000262e-04,3.899999999999999929e-04,2.000000000000000164e-05,-2.000000000000000164e-05,6.000000000000000000e+00,2.300000000000000000e+01
6.498800000000000000e+04,2.999999999999999737e-05,-5.999999999999999474e-05,-8.000000000000000654e-05,-1.100000000000000039e-04,3.200000000000000262e-04,3.899999999999999929e-04,2.000000000000000164e-05,-2.000000000000000164e-05,6.000000000000000000e+00,2.300000000000000000e+01
6.498900000000000000e+04,-5.000000000000000240e-05,2.000000000000000164e-05,0.000000000000000000e+00,1.800000000000000113e-04,3.399999999999999702e-04,3.799999999999999667e-04,8.000000000000000654e-05,-1.800000000000000113e-04,6.000000000000000000e+00,2.300000000000000000e+01
6.499000000000000000e+04,-5.000000000000000240e-05,2.000000000000000164e-05,0.000000000000000000e+00,1.800000000000000113e-04,3.399999999999999702e-04,3.799999999999999667e-04,8.000000000000000654e-05,-1.800000000000000113e-04,6.000000000000000000e+00,2.300000000000000000e+01
6.499100000000000000e+04,-5.000000000000000240e-05,2.000000000000000164e-05,0.000000000000000000e+00,1.800000000000000113e-04,3.399999999999999702e-04,3.799999999999999667e-04,8.000000000000000654e-05,-1.800000000000000113e-04,6.000000000000000000e+00,2.300000000000000000e+01
6.499200000000000000e+04,-5.000000000000000240e-05,2.000000000000000164e-05,0.000000000000000000e+00,1.800000000000000113e-04,3.399999999999999702e-04,3.799999999999999667e-04,8.000000000000000654e-05,-1.800000000000000113e-04,6.000000000000000000e+00,2.300000000000000000e+01
6.499300000000000000e+04,-5.000000000000000240e-05,2.000000000000000164e-05,0.000000000000000000e+00,1.800000000000000113e-04,3.399999999999999702e-04,3.799999999999999667e-04,8.000000000000000654e-05,-1.800000000000000113e-04,6.000000000000000000e+00,2.300000000000000000e+01
6.499400000000000000e+04,-5.000000000000000240e-05,2.000000000000000164e-05,0.000000000000000000e+00,1.800000000000000113e-04,3.399999999999999702e-04,3.799999999999999667e-04,8.000000000000000654e-05,-1.800000000000000113e-04,6.000000000000000000e+00,2.300000000000000000e+01
6.499500000000000000e+04,-5.000000000000000240e-05,2.000000000000000164e-05,0.000000000000000000e+00,1.800000000000000113e-04,3.399999999999999702e-04,3.799999999999999667e-04,8.000000000000000654e-05,-1.800000000000000113e-04,6.000000000000000000e+00,2.300000000000000000e+01
6.499600000000000000e+04,-5.000000000000000240e-05,2.000000000000000164e-05,0.000000000000000000e+00,1.800000000000000113e-04,3.399999999999999702e-04,3.799999999999999667e-04,8.000000000000000654e-05,-1.800000000000000113e-04,6.000000000000000000e+00,2.300000000000000000e+01
6.499700000000000000e+04,-5.000000000000000240e-05,2.000000000000000164e-05,0.000000000000000000e+00,1.800000000000000113e-04,3.399999999999999702e-04,3.799999999999999667e-04,8.000000000000000654e-05,-1.800000000000000113e-04,6.000000000000000000e+00,2.300000000000000000e+01
6.499800000000000000e+04,-5.000000000000000240e-05,2.000000000000000164e-05,0.000000000000000000e+00,1.800000000000000113e-04,3.399999999999999702e-04,3.799999999999999667e-04,8.000000000000000654e-05,-1.800000000000000113e-04,6.000000000000000000e+00,2.300000000000000000e+01
6.499900000000000000e+04,-5.000000000000000240e-05,2.000000000000000164e-05,0.000000000000000000e+00,1.800000000000000113e-04,3.399999999999999702e-04,3.799999999999999667e-04,8.000000000000000654e-05,-1.800000000000000113e-04,6.000000000000000000e+00,2.300000000000000000e+01
6.500000000000000000e+04,-5.000000000000000240e-05,2.000000000000000164e-05,0.000000000000000000e+00,1.800000000000000113e-04,3.399999999999999702e-04,3.799999999999999667e-04,8.000000000000000654e-05,-1.800000000000000113e-04,6.000000000000000000e+00,2.300000000000000000e+01
6.500100000000000000e+04,-5.000000000000000240e-05,2.000000000000000164e-05,0.000000000000000000e+00,1.800000000000000113e-04,3.399999999999999702e-04,3.799999999999999667e-04,8.000000000000000654e-05,-1.800000000000000113e-04,6.000000000000000000e+00,2.300000000000000000e+01
6.500200000000000000e+04,-5.000000000000000240e-05,2.000000000000000164e-05,0.000000000000000000e+00,1.800000000000000113e-04,3.399999999999999702e-04,3.799999999999999667e-04,8.000000000000000654e-05,-1.800000000000000113e-04,6.000000000000000000e+00,2.300000000000000000e+01
6.500300000000000000e+04,-5.000000000000000240e-05,2.000000000000000164e-05,0.000000000000000000e+00,1.800000000000000113e-04,3.399999999999999702e-04,3.799999999999999667e-04,8.000000000000000654e-05,-1.800000000000000113e-04,6.000000000000000000e+00,2.300000000000000000e+01
6.500400000000000000e+04,-5.000000000000000240e-05,2.000000000000000164e-05,0.000000000000000000e+00,1.800000000000000113e-04,3.399999999999999702e-04,3.799999999999999667e-04,8.000000000000000654e-05,-1.800000000000000113e-04,6.000000000000000000e+00,2.300000000000000000e+01
6.500500000000000000e+04,-5.000000000000000240e-05,2.000000000000000164e-05,0.000000000000000000e+00,1.800000000000000113e-04,3.399999999999999702e-04,3.799999999999999667e-04,8.000000000000000654e-05,-1.800000000000000113e-04,6.000000000000000000e+00,2.300000000000000000e+01
6.500600000000000000e+04,-5.000000000000000240e-05,2.000000000000000164e-05,0.000000000000000000e+00,1.800000000000000113e-04,3.399999999999999702e-04,3.799999999999999667e-04,8.000000000000000654e-05,-1.800000000000000113e-04,6.000000000000000000e+00,2.300000000000000000e+01
6.500700000000000000e+04,-5.000000000000000240e-05,2.000000000000000164e-05,0.000000000000000000e+00,1.800000000000000113e-04,3.399999999999999702e-04,3.799999999999999667e-04,8.000000000000000654e-05,-1.800000000000000113e-04,6.000000000000000000e+00,2.300000000000000000e+01
6.500800000000000000e+04,-5.000000000000000240e-05,2.000000000000000164e-05,0.000000000000000000e+00,1.800000000000000113e-04,3.399999999999999702e-04,3.799999999999999667e-04,8.000000000000000654e-05,-1.800000000000000113e-04,6.000000000000000000e+00,2.300000000000000000e+01
6.500900000000000000e+04,-5.000000000000000240e-05,2.000000000000000164e-05,0.000000000000000000e+00,1.800000000000000113e-04,3.399999999999999702e-04,3.799999999999999667e-04,8.000000000000000654e-05,-1.800000000000000113e-04,6.000000000000000000e+00,2.300000000000000000e+01
6.501000000000000000e+04,-5.000000000000000240e-05,2.000000000000000164e-05,0.000000000000000000e+00,1.800000000000000113e-04,3.399999999999999702e-04,3.799999999999999667e-04,8.000000000000000654e-05,-1.800000000000000113e-04,6.000000000000000000e+00,2.300000000000000000e+01
6.501100000000000000e+04,-2.999999999999999737e-05,-2.000000000000000164e-05,-2.000000000000000164e-05,-9.000000000000000567e-05,-2.000000000000000096e-04,-2.999999999999999737e-04,1.199999999999999895e-04,-2.999999999999999737e-04,6.000000000000000000e+00,2.300000000000000000e+01
6.501200000000000000e+04,-8.000000000000000654e-05,-5.999999999999999474e-05,-2.000000000000000164e-05,-5.999999999999999474e-05,2.399999999999999790e-04,-2.299999999999999799e-04,-4.000000000000000327e-05,-8.000000000000000654e-05,6.000000000000000000e+00,2.300000000000000000e+01
6.501300000000000000e+04,-8.000000000000000654e-05,-5.999999999999999474e-05,-2.000000000000000164e-05,-5.999999999999999474e-05,2.399999999999999790e-04,-2.299999999999999799e-04,-4.000000000000000327e-05,-8.000000000000000654e-05,6.000000000000000000e+00,2.300000000000000000e+01
6.501400000000000000e+04,-8.000000000000000654e-05,-5.999999999999999474e-05,-2.000000000000000164e-05,-5.999999999999999474e-05,2.399999999999999790e-04,-2.299999999999999799e-04,-4.000000000000000327e-05,-8.000000000000000654e-05,6.000000000000000000e+00,2.300000000000000000e+01
6.501500000000000000e+04,-8.000000000000000654e-05,-5.999999999999999474e-05,-2.000000000000000164e-05,-5.999999999999999474e-05,2.399999999999999790e-04,-2.299999999999999799e-04,-4.000000000000000327e-05,-8.000000000000000654e-05,6.000000000000000000e+00,2.300000000000000000e+01
6.501600000000000000e+04,-8.000000000000000654e-05,-5.999999999999999474e-05,-2.000000000000000164e-05,-5.999999999999999474e-05,2.399999999999999790e-04,-2.299999999999999799e-04,-4.000000000000000327e-05,-8.000000000000000654e-05,6.000000000000000000e+00,2.300000000000000000e+01
6.501700000000000000e+04,-8.000000000000000654e-05,-5.999999999999999474e-05,-2.000000000000000164e-05,-5.999999999999999474e-05,2.399999999999999790e-04,-2.299999999999999799e-04,-4.000000000000000327e-05,-8.000000000000000654e-05,6.000000000000000000e+00,2.300000000000000000e+01
6.501800000000000000e+04,-8.000000000000000654e-05,-5.999999999999999474e-05,-2.000000000000000164e-05,-5.999999999999999474e-05,2.399999999999999790e-04,-2.299999999999999799e-04,-4.000000000000000327e-05,-8.000000000000000654e-05,6.000000000000000000e+00,2.300000000000000000e+01
6.501900000000000000e+04,-8.000000000000000654e-05,-5.999999999999999474e-05,-2.000000000000000164e-05,-5.999999999999999474e-05,2.399999999999999790e-04,-2.299999999999999799e-04,-4.000000000000000327e-05,-8.000000000000000654e-05,6.000000000000000000e+00,2.300000000000000000e+01
6.502000000000000000e+04,-8.000000000000000654e-05,-5.999999999999999474e-05,-2.000000000000000164e-05,-5.999999999999999474e-05,2.399999999999999790e-04,-2.299999999999999799e-04,-4.000000000000000327e-05,-8.000000000000000654e-05,6.000000000000000000e+00,2.300000000000000000e+01
6.502100000000000000e+04,-8.000000000000000654e-05,-5.999999999999999474e-05,-2.000000000000000164e-05,-5.999999999999999474e-05,2.399999999999999790e-04,-2.299999999999999799e-04,-4.000000000000000327e-05,-8.000000000000000654e-05,6.000000000000000000e+00,2.300000000000000000e+01
6.502200000000000000e+04,-8.000000000000000654e-05,-5.999999999999999474e-05,-2.000000000000000164e-05,-5.999999999999999474e-05,2.399999999999999790e-04,-2.299999999999999799e-04,-4.000000000000000327e-05,-8.000000000000000654e-05,6.000000000000000000e+00,2.300000000000000000e+01
6.502300000000000000e+04,-8.000000000000000654e-05,-5.999999999999999474e-05,-2.000000000000000164e-05,-5.999999999999999474e-05,2.399999999999999790e-04,-2.299999999999999799e-04,-4.000000000000000327e-05,-8.000000000000000654e-05,6.000000000000000000e+00,2.300000000000000000e+01
6.502400000000000000e+04,-8.000000000000000654e-05,-5.999999999999999474e-05,-2.000000000000000164e-05,-5.999999999999999474e-05,2.399999999999999790e-04,-2.299999999999999799e-04,-4.000000000000000327e-05,-8.000000000000000654e-05,6.000000000000000000e+00,2.300000000000000000e+01
6.502500000000000000e+04,-8.000000000000000654e-05,-5.999999999999999474e-05,-2.000000000000000164e-05,-5.999999999999999474e-05,2.399999999999999790e-04,-2.299999999999999799e-04,-4.000000000000000327e-05,-8.000000000000000654e-05,6.000000000000000000e+00,2.300000000000000000e+01
6.502600000000000000e+04,-8.000000000000000654e-05,-5.999999999999999474e-05,-2.000000000000000164e-05,-5.999999999999999474e-05,2.399999999999999790e-04,-2.299999999999999799e-04,-4.000000000000000327e-05,-8.000000000000000654e-05,6.000000000000000000e+00,2.300000000000000000e+01
6.502700000000000000e+04,-8.000000000000000654e-05,-5.999999999999999474e-05,-2.000000000000000164e-05,-5.999999999999999474e-05,2.399999999999999790e-04,-2.299999999999999799e-04,-4.000000000000000327e-05,-8.000000000000000654e-05,6.000000000000000000e+00,2.300000000000000000e+01
6.502800000000000000e+04,-8.000000000000000654e-05,-5.999999999999999474e-05,-2.000000000000000164e-05,-5.999999999999999474e-05,2.399999999999999790e-04,-2.299999999999999799e-04,-4.000000000000000327e-05,-8.000000000000000654e-05,6.000000000000000000e+00,2.300000000000000000e+01
6.503000000000000000e+04,-8.000000000000000654e-05,-5.999999999999999474e-05,-2.000000000000000164e-05,-5.999999999999999474e-05,2.399999999999999790e-04,-2.299999999999999799e-04,-4.000000000000000327e-05,-8.000000000000000654e-05,6.000000000000000000e+00,2.300000000000000000e+01
6.503100000000000000e+04,-8.000000000000000654e-05,-5.999999999999999474e-05,-2.000000000000000164e-05,-5.999999999999999474e-05,2.399999999999999790e-04,-2.299999999999999799e-04,-4.000000000000000327e-05,-8.000000000000000654e-05,6.000000000000000000e+00,2.300000000000000000e+01
6.503300000000000000e+04,-8.000000000000000654e-05,-5.999999999999999474e-05,-2.000000000000000164e-05,-5.999999999999999474e-05,2.399999999999999790e-04,-2.299999999999999799e-04,-4.000000000000000327e-05,-8.000000000000000654e-05,6.000000000000000000e+00,2.300000000000000000e+01
6.503400000000000000e+04,0.000000000000000000e+00,-5.000000000000000240e-05,-6.999999999999999387e-05,1.000000000000000082e-05,4.000000000000000327e-05,1.899999999999999834e-04,1.699999999999999851e-04,-1.100000000000000039e-04,6.000000000000000000e+00,2.300000000000000000e+01
6.503500000000000000e+04,2.000000000000000164e-05,1.000000000000000048e-04,8.000000000000000654e-05,6.999999999999999387e-05,6.999999999999999387e-05,8.199999999999999824e-04,2.200000000000000078e-04,-2.700000000000000035e-04,6.000000000000000000e+00,2.300000000000000000e+01
6.503600000000000000e+04,2.000000000000000164e-05,1.000000000000000048e-04,8.000000000000000654e-05,6.999999999999999387e-05,6.999999999999999387e-05,8.199999999999999824e-04,2.200000000000000078e-04,-2.700000000000000035e-04,6.000000000000000000e+00,2.300000000000000000e+01
6.503800000000000000e+04,2.000000000000000164e-05,1.000000000000000048e-04,8.000000000000000654e-05,6.999999999999999387e-05,6.999999999999999387e-05,8.199999999999999824e-04,2.200000000000000078e-04,-2.700000000000000035e-04,6.000000000000000000e+00,2.300000000000000000e+01
6.503900000000000000e+04,2.000000000000000164e-05,1.000000000000000048e-04,8.000000000000000654e-05,6.999999999999999387e-05,6.999999999999999387e-05,8.199999999999999824e-04,2.200000000000000078e-04,-2.700000000000000035e-04,6.000000000000000000e+00,2.300000000000000000e+01
6.504000000000000000e+04,2.000000000000000164e-05,1.000000000000000048e-04,8.000000000000000654e-05,6.999999999999999387e-05,6.999999999999999387e-05,8.199999999999999824e-04,2.200000000000000078e-04,-2.700000000000000035e-04,6.000000000000000000e+00,2.300000000000000000e+01
6.504100000000000000e+04,2.000000000000000164e-05,1.000000000000000048e-04,8.000000000000000654e-05,6.999999999999999387e-05,6.999999999999999387e-05,8.199999999999999824e-04,2.200000000000000078e-04,-2.700000000000000035e-04,6.000000000000000000e+00,2.300000000000000000e+01
6.504200000000000000e+04,2.000000000000000164e-05,1.000000000000000048e-04,8.000000000000000654e-05,6.999999999999999387e-05,6.999999999999999387e-05,8.199999999999999824e-04,2.200000000000000078e-04,-2.700000000000000035e-04,6.000000000000000000e+00,2.300000000000000000e+01
6.504300000000000000e+04,2.000000000000000164e-05,1.000000000000000048e-04,8.000000000000000654e-05,6.999999999999999387e-05,6.999999999999999387e-05,8.199999999999999824e-04,2.200000000000000078e-04,-2.700000000000000035e-04,6.000000000000000000e+00,2.300000000000000000e+01
6.504400000000000000e+04,2.000000000000000164e-05,1.000000000000000048e-04,8.000000000000000654e-05,6.999999999999999387e-05,6.999999999999999387e-05,8.199999999999999824e-04,2.200000000000000078e-04,-2.700000000000000035e-04,6.000000000000000000e+00,2.300000000000000000e+01
6.504500000000000000e+04,2.000000000000000164e-05,1.000000000000000048e-04,8.000000000000000654e-05,6.999999999999999387e-05,6.999999999999999387e-05,8.199999999999999824e-04,2.200000000000000078e-04,-2.700000000000000035e-04,6.000000000000000000e+00,2.300000000000000000e+01
6.504600000000000000e+04,2.000000000000000164e-05,1.000000000000000048e-04,8.000000000000000654e-05,6.999999999999999387e-05,6.999999999999999387e-05,8.199999999999999824e-04,2.200000000000000078e-04,-2.700000000000000035e-04,6.000000000000000000e+00,2.300000000000000000e+01
6.504700000000000000e+04,2.000000000000000164e-05,1.000000000000000048e-04,8.000000000000000654e-05,6.999999999999999387e-05,6.999999999999999387e-05,8.199999999999999824e-04,2.200000000000000078e-04,-2.700000000000000035e-04,6.000000000000000000e+00,2.300000000000000000e+01
6.504800000000000000e+04,2.000000000000000164e-05,1.000000000000000048e-04,8.000000000000000654e-05,6.999999999999999387e-05,6.999999999999999387e-05,8.199999999999999824e-04,2.200000000000000078e-04,-2.700000000000000035e-04,6.000000000000000000e+00,2.300000000000000000e+01
6.504900000000000000e+04,5.000000000000000240e-05,2.000000000000000164e-05,2.999999999999999737e-05,2.100000000000000087e-04,8.999999999999999754e-04,3.699999999999999947e-04,1.300000000000000157e-04,-2.299999999999999799e-04,6.000000000000000000e+00,2.300000000000000000e+01
6.505000000000000000e+04,5.000000000000000240e-05,2.000000000000000164e-05,2.999999999999999737e-05,2.100000000000000087e-04,8.999999999999999754e-04,3.699999999999999947e-04,1.300000000000000157e-04,-2.299999999999999799e-04,6.000000000000000000e+00,2.300000000000000000e+01
6.505100000000000000e+04,5.000000000000000240e-05,2.000000000000000164e-05,2.999999999999999737e-05,2.100000000000000087e-04,8.999999999999999754e-04,3.699999999999999947e-04,1.300000000000000157e-04,-2.299999999999999799e-04,6.000000000000000000e+00,2.300000000000000000e+01
6.505200000000000000e+04,5.000000000000000240e-05,2.000000000000000164e-05,2.999999999999999737e-05,2.100000000000000087e-04,8.999999999999999754e-04,3.699999999999999947e-04,1.300000000000000157e-04,-2.299999999999999799e-04,6.000000000000000000e+00,2.300000000000000000e+01
6.505300000000000000e+04,5.000000000000000240e-05,2.000000000000000164e-05,2.999999999999999737e-05,2.100000000000000087e-04,8.999999999999999754e-04,3.699999999999999947e-04,1.300000000000000157e-04,-2.299999999999999799e-04,6.000000000000000000e+00,2.300000000000000000e+01
6.505400000000000000e+04,5.000000000000000240e-05,2.000000000000000164e-05,2.999999999999999737e-05,2.100000000000000087e-04,8.999999999999999754e-04,3.699999999999999947e-04,1.300000000000000157e-04,-2.299999999999999799e-04,6.000000000000000000e+00,2.300000000000000000e+01
6.505500000000000000e+04,5.000000000000000240e-05,2.000000000000000164e-05,2.999999999999999737e-05,2.100000000000000087e-04,8.999999999999999754e-04,3.699999999999999947e-04,1.300000000000000157e-04,-2.299999999999999799e-04,6.000000000000000000e+00,2.300000000000000000e+01
6.505600000000000000e+04,5.000000000000000240e-05,2.000000000000000164e-05,2.999999999999999737e-05,2.100000000000000087e-04,8.999999999999999754e-04,3.699999999999999947e-04,1.300000000000000157e-04,-2.299999999999999799e-04,6.000000000000000000e+00,2.300000000000000000e+01
6.505700000000000000e+04,5.000000000000000240e-05,2.000000000000000164e-05,2.999999999999999737e-05,2.100000000000000087e-04,8.999999999999999754e-04,3.699999999999999947e-04,1.300000000000000157e-04,-2.299999999999999799e-04,6.000000000000000000e+00,2.300000000000000000e+01
6.505800000000000000e+04,5.000000000000000240e-05,2.000000000000000164e-05,2.999999999999999737e-05,2.100000000000000087e-04,8.999999999999999754e-04,3.699999999999999947e-04,1.300000000000000157e-04,-2.299999999999999799e-04,6.000000000000000000e+00,2.300000000000000000e+01
6.505900000000000000e+04,5.000000000000000240e-05,2.000000000000000164e-05,2.999999999999999737e-05,2.100000000000000087e-04,8.999999999999999754e-04,3.699999999999999947e-04,1.300000000000000157e-04,-2.299999999999999799e-04,6.000000000000000000e+00,2.300000000000000000e+01
6.506000000000000000e+04,5.000000000000000240e-05,2.000000000000000164e-05,2.999999999999999737e-05,2.100000000000000087e-04,8.999999999999999754e-04,3.699999999999999947e-04,1.300000000000000157e-04,-2.299999999999999799e-04,6.000000000000000000e+00,2.300000000000000000e+01
6.506100000000000000e+04,5.000000000000000240e-05,2.000000000000000164e-05,2.999999999999999737e-05,2.100000000000000087e-04,8.999999999999999754e-04,3.699999999999999947e-04,1.300000000000000157e-04,-2.299999999999999799e-04,6.000000000000000000e+00,2.300000000000000000e+01
6.506200000000000000e+04,5.000000000000000240e-05,2.000000000000000164e-05,2.999999999999999737e-05,2.100000000000000087e-04,8.999999999999999754e-04,3.699999999999999947e-04,1.300000000000000157e-04,-2.299999999999999799e-04,6.000000000000000000e+00,2.300000000000000000e+01
6.506300000000000000e+04,5.000000000000000240e-05,2.000000000000000164e-05,2.999999999999999737e-05,2.100000000000000087e-04,8.999999999999999754e-04,3.699999999999999947e-04,1.300000000000000157e-04,-2.299999999999999799e-04,6.000000000000000000e+00,2.300000000000000000e+01
6.506400000000000000e+04,5.000000000000000240e-05,2.000000000000000164e-05,2.999999999999999737e-05,2.100000000000000087e-04,8.999999999999999754e-04,3.699999999999999947e-04,1.300000000000000157e-04,-2.299999999999999799e-04,6.000000000000000000e+00,2.300000000000000000e+01
6.506500000000000000e+04,5.000000000000000240e-05,2.000000000000000164e-05,2.999999999999999737e-05,2.100000000000000087e-04,8.999999999999999754e-04,3.699999999999999947e-04,1.300000000000000157e-04,-2.299999999999999799e-04,6.000000000000000000e+00,2.300000000000000000e+01
6.506600000000000000e+04,5.000000000000000240e-05,2.000000000000000164e-05,2.999999999999999737e-05,2.100000000000000087e-04,8.999999999999999754e-04,3.699999999999999947e-04,1.300000000000000157e-04,-2.299999999999999799e-04,6.000000000000000000e+00,2.300000000000000000e+01
6.506700000000000000e+04,5.000000000000000240e-05,2.000000000000000164e-05,2.999999999999999737e-05,2.100000000000000087e-04,8.999999999999999754e-04,3.699999999999999947e-04,1.300000000000000157e-04,-2.299999999999999799e-04,6.000000000000000000e+00,2.300000000000000000e+01
6.506800000000000000e+04,5.000000000000000240e-05,2.000000000000000164e-05,2.999999999999999737e-05,2.100000000000000087e-04,8.999999999999999754e-04,3.699999999999999947e-04,1.300000000000000157e-04,-2.299999999999999799e-04,6.000000000000000000e+00,2.300000000000000000e+01
6.506900000000000000e+04,5.000000000000000240e-05,2.000000000000000164e-05,2.999999999999999737e-05,2.100000000000000087e-04,8.999999999999999754e-04,3.699999999999999947e-04,1.300000000000000157e-04,-2.299999999999999799e-04,6.000000000000000000e+00,2.300000000000000000e+01
6.507000000000000000e+04,5.000000000000000240e-05,2.000000000000000164e-05,2.999999999999999737e-05,2.100000000000000087e-04,8.999999999999999754e-04,3.699999999999999947e-04,1.300000000000000157e-04,-2.299999999999999799e-04,6.000000000000000000e+00,2.300000000000000000e+01
6.507100000000000000e+04,-5.000000000000000240e-05,-2.000000000000000164e-05,-5.999999999999999474e-05,-5.800000000000000034e-04,-1.030000000000000100e-03,8.300000000000001170e-04,3.299999999999999982e-04,-4.000000000000000327e-05,6.000000000000000000e+00,2.300000000000000000e+01
6.507200000000000000e+04,-4.000000000000000327e-05,-1.000000000000000048e-04,-9.000000000000000567e-05,-2.000000000000000096e-04,-3.099999999999999999e-04,-2.900000000000000017e-04,-5.999999999999999474e-05,5.099999999999999282e-04,6.000000000000000000e+00,2.300000000000000000e+01
6.507300000000000000e+04,-4.000000000000000327e-05,-1.000000000000000048e-04,-9.000000000000000567e-05,-2.000000000000000096e-04,-3.099999999999999999e-04,-2.900000000000000017e-04,-5.999999999999999474e-05,5.099999999999999282e-04,6.000000000000000000e+00,2.300000000000000000e+01
6.507400000000000000e+04,-4.000000000000000327e-05,-1.000000000000000048e-04,-9.000000000000000567e-05,-2.000000000000000096e-04,-3.099999999999999999e-04,-2.900000000000000017e-04,-5.999999999999999474e-05,5.099999999999999282e-04,6.000000000000000000e+00,2.300000000000000000e+01
6.507500000000000000e+04,-4.000000000000000327e-05,-1.000000000000000048e-04,-9.000000000000000567e-05,-2.000000000000000096e-04,-3.099999999999999999e-04,-2.900000000000000017e-04,-5.999999999999999474e-05,5.099999999999999282e-04,6.000000000000000000e+00,2.300000000000000000e+01
6.507600000000000000e+04,-4.000000000000000327e-05,-1.000000000000000048e-04,-9.000000000000000567e-05,-2.000000000000000096e-04,-3.099999999999999999e-04,-2.900000000000000017e-04,-5.999999999999999474e-05,5.099999999999999282e-04,6.000000000000000000e+00,2.300000000000000000e+01
6.507700000000000000e+04,-4.000000000000000327e-05,-1.000000000000000048e-04,-9.000000000000000567e-05,-2.000000000000000096e-04,-3.099999999999999999e-04,-2.900000000000000017e-04,-5.999999999999999474e-05,5.099999999999999282e-04,6.000000000000000000e+00,2.300000000000000000e+01
6.507800000000000000e+04,-4.000000000000000327e-05,-1.000000000000000048e-04,-9.000000000000000567e-05,-2.000000000000000096e-04,-3.099999999999999999e-04,-2.900000000000000017e-04,-5.999999999999999474e-05,5.099999999999999282e-04,6.000000000000000000e+00,2.300000000000000000e+01
6.507900000000000000e+04,-4.000000000000000327e-05,-1.000000000000000048e-04,-9.000000000000000567e-05,-2.000000000000000096e-04,-3.099999999999999999e-04,-2.900000000000000017e-04,-5.999999999999999474e-05,5.099999999999999282e-04,6.000000000000000000e+00,2.300000000000000000e+01
6.508000000000000000e+04,-4.000000000000000327e-05,-1.000000000000000048e-04,-9.000000000000000567e-05,-2.000000000000000096e-04,-3.099999999999999999e-04,-2.900000000000000017e-04,-5.999999999999999474e-05,5.099999999999999282e-04,6.000000000000000000e+00,2.300000000000000000e+01
6.508100000000000000e+04,-4.000000000000000327e-05,-1.000000000000000048e-04,-9.000000000000000567e-05,-2.000000000000000096e-04,-3.099999999999999999e-04,-2.900000000000000017e-04,-5.999999999999999474e-05,5.099999999999999282e-04,6.000000000000000000e+00,2.300000000000000000e+01
6.508200000000000000e+04,-4.000000000000000327e-05,-1.000000000000000048e-04,-9.000000000000000567e-05,-2.000000000000000096e-04,-3.099999999999999999e-04,-2.900000000000000017e-04,-5.999999999999999474e-05,5.099999999999999282e-04,6.000000000000000000e+00,2.300000000000000000e+01
6.508300000000000000e+04,-4.000000000000000327e-05,-1.000000000000000048e-04,-9.000000000000000567e-05,-2.000000000000000096e-04,-3.099999999999999999e-04,-2.900000000000000017e-04,-5.999999999999999474e-05,5.099999999999999282e-04,6.000000000000000000e+00,2.300000000000000000e+01
6.508400000000000000e+04,-4.000000000000000327e-05,-1.000000000000000048e-04,-9.000000000000000567e-05,-2.000000000000000096e-04,-3.099999999999999999e-04,-2.900000000000000017e-04,-5.999999999999999474e-05,5.099999999999999282e-04,6.000000000000000000e+00,2.300000000000000000e+01
6.508500000000000000e+04,-4.000000000000000327e-05,-1.000000000000000048e-04,-9.000000000000000567e-05,-2.000000000000000096e-04,-3.099999999999999999e-04,-2.900000000000000017e-04,-5.999999999999999474e-05,5.099999999999999282e-04,6.000000000000000000e+00,2.300000000000000000e+01
6.508600000000000000e+04,-4.000000000000000327e-05,-1.000000000000000048e-04,-9.000000000000000567e-05,-2.000000000000000096e-04,-3.099999999999999999e-04,-2.900000000000000017e-04,-5.999999999999999474e-05,5.099999999999999282e-04,6.000000000000000000e+00,2.300000000000000000e+01
6.508800000000000000e+04,-4.000000000000000327e-05,-1.000000000000000048e-04,-9.000000000000000567e-05,-2.000000000000000096e-04,-3.099999999999999999e-04,-2.900000000000000017e-04,-5.999999999999999474e-05,5.099999999999999282e-04,6.000000000000000000e+00,2.300000000000000000e+01
6.508900000000000000e+04,-4.000000000000000327e-05,-1.000000000000000048e-04,-9.000000000000000567e-05,-2.000000000000000096e-04,-3.099999999999999999e-04,-2.900000000000000017e-04,-5.999999999999999474e-05,5.099999999999999282e-04,6.000000000000000000e+00,2.300000000000000000e+01
6.509000000000000000e+04,-4.000000000000000327e-05,-1.000000000000000048e-04,-9.000000000000000567e-05,-2.000000000000000096e-04,-3.099999999999999999e-04,-2.900000000000000017e-04,-5.999999999999999474e-05,5.099999999999999282e-04,6.000000000000000000e+00,2.300000000000000000e+01
6.509100000000000000e+04,-4.000000000000000327e-05,-1.000000000000000048e-04,-9.000000000000000567e-05,-2.000000000000000096e-04,-3.099999999999999999e-04,-2.900000000000000017e-04,-5.999999999999999474e-05,5.099999999999999282e-04,6.000000000000000000e+00,2.300000000000000000e+01
6.509200000000000000e+04,-4.000000000000000327e-05,-1.000000000000000048e-04,-9.000000000000000567e-05,-2.000000000000000096e-04,-3.099999999999999999e-04,-2.900000000000000017e-04,-5.999999999999999474e-05,5.099999999999999282e-04,6.000000000000000000e+00,2.300000000000000000e+01
6.509300000000000000e+04,-4.000000000000000327e-05,-1.000000000000000048e-04,-9.000000000000000567e-05,-2.000000000000000096e-04,-3.099999999999999999e-04,-2.900000000000000017e-04,-5.999999999999999474e-05,5.099999999999999282e-04,6.000000000000000000e+00,2.300000000000000000e+01
6.509400000000000000e+04,-8.000000000000000654e-05,-8.000000000000000654e-05,-5.000000000000000240e-05,-5.000000000000000240e-05,2.500000000000000052e-04,-4.599999999999999597e-04,5.999999999999999474e-05,-5.200000000000000629e-04,6.000000000000000000e+00,2.300000000000000000e+01
6.509500000000000000e+04,1.000000000000000082e-05,2.999999999999999737e-05,2.999999999999999737e-05,2.999999999999999737e-05,-1.499999999999999869e-04,-3.299999999999999982e-04,-2.100000000000000087e-04,-2.700000000000000035e-04,6.000000000000000000e+00,2.300000000000000000e+01
6.509600000000000000e+04,1.000000000000000082e-05,2.999999999999999737e-05,2.999999999999999737e-05,2.999999999999999737e-05,-1.499999999999999869e-04,-3.299999999999999982e-04,-2.100000000000000087e-04,-2.700000000000000035e-04,6.000000000000000000e+00,2.300000000000000000e+01
6.509700000000000000e+04,1.000000000000000082e-05,2.999999999999999737e-05,2.999999999999999737e-05,2.999999999999999737e-05,-1.499999999999999869e-04,-3.299999999999999982e-04,-2.100000000000000087e-04,-2.700000000000000035e-04,6.000000000000000000e+00,2.300000000000000000e+01
6.509800000000000000e+04,1.000000000000000082e-05,2.999999999999999737e-05,2.999999999999999737e-05,2.999999999999999737e-05,-1.499999999999999869e-04,-3.299999999999999982e-04,-2.100000000000000087e-04,-2.700000000000000035e-04,6.000000000000000000e+00,2.300000000000000000e+01
6.509900000000000000e+04,1.000000000000000082e-05,2.999999999999999737e-05,2.999999999999999737e-05,2.999999999999999737e-05,-1.499999999999999869e-04,-3.299999999999999982e-04,-2.100000000000000087e-04,-2.700000000000000035e-04,6.000000000000000000e+00,2.300000000000000000e+01
6.510000000000000000e+04,1.000000000000000082e-05,2.999999999999999737e-05,2.999999999999999737e-05,2.999999999999999737e-05,-1.499999999999999869e-04,-3.299999999999999982e-04,-2.100000000000000087e-04,-2.700000000000000035e-04,6.000000000000000000e+00,2.300000000000000000e+01
6.510100000000000000e+04,1.000000000000000082e-05,2.999999999999999737e-05,2.999999999999999737e-05,2.999999999999999737e-05,-1.499999999999999869e-04,-3.299999999999999982e-04,-2.100000000000000087e-04,-2.700000000000000035e-04,6.000000000000000000e+00,2.300000000000000000e+01
6.510200000000000000e+04,1.000000000000000082e-05,2.999999999999999737e-05,2.999999999999999737e-05,2.999999999999999737e-05,-1.499999999999999869e-04,-3.299999999999999982e-04,-2.100000000000000087e-04,-2.700000000000000035e-04,6.000000000000000000e+00,2.300000000000000000e+01
6.510300000000000000e+04,1.000000000000000082e-05,2.999999999999999737e-05,2.999999999999999737e-05,2.999999999999999737e-05,-1.499999999999999869e-04,-3.299999999999999982e-04,-2.100000000000000087e-04,-2.700000000000000035e-04,6.000000000000000000e+00,2.300000000000000000e+01
6.510400000000000000e+04,1.000000000000000082e-05,2.999999999999999737e-05,2.999999999999999737e-05,2.999999999999999737e-05,-1.499999999999999869e-04,-3.299999999999999982e-04,-2.100000000000000087e-04,-2.700000000000000035e-04,6.000000000000000000e+00,2.300000000000000000e+01
6.510500000000000000e+04,1.000000000000000082e-05,2.999999999999999737e-05,2.999999999999999737e-05,2.999999999999999737e-05,-1.499999999999999869e-04,-3.299999999999999982e-04,-2.100000000000000087e-04,-2.700000000000000035e-04,6.000000000000000000e+00,2.300000000000000000e+01
6.510600000000000000e+04,1.000000000000000082e-05,2.999999999999999737e-05,2.999999999999999737e-05,2.999999999999999737e-05,-1.499999999999999869e-04,-3.299999999999999982e-04,-2.100000000000000087e-04,-2.700000000000000035e-04,6.000000000000000000e+00,2.300000000000000000e+01
6.510700000000000000e+04,1.000000000000000082e-05,2.999999999999999737e-05,2.999999999999999737e-05,2.999999999999999737e-05,-1.499999999999999869e-04,-3.299999999999999982e-04,-2.100000000000000087e-04,-2.700000000000000035e-04,6.000000000000000000e+00,2.300000000000000000e+01
6.510800000000000000e+04,1.000000000000000082e-05,2.999999999999999737e-05,2.999999999999999737e-05,2.999999999999999737e-05,-1.499999999999999869e-04,-3.299999999999999982e-04,-2.100000000000000087e-04,-2.700000000000000035e-04,6.000000000000000000e+00,2.300000000000000000e+01
6.510900000000000000e+04,9.000000000000000567e-05,5.999999999999999474e-05,0.000000000000000000e+00,-1.000000000000000048e-04,1.499999999999999869e-04,-3.799999999999999667e-04,-5.999999999999999474e-05,-6.999999999999999387e-05,6.000000000000000000e+00,2.300000000000000000e+01
6.511000000000000000e+04,-1.000000000000000082e-05,5.999999999999999474e-05,2.000000000000000164e-05,2.000000000000000096e-04,-1.000000000000000082e-05,-2.500000000000000052e-04,-5.000000000000000240e-05,2.999999999999999737e-05,6.000000000000000000e+00,2.300000000000000000e+01
6.511100000000000000e+04,-1.000000000000000082e-05,5.999999999999999474e-05,2.000000000000000164e-05,2.000000000000000096e-04,-1.000000000000000082e-05,-2.500000000000000052e-04,-5.000000000000000240e-05,2.999999999999999737e-05,6.000000000000000000e+00,2.300000000000000000e+01
6.511200000000000000e+04,-1.000000000000000082e-05,5.999999999999999474e-05,2.000000000000000164e-05,2.000000000000000096e-04,-1.000000000000000082e-05,-2.500000000000000052e-04,-5.000000000000000240e-05,2.999999999999999737e-05,6.000000000000000000e+00,2.300000000000000000e+01
6.511300000000000000e+04,-1.000000000000000082e-05,5.999999999999999474e-05,2.000000000000000164e-05,2.000000000000000096e-04,-1.000000000000000082e-05,-2.500000000000000052e-04,-5.000000000000000240e-05,2.999999999999999737e-05,6.000000000000000000e+00,2.300000000000000000e+01
6.511400000000000000e+04,-1.000000000000000082e-05,5.999999999999999474e-05,2.000000000000000164e-05,2.000000000000000096e-04,-1.000000000000000082e-05,-2.500000000000000052e-04,-5.000000000000000240e-05,2.999999999999999737e-05,6.000000000000000000e+00,2.300000000000000000e+01
6.511500000000000000e+04,-1.000000000000000082e-05,5.999999999999999474e-05,2.000000000000000164e-05,2.000000000000000096e-04,-1.000000000000000082e-05,-2.500000000000000052e-04,-5.000000000000000240e-05,2.999999999999999737e-05,6.000000000000000000e+00,2.300000000000000000e+01
6.511600000000000000e+04,-1.000000000000000082e-05,5.999999999999999474e-05,2.000000000000000164e-05,2.000000000000000096e-04,-1.000000000000000082e-05,-2.500000000000000052e-04,-5.000000000000000240e-05,2.999999999999999737e-05,6.000000000000000000e+00,2.300000000000000000e+01
6.511700000000000000e+04,-1.000000000000000082e-05,5.999999999999999474e-05,2.000000000000000164e-05,2.000000000000000096e-04,-1.000000000000000082e-05,-2.500000000000000052e-04,-5.000000000000000240e-05,2.999999999999999737e-05,6.000000000000000000e+00,2.300000000000000000e+01
6.511800000000000000e+04,-1.000000000000000082e-05,5.999999999999999474e-05,2.000000000000000164e-05,2.000000000000000096e-04,-1.000000000000000082e-05,-2.500000000000000052e-04,-5.000000000000000240e-05,2.999999999999999737e-05,6.000000000000000000e+00,2.300000000000000000e+01
6.511900000000000000e+04,-1.000000000000000082e-05,5.999999999999999474e-05,2.000000000000000164e-05,2.000000000000000096e-04,-1.000000000000000082e-05,-2.500000000000000052e-04,-5.000000000000000240e-05,2.999999999999999737e-05,6.000000000000000000e+00,2.300000000000000000e+01
6.512000000000000000e+04,-1.000000000000000082e-05,5.999999999999999474e-05,2.000000000000000164e-05,2.000000000000000096e-04,-1.000000000000000082e-05,-2.500000000000000052e-04,-5.000000000000000240e-05,2.999999999999999737e-05,6.000000000000000000e+00,2.300000000000000000e+01
6.512200000000000000e+04,-1.000000000000000082e-05,5.999999999999999474e-05,2.000000000000000164e-05,2.000000000000000096e-04,-1.000000000000000082e-05,-2.500000000000000052e-04,-5.000000000000000240e-05,2.999999999999999737e-05,6.000000000000000000e+00,2.300000000000000000e+01
6.512300000000000000e+04,-1.000000000000000082e-05,5.999999999999999474e-05,2.000000000000000164e-05,2.000000000000000096e-04,-1.000000000000000082e-05,-2.500000000000000052e-04,-5.000000000000000240e-05,2.999999999999999737e-05,6.000000000000000000e+00,2.300000000000000000e+01
6.512400000000000000e+04,-1.000000000000000082e-05,5.999999999999999474e-05,2.000000000000000164e-05,2.000000000000000096e-04,-1.000000000000000082e-05,-2.500000000000000052e-04,-5.000000000000000240e-05,2.999999999999999737e-05,6.000000000000000000e+00,2.300000000000000000e+01
6.512500000000000000e+04,-1.000000000000000082e-05,5.999999999999999474e-05,2.000000000000000164e-05,2.000000000000000096e-04,-1.000000000000000082e-05,-2.500000000000000052e-04,-5.000000000000000240e-05,2.999999999999999737e-05,6.000000000000000000e+00,2.300000000000000000e+01
6.512600000000000000e+04,-1.000000000000000082e-05,5.999999999999999474e-05,2.000000000000000164e-05,2.000000000000000096e-04,-1.000000000000000082e-05,-2.500000000000000052e-04,-5.000000000000000240e-05,2.999999999999999737e-05,6.000000000000000000e+00,2.300000000000000000e+01
6.512700000000000000e+04,-1.000000000000000082e-05,5.999999999999999474e-05,2.000000000000000164e-05,2.000000000000000096e-04,-1.000000000000000082e-05,-2.500000000000000052e-04,-5.000000000000000240e-05,2.999999999999999737e-05,6.000000000000000000e+00,2.300000000000000000e+01
6.512800000000000000e+04,-1.000000000000000082e-05,5.999999999999999474e-05,2.000000000000000164e-05,2.000000000000000096e-04,-1.000000000000000082e-05,-2.500000000000000052e-04,-5.000000000000000240e-05,2.999999999999999737e-05,6.000000000000000000e+00,2.300000000000000000e+01
6.512900000000000000e+04,-1.000000000000000082e-05,5.999999999999999474e-05,2.000000000000000164e-05,2.000000000000000096e-04,-1.000000000000000082e-05,-2.500000000000000052e-04,-5.000000000000000240e-05,2.999999999999999737e-05,6.000000000000000000e+00,2.300000000000000000e+01
6.513000000000000000e+04,-1.000000000000000082e-05,5.999999999999999474e-05,2.000000000000000164e-05,2.000000000000000096e-04,-1.000000000000000082e-05,-2.500000000000000052e-04,-5.000000000000000240e-05,2.999999999999999737e-05,6.000000000000000000e+00,2.300000000000000000e+01
6.513100000000000000e+04,-1.000000000000000082e-05,-1.000000000000000082e-05,-4.000000000000000327e-05,-2.700000000000000035e-04,-9.799999999999999684e-04,-5.999999999999999474e-04,-8.000000000000000654e-05,2.100000000000000087e-04,6.000000000000000000e+00,2.300000000000000000e+01
6.513200000000000000e+04,-5.999999999999999474e-05,-5.999999999999999474e-05,-5.999999999999999474e-05,1.800000000000000113e-04,9.599999999999999159e-04,1.100000000000000039e-04,-5.000000000000000240e-05,-3.699999999999999947e-04,6.000000000000000000e+00,2.300000000000000000e+01
6.513300000000000000e+04,-5.999999999999999474e-05,-5.999999999999999474e-05,-5.999999999999999474e-05,1.800000000000000113e-04,9.599999999999999159e-04,1.100000000000000039e-04,-5.000000000000000240e-05,-3.699999999999999947e-04,6.000000000000000000e+00,2.300000000000000000e+01
6.513400000000000000e+04,-5.999999999999999474e-05,-5.999999999999999474e-05,-5.999999999999999474e-05,1.800000000000000113e-04,9.599999999999999159e-04,1.100000000000000039e-04,-5.000000000000000240e-05,-3.699999999999999947e-04,6.000000000000000000e+00,2.300000000000000000e+01
6.513500000000000000e+04,-5.999999999999999474e-05,-5.999999999999999474e-05,-5.999999999999999474e-05,1.800000000000000113e-04,9.599999999999999159e-04,1.100000000000000039e-04,-5.000000000000000240e-05,-3.699999999999999947e-04,6.000000000000000000e+00,2.300000000000000000e+01
6.513600000000000000e+04,-5.999999999999999474e-05,-5.999999999999999474e-05,-5.999999999999999474e-05,1.800000000000000113e-04,9.599999999999999159e-04,1.100000000000000039e-04,-5.000000000000000240e-05,-3.699999999999999947e-04,6.000000000000000000e+00,2.300000000000000000e+01
6.513900000000000000e+04,-5.999999999999999474e-05,-5.999999999999999474e-05,-5.999999999999999474e-05,1.800000000000000113e-04,9.599999999999999159e-04,1.100000000000000039e-04,-5.000000000000000240e-05,-3.699999999999999947e-04,6.000000000000000000e+00,2.300000000000000000e+01
6.514000000000000000e+04,-5.999999999999999474e-05,-5.999999999999999474e-05,-5.999999999999999474e-05,1.800000000000000113e-04,9.599999999999999159e-04,1.100000000000000039e-04,-5.000000000000000240e-05,-3.699999999999999947e-04,6.000000000000000000e+00,2.300000000000000000e+01
6.514100000000000000e+04,-5.999999999999999474e-05,-5.999999999999999474e-05,-5.999999999999999474e-05,1.800000000000000113e-04,9.599999999999999159e-04,1.100000000000000039e-04,-5.000000000000000240e-05,-3.699999999999999947e-04,6.000000000000000000e+00,2.300000000000000000e+01
6.514200000000000000e+04,-5.999999999999999474e-05,-5.999999999999999474e-05,-5.999999999999999474e-05,1.800000000000000113e-04,9.599999999999999159e-04,1.100000000000000039e-04,-5.000000000000000240e-05,-3.699999999999999947e-04,6.000000000000000000e+00,2.300000000000000000e+01
6.514300000000000000e+04,-5.999999999999999474e-05,-5.999999999999999474e-05,-5.999999999999999474e-05,1.800000000000000113e-04,9.599999999999999159e-04,1.100000000000000039e-04,-5.000000000000000240e-05,-3.699999999999999947e-04,6.000000000000000000e+00,2.300000000000000000e+01
6.514400000000000000e+04,-5.999999999999999474e-05,-5.999999999999999474e-05,-5.999999999999999474e-05,1.800000000000000113e-04,9.599999999999999159e-04,1.100000000000000039e-04,-5.000000000000000240e-05,-3.699999999999999947e-04,6.000000000000000000e+00,2.300000000000000000e+01
6.514500000000000000e+04,-5.999999999999999474e-05,-5.999999999999999474e-05,-5.999999999999999474e-05,1.800000000000000113e-04,9.599999999999999159e-04,1.100000000000000039e-04,-5.000000000000000240e-05,-3.699999999999999947e-04,6.000000000000000000e+00,2.300000000000000000e+01
6.514600000000000000e+04,-5.999999999999999474e-05,-5.999999999999999474e-05,-5.999999999999999474e-05,1.800000000000000113e-04,9.599999999999999159e-04,1.100000000000000039e-04,-5.000000000000000240e-05,-3.699999999999999947e-04,6.000000000000000000e+00,2.300000000000000000e+01
6.514700000000000000e+04,-5.999999999999999474e-05,-5.999999999999999474e-05,-5.999999999999999474e-05,1.800000000000000113e-04,9.599999999999999159e-04,1.100000000000000039e-04,-5.000000000000000240e-05,-3.699999999999999947e-04,6.000000000000000000e+00,2.300000000000000000e+01
6.514800000000000000e+04,-5.999999999999999474e-05,-5.999999999999999474e-05,-5.999999999999999474e-05,1.800000000000000113e-04,9.599999999999999159e-04,1.100000000000000039e-04,-5.000000000000000240e-05,-3.699999999999999947e-04,6.000000000000000000e+00,2.300000000000000000e+01
6.514900000000000000e+04,-5.999999999999999474e-05,-5.999999999999999474e-05,-5.999999999999999474e-05,1.800000000000000113e-04,9.599999999999999159e-04,1.100000000000000039e-04,-5.000000000000000240e-05,-3.699999999999999947e-04,6.000000000000000000e+00,2.300000000000000000e+01
6.515000000000000000e+04,-5.999999999999999474e-05,-5.999999999999999474e-05,-5.999999999999999474e-05,1.800000000000000113e-04,9.599999999999999159e-04,1.100000000000000039e-04,-5.000000000000000240e-05,-3.699999999999999947e-04,6.000000000000000000e+00,2.300000000000000000e+01
6.515100000000000000e+04,-5.999999999999999474e-05,-5.999999999999999474e-05,-5.999999999999999474e-05,1.800000000000000113e-04,9.599999999999999159e-04,1.100000000000000039e-04,-5.000000000000000240e-05,-3.699999999999999947e-04,6.000000000000000000e+00,2.300000000000000000e+01
6.515200000000000000e+04,-5.999999999999999474e-05,-5.999999999999999474e-05,-5.999999999999999474e-05,1.800000000000000113e-04,9.599999999999999159e-04,1.100000000000000039e-04,-5.000000000000000240e-05,-3.699999999999999947e-04,6.000000000000000000e+00,2.300000000000000000e+01
6.515300000000000000e+04,-5.999999999999999474e-05,-5.999999999999999474e-05,-5.999999999999999474e-05,1.800000000000000113e-04,9.599999999999999159e-04,1.100000000000000039e-04,-5.000000000000000240e-05,-3.699999999999999947e-04,6.000000000000000000e+00,2.300000000000000000e+01
6.515400000000000000e+04,2.000000000000000164e-05,1.100000000000000039e-04,9.000000000000000567e-05,-1.899999999999999834e-04,-9.300000000000000541e-04,-1.300000000000000157e-04,-1.100000000000000039e-04,-4.799999999999999580e-04,6.000000000000000000e+00,2.300000000000000000e+01
6.515500000000000000e+04,-1.000000000000000082e-05,-2.000000000000000164e-05,-2.000000000000000164e-05,-1.199999999999999895e-04,-2.299999999999999799e-04,3.699999999999999947e-04,5.999999999999999474e-05,2.100000000000000087e-04,6.000000000000000000e+00,2.300000000000000000e+01
6.515600000000000000e+04,-1.000000000000000082e-05,-2.000000000000000164e-05,-2.000000000000000164e-05,-1.199999999999999895e-04,-2.299999999999999799e-04,3.699999999999999947e-04,5.999999999999999474e-05,2.100000000000000087e-04,6.000000000000000000e+00,2.300000000000000000e+01
6.515700000000000000e+04,-1.000000000000000082e-05,-2.000000000000000164e-05,-2.000000000000000164e-05,-1.199999999999999895e-04,-2.299999999999999799e-04,3.699999999999999947e-04,5.999999999999999474e-05,2.100000000000000087e-04,6.000000000000000000e+00,2.300000000000000000e+01
6.515800000000000000e+04,-1.000000000000000082e-05,-2.000000000000000164e-05,-2.000000000000000164e-05,-1.199999999999999895e-04,-2.299999999999999799e-04,3.699999999999999947e-04,5.999999999999999474e-05,2.100000000000000087e-04,6.000000000000000000e+00,2.300000000000000000e+01
6.515900000000000000e+04,-1.000000000000000082e-05,-2.000000000000000164e-05,-2.000000000000000164e-05,-1.199999999999999895e-04,-2.299999999999999799e-04,3.699999999999999947e-04,5.999999999999999474e-05,2.100000000000000087e-04,6.000000000000000000e+00,2.300000000000000000e+01
6.516000000000000000e+04,-1.000000000000000082e-05,-2.000000000000000164e-05,-2.000000000000000164e-05,-1.199999999999999895e-04,-2.299999999999999799e-04,3.699999999999999947e-04,5.999999999999999474e-05,2.100000000000000087e-04,6.000000000000000000e+00,2.300000000000000000e+01
6.516100000000000000e+04,-1.000000000000000082e-05,-2.000000000000000164e-05,-2.000000000000000164e-05,-1.199999999999999895e-04,-2.299999999999999799e-04,3.699999999999999947e-04,5.999999999999999474e-05,2.100000000000000087e-04,6.000000000000000000e+00,2.300000000000000000e+01
6.516200000000000000e+04,-1.000000000000000082e-05,-2.000000000000000164e-05,-2.000000000000000164e-05,-1.199999999999999895e-04,-2.299999999999999799e-04,3.699999999999999947e-04,5.999999999999999474e-05,2.100000000000000087e-04,6.000000000000000000e+00,2.300000000000000000e+01
6.516300000000000000e+04,-1.000000000000000082e-05,-2.000000000000000164e-05,-2.000000000000000164e-05,-1.199999999999999895e-04,-2.299999999999999799e-04,3.699999999999999947e-04,5.999999999999999474e-05,2.100000000000000087e-04,6.000000000000000000e+00,2.300000000000000000e+01
6.516400000000000000e+04,-1.000000000000000082e-05,-2.000000000000000164e-05,-2.000000000000000164e-05,-1.199999999999999895e-04,-2.299999999999999799e-04,3.699999999999999947e-04,5.999999999999999474e-05,2.100000000000000087e-04,6.000000000000000000e+00,2.300000000000000000e+01
6.516500000000000000e+04,-1.000000000000000082e-05,-2.000000000000000164e-05,-2.000000000000000164e-05,-1.199999999999999895e-04,-2.299999999999999799e-04,3.699999999999999947e-04,5.999999999999999474e-05,2.100000000000000087e-04,6.000000000000000000e+00,2.300000000000000000e+01
6.516600000000000000e+04,-1.000000000000000082e-05,-2.000000000000000164e-05,-2.000000000000000164e-05,-1.199999999999999895e-04,-2.299999999999999799e-04,3.699999999999999947e-04,5.999999999999999474e-05,2.100000000000000087e-04,6.000000000000000000e+00,2.300000000000000000e+01
6.516700000000000000e+04,-1.000000000000000082e-05,-2.000000000000000164e-05,-2.000000000000000164e-05,-1.199999999999999895e-04,-2.299999999999999799e-04,3.699999999999999947e-04,5.999999999999999474e-05,2.100000000000000087e-04,6.000000000000000000e+00,2.300000000000000000e+01
6.516800000000000000e+04,-1.000000000000000082e-05,-2.000000000000000164e-05,-2.000000000000000164e-05,-1.199999999999999895e-04,-2.299999999999999799e-04,3.699999999999999947e-04,5.999999999999999474e-05,2.100000000000000087e-04,6.000000000000000000e+00,2.300000000000000000e+01
6.516900000000000000e+04,-1.199999999999999895e-04,-1.000000000000000048e-04,-1.100000000000000039e-04,-2.100000000000000087e-04,-4.599999999999999597e-04,-1.240000000000000000e-03,-1.399999999999999877e-04,-8.000000000000000654e-05,6.000000000000000000e+00,2.300000000000000000e+01
6.517000000000000000e+04,2.999999999999999737e-05,1.000000000000000082e-05,-1.000000000000000082e-05,0.000000000000000000e+00,2.000000000000000164e-05,-1.699999999999999851e-04,1.899999999999999834e-04,2.399999999999999790e-04,6.000000000000000000e+00,2.300000000000000000e+01
6.517100000000000000e+04,2.999999999999999737e-05,1.000000000000000082e-05,-1.000000000000000082e-05,0.000000000000000000e+00,2.000000000000000164e-05,-1.699999999999999851e-04,1.899999999999999834e-04,2.399999999999999790e-04,6.000000000000000000e+00,2.300000000000000000e+01
6.517200000000000000e+04,2.999999999999999737e-05,1.000000000000000082e-05,-1.000000000000000082e-05,0.000000000000000000e+00,2.000000000000000164e-05,-1.699999999999999851e-04,1.899999999999999834e-04,2.399999999999999790e-04,6.000000000000000000e+00,2.300000000000000000e+01
6.517300000000000000e+04,2.999999999999999737e-05,1.000000000000000082e-05,-1.000000000000000082e-05,0.000000000000000000e+00,2.000000000000000164e-05,-1.699999999999999851e-04,1.899999999999999834e-04,2.399999999999999790e-04,6.000000000000000000e+00,2.300000000000000000e+01
6.517400000000000000e+04,2.999999999999999737e-05,1.000000000000000082e-05,-1.000000000000000082e-05,0.000000000000000000e+00,2.000000000000000164e-05,-1.699999999999999851e-04,1.899999999999999834e-04,2.399999999999999790e-04,6.000000000000000000e+00,2.300000000000000000e+01
6.517500000000000000e+04,2.999999999999999737e-05,1.000000000000000082e-05,-1.000000000000000082e-05,0.000000000000000000e+00,2.000000000000000164e-05,-1.699999999999999851e-04,1.899999999999999834e-04,2.399999999999999790e-04,6.000000000000000000e+00,2.300000000000000000e+01
6.517600000000000000e+04,2.999999999999999737e-05,1.000000000000000082e-05,-1.000000000000000082e-05,0.000000000000000000e+00,2.000000000000000164e-05,-1.699999999999999851e-04,1.899999999999999834e-04,2.399999999999999790e-04,6.000000000000000000e+00,2.300000000000000000e+01
6.517700000000000000e+04,2.999999999999999737e-05,1.000000000000000082e-05,-1.000000000000000082e-05,0.000000000000000000e+00,2.000000000000000164e-05,-1.699999999999999851e-04,1.899999999999999834e-04,2.399999999999999790e-04,6.000000000000000000e+00,2.300000000000000000e+01
6.517800000000000000e+04,2.999999999999999737e-05,1.000000000000000082e-05,-1.000000000000000082e-05,0.000000000000000000e+00,2.000000000000000164e-05,-1.699999999999999851e-04,1.899999999999999834e-04,2.399999999999999790e-04,6.000000000000000000e+00,2.300000000000000000e+01
6.517900000000000000e+04,2.999999999999999737e-05,1.000000000000000082e-05,-1.000000000000000082e-05,0.000000000000000000e+00,2.000000000000000164e-05,-1.699999999999999851e-04,1.899999999999999834e-04,2.399999999999999790e-04,6.000000000000000000e+00,2.300000000000000000e+01
6.518000000000000000e+04,2.999999999999999737e-05,1.000000000000000082e-05,-1.000000000000000082e-05,0.000000000000000000e+00,2.000000000000000164e-05,-1.699999999999999851e-04,1.899999999999999834e-04,2.399999999999999790e-04,6.000000000000000000e+00,2.300000000000000000e+01
6.518100000000000000e+04,2.999999999999999737e-05,1.000000000000000082e-05,-1.000000000000000082e-05,0.000000000000000000e+00,2.000000000000000164e-05,-1.699999999999999851e-04,1.899999999999999834e-04,2.399999999999999790e-04,6.000000000000000000e+00,2.300000000000000000e+01
6.518200000000000000e+04,2.999999999999999737e-05,1.000000000000000082e-05,-1.000000000000000082e-05,0.000000000000000000e+00,2.000000000000000164e-05,-1.699999999999999851e-04,1.899999999999999834e-04,2.399999999999999790e-04,6.000000000000000000e+00,2.300000000000000000e+01
6.518300000000000000e+04,2.999999999999999737e-05,1.000000000000000082e-05,-1.000000000000000082e-05,0.000000000000000000e+00,2.000000000000000164e-05,-1.699999999999999851e-04,1.899999999999999834e-04,2.399999999999999790e-04,6.000000000000000000e+00,2.300000000000000000e+01
6.518400000000000000e+04,2.999999999999999737e-05,1.000000000000000082e-05,-1.000000000000000082e-05,0.000000000000000000e+00,2.000000000000000164e-05,-1.699999999999999851e-04,1.899999999999999834e-04,2.399999999999999790e-04,6.000000000000000000e+00,2.300000000000000000e+01
6.518500000000000000e+04,2.999999999999999737e-05,1.000000000000000082e-05,-1.000000000000000082e-05,0.000000000000000000e+00,2.000000000000000164e-05,-1.699999999999999851e-04,1.899999999999999834e-04,2.399999999999999790e-04,6.000000000000000000e+00,2.300000000000000000e+01
6.518600000000000000e+04,2.999999999999999737e-05,1.000000000000000082e-05,-1.000000000000000082e-05,0.000000000000000000e+00,2.000000000000000164e-05,-1.699999999999999851e-04,1.899999999999999834e-04,2.399999999999999790e-04,6.000000000000000000e+00,2.300000000000000000e+01
6.518800000000000000e+04,2.999999999999999737e-05,1.000000000000000082e-05,-1.000000000000000082e-05,0.000000000000000000e+00,2.000000000000000164e-05,-1.699999999999999851e-04,1.899999999999999834e-04,2.399999999999999790e-04,6.000000000000000000e+00,2.300000000000000000e+01
6.518900000000000000e+04,2.999999999999999737e-05,1.000000000000000082e-05,-1.000000000000000082e-05,0.000000000000000000e+00,2.000000000000000164e-05,-1.699999999999999851e-04,1.899999999999999834e-04,2.399999999999999790e-04,6.000000000000000000e+00,2.300000000000000000e+01
6.519000000000000000e+04,2.999999999999999737e-05,1.000000000000000082e-05,-1.000000000000000082e-05,0.000000000000000000e+00,2.000000000000000164e-05,-1.699999999999999851e-04,1.899999999999999834e-04,2.399999999999999790e-04,6.000000000000000000e+00,2.300000000000000000e+01
6.519100000000000000e+04,2.999999999999999737e-05,1.000000000000000082e-05,-1.000000000000000082e-05,0.000000000000000000e+00,2.000000000000000164e-05,-1.699999999999999851e-04,1.899999999999999834e-04,2.399999999999999790e-04,6.000000000000000000e+00,2.300000000000000000e+01
6.519200000000000000e+04,2.999999999999999737e-05,1.000000000000000082e-05,-1.000000000000000082e-05,0.000000000000000000e+00,2.000000000000000164e-05,-1.699999999999999851e-04,1.899999999999999834e-04,2.399999999999999790e-04,6.000000000000000000e+00,2.300000000000000000e+01
6.519300000000000000e+04,2.999999999999999737e-05,1.000000000000000082e-05,-1.000000000000000082e-05,0.000000000000000000e+00,2.000000000000000164e-05,-1.699999999999999851e-04,1.899999999999999834e-04,2.399999999999999790e-04,6.000000000000000000e+00,2.300000000000000000e+01
6.519400000000000000e+04,2.999999999999999737e-05,1.000000000000000082e-05,-1.000000000000000082e-05,0.000000000000000000e+00,2.000000000000000164e-05,-1.699999999999999851e-04,1.899999999999999834e-04,2.399999999999999790e-04,6.000000000000000000e+00,2.300000000000000000e+01
6.519500000000000000e+04,2.999999999999999737e-05,1.000000000000000082e-05,-1.000000000000000082e-05,0.000000000000000000e+00,2.000000000000000164e-05,-1.699999999999999851e-04,1.899999999999999834e-04,2.399999999999999790e-04,6.000000000000000000e+00,2.300000000000000000e+01
6.519600000000000000e+04,2.999999999999999737e-05,1.000000000000000082e-05,-1.000000000000000082e-05,0.000000000000000000e+00,2.000000000000000164e-05,-1.699999999999999851e-04,1.899999999999999834e-04,2.399999999999999790e-04,6.000000000000000000e+00,2.300000000000000000e+01
6.519700000000000000e+04,2.999999999999999737e-05,1.000000000000000082e-05,-1.000000000000000082e-05,0.000000000000000000e+00,2.000000000000000164e-05,-1.699999999999999851e-04,1.899999999999999834e-04,2.399999999999999790e-04,6.000000000000000000e+00,2.300000000000000000e+01
6.519800000000000000e+04,2.999999999999999737e-05,1.000000000000000082e-05,-1.000000000000000082e-05,0.000000000000000000e+00,2.000000000000000164e-05,-1.699999999999999851e-04,1.899999999999999834e-04,2.399999999999999790e-04,6.000000000000000000e+00,2.300000000000000000e+01
6.519900000000000000e+04,-1.000000000000000082e-05,1.000000000000000082e-05,-5.000000000000000240e-05,-2.999999999999999737e-05,-2.999999999999999737e-04,-5.999999999999999474e-04,-1.000000000000000082e-05,-1.800000000000000113e-04,6.000000000000000000e+00,2.300000000000000000e+01
6.520000000000000000e+04,-1.000000000000000082e-05,1.000000000000000082e-05,-5.000000000000000240e-05,-2.999999999999999737e-05,-2.999999999999999737e-04,-5.999999999999999474e-04,-1.000000000000000082e-05,-1.800000000000000113e-04,6.000000000000000000e+00,2.300000000000000000e+01
6.520100000000000000e+04,-1.000000000000000082e-05,1.000000000000000082e-05,-5.000000000000000240e-05,-2.999999999999999737e-05,-2.999999999999999737e-04,-5.999999999999999474e-04,-1.000000000000000082e-05,-1.800000000000000113e-04,6.000000000000000000e+00,2.300000000000000000e+01
6.520200000000000000e+04,-1.000000000000000082e-05,1.000000000000000082e-05,-5.000000000000000240e-05,-2.999999999999999737e-05,-2.999999999999999737e-04,-5.999999999999999474e-04,-1.000000000000000082e-05,-1.800000000000000113e-04,6.000000000000000000e+00,2.300000000000000000e+01
