3.574100000000000000e+04,-5.000000000000000240e-05,-1.000000000000000082e-05,-2.000000000000000164e-05,5.999999999999999474e-05,5.099999999999999282e-04,4.000000000000000327e-05,-2.500000000000000052e-04,-3.399999999999999702e-04,6.000000000000000000e+00,1.000000000000000000e+01
3.574200000000000000e+04,-5.000000000000000240e-05,-1.000000000000000082e-05,-2.000000000000000164e-05,5.999999999999999474e-05,5.099999999999999282e-04,4.000000000000000327e-05,-2.500000000000000052e-04,-3.399999999999999702e-04,6.000000000000000000e+00,1.000000000000000000e+01
3.574300000000000000e+04,-5.000000000000000240e-05,-1.000000000000000082e-05,-2.000000000000000164e-05,5.999999999999999474e-05,5.099999999999999282e-04,4.000000000000000327e-05,-2.500000000000000052e-04,-3.399999999999999702e-04,6.000000000000000000e+00,1.000000000000000000e+01
3.574400000000000000e+04,-5.000000000000000240e-05,-1.000000000000000082e-05,-2.000000000000000164e-05,5.999999999999999474e-05,5.099999999999999282e-04,4.000000000000000327e-05,-2.500000000000000052e-04,-3.399999999999999702e-04,6.000000000000000000e+00,1.000000000000000000e+01
3.574500000000000000e+04,-5.000000000000000240e-05,-1.000000000000000082e-05,-2.000000000000000164e-05,5.999999999999999474e-05,5.099999999999999282e-04,4.000000000000000327e-05,-2.500000000000000052e-04,-3.399999999999999702e-04,6.000000000000000000e+00,1.000000000000000000e+01
3.574600000000000000e+04,-2.600000000000000314e-04,-5.999999999999999474e-05,-5.999999999999999474e-05,-2.200000000000000078e-04,-8.599999999999999789e-04,-3.399999999999999702e-04,1.100000000000000039e-04,-2.299999999999999799e-04,6.000000000000000000e+00,1.000000000000000000e+01
3.574700000000000000e+04,-2.600000000000000314e-04,-5.999999999999999474e-05,-5.999999999999999474e-05,-2.200000000000000078e-04,-8.599999999999999789e-04,-3.399999999999999702e-04,1.100000000000000039e-04,-2.299999999999999799e-04,6.000000000000000000e+00,1.000000000000000000e+01
3.574800000000000000e+04,-2.600000000000000314e-04,-5.999999999999999474e-05,-5.999999999999999474e-05,-2.200000000000000078e-04,-8.599999999999999789e-04,-3.399999999999999702e-04,1.100000000000000039e-04,-2.299999999999999799e-04,6.000000000000000000e+00,1.000000000000000000e+01
3.574900000000000000e+04,-2.600000000000000314e-04,-5.999999999999999474e-05,-5.999999999999999474e-05,-2.200000000000000078e-04,-8.599999999999999789e-04,-3.399999999999999702e-04,1.100000000000000039e-04,-2.299999999999999799e-04,6.000000000000000000e+00,1.000000000000000000e+01
3.575000000000000000e+04,-2.600000000000000314e-04,-5.999999999999999474e-05,-5.999999999999999474e-05,-2.200000000000000078e-04,-8.599999999999999789e-04,-3.399999999999999702e-04,1.100000000000000039e-04,-2.299999999999999799e-04,6.000000000000000000e+00,1.000000000000000000e+01
3.575100000000000000e+04,-2.600000000000000314e-04,-5.999999999999999474e-05,-5.999999999999999474e-05,-2.200000000000000078e-04,-8.599999999999999789e-04,-3.399999999999999702e-04,1.100000000000000039e-04,-2.299999999999999799e-04,6.000000000000000000e+00,1.000000000000000000e+01
3.575200000000000000e+04,-2.600000000000000314e-04,-5.999999999999999474e-05,-5.999999999999999474e-05,-2.200000000000000078e-04,-8.599999999999999789e-04,-3.399999999999999702e-04,1.100000000000000039e-04,-2.299999999999999799e-04,6.000000000000000000e+00,1.000000000000000000e+01
3.575300000000000000e+04,-2.600000000000000314e-04,-5.999999999999999474e-05,-5.999999999999999474e-05,-2.200000000000000078e-04,-8.599999999999999789e-04,-3.399999999999999702e-04,1.100000000000000039e-04,-2.299999999999999799e-04,6.000000000000000000e+00,1.000000000000000000e+01
3.575400000000000000e+04,-2.600000000000000314e-04,-5.999999999999999474e-05,-5.999999999999999474e-05,-2.200000000000000078e-04,-8.599999999999999789e-04,-3.399999999999999702e-04,1.100000000000000039e-04,-2.299999999999999799e-04,6.000000000000000000e+00,1.000000000000000000e+01
3.575500000000000000e+04,-2.600000000000000314e-04,-5.999999999999999474e-05,-5.999999999999999474e-05,-2.200000000000000078e-04,-8.599999999999999789e-04,-3.399999999999999702e-04,1.100000000000000039e-04,-2.299999999999999799e-04,6.000000000000000000e+00,1.000000000000000000e+01
3.575600000000000000e+04,-2.600000000000000314e-04,-5.999999999999999474e-05,-5.999999999999999474e-05,-2.200000000000000078e-04,-8.599999999999999789e-04,-3.399999999999999702e-04,1.100000000000000039e-04,-2.299999999999999799e-04,6.000000000000000000e+00,1.000000000000000000e+01
3.575700000000000000e+04,-2.600000000000000314e-04,-5.999999999999999474e-05,-5.999999999999999474e-05,-2.200000000000000078e-04,-8.599999999999999789e-04,-3.399999999999999702e-04,1.100000000000000039e-04,-2.299999999999999799e-04,6.000000000000000000e+00,1.000000000000000000e+01
3.575800000000000000e+04,-2.600000000000000314e-04,-5.999999999999999474e-05,-5.999999999999999474e-05,-2.200000000000000078e-04,-8.599999999999999789e-04,-3.399999999999999702e-04,1.100000000000000039e-04,-2.299999999999999799e-04,6.000000000000000000e+00,1.000000000000000000e+01
3.575900000000000000e+04,-2.600000000000000314e-04,-5.999999999999999474e-05,-5.999999999999999474e-05,-2.200000000000000078e-04,-8.599999999999999789e-04,-3.399999999999999702e-04,1.100000000000000039e-04,-2.299999999999999799e-04,6.000000000000000000e+00,1.000000000000000000e+01
3.576000000000000000e+04,-2.600000000000000314e-04,-5.999999999999999474e-05,-5.999999999999999474e-05,-2.200000000000000078e-04,-8.599999999999999789e-04,-3.399999999999999702e-04,1.100000000000000039e-04,-2.299999999999999799e-04,6.000000000000000000e+00,1.000000000000000000e+01
3.576100000000000000e+04,2.799999999999999755e-04,5.999999999999999474e-05,1.000000000000000048e-04,-2.600000000000000314e-04,-9.000000000000000567e-05,-1.000000000000000048e-04,4.000000000000000327e-05,1.199999999999999895e-04,6.000000000000000000e+00,1.000000000000000000e+01
3.576300000000000000e+04,5.999999999999999474e-05,1.000000000000000048e-04,1.199999999999999895e-04,-2.999999999999999737e-05,-2.900000000000000017e-04,2.999999999999999737e-05,1.300000000000000157e-04,-5.099999999999999282e-04,6.000000000000000000e+00,1.000000000000000000e+01
3.576400000000000000e+04,5.999999999999999474e-05,1.000000000000000048e-04,1.199999999999999895e-04,-2.999999999999999737e-05,-2.900000000000000017e-04,2.999999999999999737e-05,1.300000000000000157e-04,-5.099999999999999282e-04,6.000000000000000000e+00,1.000000000000000000e+01
3.576500000000000000e+04,5.999999999999999474e-05,1.000000000000000048e-04,1.199999999999999895e-04,-2.999999999999999737e-05,-2.900000000000000017e-04,2.999999999999999737e-05,1.300000000000000157e-04,-5.099999999999999282e-04,6.000000000000000000e+00,1.000000000000000000e+01
3.576600000000000000e+04,5.999999999999999474e-05,1.000000000000000048e-04,1.199999999999999895e-04,-2.999999999999999737e-05,-2.900000000000000017e-04,2.999999999999999737e-05,1.300000000000000157e-04,-5.099999999999999282e-04,6.000000000000000000e+00,1.000000000000000000e+01
3.576700000000000000e+04,5.999999999999999474e-05,1.000000000000000048e-04,1.199999999999999895e-04,-2.999999999999999737e-05,-2.900000000000000017e-04,2.999999999999999737e-05,1.300000000000000157e-04,-5.099999999999999282e-04,6.000000000000000000e+00,1.000000000000000000e+01
3.576800000000000000e+04,5.999999999999999474e-05,1.000000000000000048e-04,1.199999999999999895e-04,-2.999999999999999737e-05,-2.900000000000000017e-04,2.999999999999999737e-05,1.300000000000000157e-04,-5.099999999999999282e-04,6.000000000000000000e+00,1.000000000000000000e+01
3.576900000000000000e+04,5.999999999999999474e-05,1.000000000000000048e-04,1.199999999999999895e-04,-2.999999999999999737e-05,-2.900000000000000017e-04,2.999999999999999737e-05,1.300000000000000157e-04,-5.099999999999999282e-04,6.000000000000000000e+00,1.000000000000000000e+01
3.577000000000000000e+04,5.999999999999999474e-05,1.000000000000000048e-04,1.199999999999999895e-04,-2.999999999999999737e-05,-2.900000000000000017e-04,2.999999999999999737e-05,1.300000000000000157e-04,-5.099999999999999282e-04,6.000000000000000000e+00,1.000000000000000000e+01
3.577100000000000000e+04,5.999999999999999474e-05,1.000000000000000048e-04,1.199999999999999895e-04,-2.999999999999999737e-05,-2.900000000000000017e-04,2.999999999999999737e-05,1.300000000000000157e-04,-5.099999999999999282e-04,6.000000000000000000e+00,1.000000000000000000e+01
3.577200000000000000e+04,5.999999999999999474e-05,1.000000000000000048e-04,1.199999999999999895e-04,-2.999999999999999737e-05,-2.900000000000000017e-04,2.999999999999999737e-05,1.300000000000000157e-04,-5.099999999999999282e-04,6.000000000000000000e+00,1.000000000000000000e+01
3.577300000000000000e+04,5.999999999999999474e-05,1.000000000000000048e-04,1.199999999999999895e-04,-2.999999999999999737e-05,-2.900000000000000017e-04,2.999999999999999737e-05,1.300000000000000157e-04,-5.099999999999999282e-04,6.000000000000000000e+00,1.000000000000000000e+01
3.577400000000000000e+04,5.999999999999999474e-05,1.000000000000000048e-04,1.199999999999999895e-04,-2.999999999999999737e-05,-2.900000000000000017e-04,2.999999999999999737e-05,1.300000000000000157e-04,-5.099999999999999282e-04,6.000000000000000000e+00,1.000000000000000000e+01
3.577500000000000000e+04,5.999999999999999474e-05,1.000000000000000048e-04,1.199999999999999895e-04,-2.999999999999999737e-05,-2.900000000000000017e-04,2.999999999999999737e-05,1.300000000000000157e-04,-5.099999999999999282e-04,6.000000000000000000e+00,1.000000000000000000e+01
3.577600000000000000e+04,5.999999999999999474e-05,1.000000000000000048e-04,1.199999999999999895e-04,-2.999999999999999737e-05,-2.900000000000000017e-04,2.999999999999999737e-05,1.300000000000000157e-04,-5.099999999999999282e-04,6.000000000000000000e+00,1.000000000000000000e+01
3.577700000000000000e+04,5.999999999999999474e-05,1.000000000000000048e-04,1.199999999999999895e-04,-2.999999999999999737e-05,-2.900000000000000017e-04,2.999999999999999737e-05,1.300000000000000157e-04,-5.099999999999999282e-04,6.000000000000000000e+00,1.000000000000000000e+01
3.577800000000000000e+04,5.999999999999999474e-05,1.000000000000000048e-04,1.199999999999999895e-04,-2.999999999999999737e-05,-2.900000000000000017e-04,2.999999999999999737e-05,1.300000000000000157e-04,-5.099999999999999282e-04,6.000000000000000000e+00,1.000000000000000000e+01
3.577900000000000000e+04,5.999999999999999474e-05,1.000000000000000048e-04,1.199999999999999895e-04,-2.999999999999999737e-05,-2.900000000000000017e-04,2.999999999999999737e-05,1.300000000000000157e-04,-5.099999999999999282e-04,6.000000000000000000e+00,1.000000000000000000e+01
3.578000000000000000e+04,5.999999999999999474e-05,1.000000000000000048e-04,1.199999999999999895e-04,-2.999999999999999737e-05,-2.900000000000000017e-04,2.999999999999999737e-05,1.300000000000000157e-04,-5.099999999999999282e-04,6.000000000000000000e+00,1.000000000000000000e+01
3.578100000000000000e+04,5.999999999999999474e-05,1.000000000000000048e-04,1.199999999999999895e-04,-2.999999999999999737e-05,-2.900000000000000017e-04,2.999999999999999737e-05,1.300000000000000157e-04,-5.099999999999999282e-04,6.000000000000000000e+00,1.000000000000000000e+01
3.578200000000000000e+04,5.999999999999999474e-05,1.000000000000000048e-04,1.199999999999999895e-04,-2.999999999999999737e-05,-2.900000000000000017e-04,2.999999999999999737e-05,1.300000000000000157e-04,-5.099999999999999282e-04,6.000000000000000000e+00,1.000000000000000000e+01
3.578300000000000000e+04,5.999999999999999474e-05,1.000000000000000048e-04,1.199999999999999895e-04,-2.999999999999999737e-05,-2.900000000000000017e-04,2.999999999999999737e-05,1.300000000000000157e-04,-5.099999999999999282e-04,6.000000000000000000e+00,1.000000000000000000e+01
3.578400000000000000e+04,2.999999999999999737e-05,-2.000000000000000164e-05,-5.000000000000000240e-05,2.100000000000000087e-04,-5.800000000000000034e-04,-8.000000000000000654e-05,2.299999999999999799e-04,2.299999999999999799e-04,6.000000000000000000e+00,1.000000000000000000e+01
3.578500000000000000e+04,1.000000000000000082e-05,-1.000000000000000082e-05,0.000000000000000000e+00,2.100000000000000087e-04,6.499999999999999702e-04,8.000000000000000654e-05,-9.000000000000000567e-05,-1.899999999999999834e-04,6.000000000000000000e+00,1.000000000000000000e+01
3.578700000000000000e+04,1.000000000000000082e-05,-1.000000000000000082e-05,0.000000000000000000e+00,2.100000000000000087e-04,6.499999999999999702e-04,8.000000000000000654e-05,-9.000000000000000567e-05,-1.899999999999999834e-04,6.000000000000000000e+00,1.000000000000000000e+01
3.578900000000000000e+04,1.000000000000000082e-05,-1.000000000000000082e-05,0.000000000000000000e+00,2.100000000000000087e-04,6.499999999999999702e-04,8.000000000000000654e-05,-9.000000000000000567e-05,-1.899999999999999834e-04,6.000000000000000000e+00,1.000000000000000000e+01
3.579000000000000000e+04,1.000000000000000082e-05,-1.000000000000000082e-05,0.000000000000000000e+00,2.100000000000000087e-04,6.499999999999999702e-04,8.000000000000000654e-05,-9.000000000000000567e-05,-1.899999999999999834e-04,6.000000000000000000e+00,1.000000000000000000e+01
3.579100000000000000e+04,1.000000000000000082e-05,-1.000000000000000082e-05,0.000000000000000000e+00,2.100000000000000087e-04,6.499999999999999702e-04,8.000000000000000654e-05,-9.000000000000000567e-05,-1.899999999999999834e-04,6.000000000000000000e+00,1.000000000000000000e+01
3.579200000000000000e+04,1.000000000000000082e-05,-1.000000000000000082e-05,0.000000000000000000e+00,2.100000000000000087e-04,6.499999999999999702e-04,8.000000000000000654e-05,-9.000000000000000567e-05,-1.899999999999999834e-04,6.000000000000000000e+00,1.000000000000000000e+01
3.579300000000000000e+04,1.000000000000000082e-05,-1.000000000000000082e-05,0.000000000000000000e+00,2.100000000000000087e-04,6.499999999999999702e-04,8.000000000000000654e-05,-9.000000000000000567e-05,-1.899999999999999834e-04,6.000000000000000000e+00,1.000000000000000000e+01
3.579400000000000000e+04,1.000000000000000082e-05,-1.000000000000000082e-05,0.000000000000000000e+00,2.100000000000000087e-04,6.499999999999999702e-04,8.000000000000000654e-05,-9.000000000000000567e-05,-1.899999999999999834e-04,6.000000000000000000e+00,1.000000000000000000e+01
3.579500000000000000e+04,1.000000000000000082e-05,-1.000000000000000082e-05,0.000000000000000000e+00,2.100000000000000087e-04,6.499999999999999702e-04,8.000000000000000654e-05,-9.000000000000000567e-05,-1.899999999999999834e-04,6.000000000000000000e+00,1.000000000000000000e+01
3.579600000000000000e+04,1.000000000000000082e-05,-1.000000000000000082e-05,0.000000000000000000e+00,2.100000000000000087e-04,6.499999999999999702e-04,8.000000000000000654e-05,-9.000000000000000567e-05,-1.899999999999999834e-04,6.000000000000000000e+00,1.000000000000000000e+01
3.579700000000000000e+04,-5.000000000000000240e-05,1.000000000000000082e-05,-1.000000000000000082e-05,-4.000000000000000327e-05,1.600000000000000131e-04,6.700000000000000226e-04,-5.000000000000000240e-05,5.999999999999999474e-05,6.000000000000000000e+00,1.000000000000000000e+01
3.579800000000000000e+04,3.099999999999999999e-04,-1.000000000000000082e-05,-1.000000000000000082e-05,2.999999999999999737e-05,2.799999999999999755e-04,-8.400000000000000348e-04,-1.800000000000000113e-04,9.000000000000000567e-05,6.000000000000000000e+00,1.000000000000000000e+01
3.579900000000000000e+04,3.099999999999999999e-04,-1.000000000000000082e-05,-1.000000000000000082e-05,2.999999999999999737e-05,2.799999999999999755e-04,-8.400000000000000348e-04,-1.800000000000000113e-04,9.000000000000000567e-05,6.000000000000000000e+00,1.000000000000000000e+01
3.580000000000000000e+04,3.099999999999999999e-04,-1.000000000000000082e-05,-1.000000000000000082e-05,2.999999999999999737e-05,2.799999999999999755e-04,-8.400000000000000348e-04,-1.800000000000000113e-04,9.000000000000000567e-05,6.000000000000000000e+00,1.000000000000000000e+01
3.580100000000000000e+04,3.099999999999999999e-04,-1.000000000000000082e-05,-1.000000000000000082e-05,2.999999999999999737e-05,2.799999999999999755e-04,-8.400000000000000348e-04,-1.800000000000000113e-04,9.000000000000000567e-05,6.000000000000000000e+00,1.000000000000000000e+01
3.580200000000000000e+04,3.099999999999999999e-04,-1.000000000000000082e-05,-1.000000000000000082e-05,2.999999999999999737e-05,2.799999999999999755e-04,-8.400000000000000348e-04,-1.800000000000000113e-04,9.000000000000000567e-05,6.000000000000000000e+00,1.000000000000000000e+01
3.580300000000000000e+04,3.099999999999999999e-04,-1.000000000000000082e-05,-1.000000000000000082e-05,2.999999999999999737e-05,2.799999999999999755e-04,-8.400000000000000348e-04,-1.800000000000000113e-04,9.000000000000000567e-05,6.000000000000000000e+00,1.000000000000000000e+01
3.580400000000000000e+04,3.099999999999999999e-04,-1.000000000000000082e-05,-1.000000000000000082e-05,2.999999999999999737e-05,2.799999999999999755e-04,-8.400000000000000348e-04,-1.800000000000000113e-04,9.000000000000000567e-05,6.000000000000000000e+00,1.000000000000000000e+01
3.580500000000000000e+04,3.099999999999999999e-04,-1.000000000000000082e-05,-1.000000000000000082e-05,2.999999999999999737e-05,2.799999999999999755e-04,-8.400000000000000348e-04,-1.800000000000000113e-04,9.000000000000000567e-05,6.000000000000000000e+00,1.000000000000000000e+01
3.580600000000000000e+04,-4.000000000000000327e-05,-9.000000000000000567e-05,-5.999999999999999474e-05,3.399999999999999702e-04,2.900000000000000017e-04,4.400000000000000157e-04,-2.100000000000000087e-04,9.000000000000000567e-05,6.000000000000000000e+00,1.000000000000000000e+01
3.580700000000000000e+04,-4.000000000000000327e-05,-9.000000000000000567e-05,-5.999999999999999474e-05,3.399999999999999702e-04,2.900000000000000017e-04,4.400000000000000157e-04,-2.100000000000000087e-04,9.000000000000000567e-05,6.000000000000000000e+00,1.000000000000000000e+01
3.580800000000000000e+04,-4.000000000000000327e-05,-9.000000000000000567e-05,-5.999999999999999474e-05,3.399999999999999702e-04,2.900000000000000017e-04,4.400000000000000157e-04,-2.100000000000000087e-04,9.000000000000000567e-05,6.000000000000000000e+00,1.000000000000000000e+01
3.580900000000000000e+04,-4.000000000000000327e-05,-9.000000000000000567e-05,-5.999999999999999474e-05,3.399999999999999702e-04,2.900000000000000017e-04,4.400000000000000157e-04,-2.100000000000000087e-04,9.000000000000000567e-05,6.000000000000000000e+00,1.000000000000000000e+01
3.581000000000000000e+04,-4.000000000000000327e-05,-9.000000000000000567e-05,-5.999999999999999474e-05,3.399999999999999702e-04,2.900000000000000017e-04,4.400000000000000157e-04,-2.100000000000000087e-04,9.000000000000000567e-05,6.000000000000000000e+00,1.000000000000000000e+01
3.581100000000000000e+04,-4.000000000000000327e-05,-9.000000000000000567e-05,-5.999999999999999474e-05,3.399999999999999702e-04,2.900000000000000017e-04,4.400000000000000157e-04,-2.100000000000000087e-04,9.000000000000000567e-05,6.000000000000000000e+00,1.000000000000000000e+01
3.581200000000000000e+04,-4.000000000000000327e-05,-9.000000000000000567e-05,-5.999999999999999474e-05,3.399999999999999702e-04,2.900000000000000017e-04,4.400000000000000157e-04,-2.100000000000000087e-04,9.000000000000000567e-05,6.000000000000000000e+00,1.000000000000000000e+01
3.581300000000000000e+04,-4.000000000000000327e-05,-9.000000000000000567e-05,-5.999999999999999474e-05,3.399999999999999702e-04,2.900000000000000017e-04,4.400000000000000157e-04,-2.100000000000000087e-04,9.000000000000000567e-05,6.000000000000000000e+00,1.000000000000000000e+01
3.581400000000000000e+04,-4.000000000000000327e-05,-9.000000000000000567e-05,-5.999999999999999474e-05,3.399999999999999702e-04,2.900000000000000017e-04,4.400000000000000157e-04,-2.100000000000000087e-04,9.000000000000000567e-05,6.000000000000000000e+00,1.000000000000000000e+01
3.581500000000000000e+04,-4.000000000000000327e-05,-9.000000000000000567e-05,-5.999999999999999474e-05,3.399999999999999702e-04,2.900000000000000017e-04,4.400000000000000157e-04,-2.100000000000000087e-04,9.000000000000000567e-05,6.000000000000000000e+00,1.000000000000000000e+01
3.581600000000000000e+04,-4.000000000000000327e-05,-9.000000000000000567e-05,-5.999999999999999474e-05,3.399999999999999702e-04,2.900000000000000017e-04,4.400000000000000157e-04,-2.100000000000000087e-04,9.000000000000000567e-05,6.000000000000000000e+00,1.000000000000000000e+01
3.581700000000000000e+04,-4.000000000000000327e-05,-9.000000000000000567e-05,-5.999999999999999474e-05,3.399999999999999702e-04,2.900000000000000017e-04,4.400000000000000157e-04,-2.100000000000000087e-04,9.000000000000000567e-05,6.000000000000000000e+00,1.000000000000000000e+01
3.581800000000000000e+04,-4.000000000000000327e-05,-9.000000000000000567e-05,-5.999999999999999474e-05,3.399999999999999702e-04,2.900000000000000017e-04,4.400000000000000157e-04,-2.100000000000000087e-04,9.000000000000000567e-05,6.000000000000000000e+00,1.000000000000000000e+01
3.581900000000000000e+04,-4.000000000000000327e-05,-9.000000000000000567e-05,-5.999999999999999474e-05,3.399999999999999702e-04,2.900000000000000017e-04,4.400000000000000157e-04,-2.100000000000000087e-04,9.000000000000000567e-05,6.000000000000000000e+00,1.000000000000000000e+01
3.582000000000000000e+04,-4.000000000000000327e-05,-9.000000000000000567e-05,-5.999999999999999474e-05,3.399999999999999702e-04,2.900000000000000017e-04,4.400000000000000157e-04,-2.100000000000000087e-04,9.000000000000000567e-05,6.000000000000000000e+00,1.000000000000000000e+01
3.582100000000000000e+04,2.600000000000000314e-04,-6.999999999999999387e-05,-1.199999999999999895e-04,-5.000000000000000240e-05,1.499999999999999869e-04,1.199999999999999895e-04,-2.000000000000000096e-04,6.999999999999999387e-05,6.000000000000000000e+00,1.000000000000000000e+01
3.582200000000000000e+04,2.600000000000000314e-04,-6.999999999999999387e-05,-1.199999999999999895e-04,-5.000000000000000240e-05,1.499999999999999869e-04,1.199999999999999895e-04,-2.000000000000000096e-04,6.999999999999999387e-05,6.000000000000000000e+00,1.000000000000000000e+01
3.582300000000000000e+04,1.199999999999999895e-04,5.000000000000000240e-05,5.000000000000000240e-05,9.000000000000000567e-05,-3.099999999999999999e-04,-5.999999999999999474e-05,1.100000000000000039e-04,2.000000000000000164e-05,6.000000000000000000e+00,1.000000000000000000e+01
3.582400000000000000e+04,1.199999999999999895e-04,5.000000000000000240e-05,5.000000000000000240e-05,9.000000000000000567e-05,-3.099999999999999999e-04,-5.999999999999999474e-05,1.100000000000000039e-04,2.000000000000000164e-05,6.000000000000000000e+00,1.000000000000000000e+01
3.582500000000000000e+04,1.199999999999999895e-04,5.000000000000000240e-05,5.000000000000000240e-05,9.000000000000000567e-05,-3.099999999999999999e-04,-5.999999999999999474e-05,1.100000000000000039e-04,2.000000000000000164e-05,6.000000000000000000e+00,1.000000000000000000e+01
3.582600000000000000e+04,1.199999999999999895e-04,5.000000000000000240e-05,5.000000000000000240e-05,9.000000000000000567e-05,-3.099999999999999999e-04,-5.999999999999999474e-05,1.100000000000000039e-04,2.000000000000000164e-05,6.000000000000000000e+00,1.000000000000000000e+01
3.582700000000000000e+04,1.199999999999999895e-04,5.000000000000000240e-05,5.000000000000000240e-05,9.000000000000000567e-05,-3.099999999999999999e-04,-5.999999999999999474e-05,1.100000000000000039e-04,2.000000000000000164e-05,6.000000000000000000e+00,1.000000000000000000e+01
3.582800000000000000e+04,1.199999999999999895e-04,5.000000000000000240e-05,5.000000000000000240e-05,9.000000000000000567e-05,-3.099999999999999999e-04,-5.999999999999999474e-05,1.100000000000000039e-04,2.000000000000000164e-05,6.000000000000000000e+00,1.000000000000000000e+01
3.582900000000000000e+04,1.199999999999999895e-04,5.000000000000000240e-05,5.000000000000000240e-05,9.000000000000000567e-05,-3.099999999999999999e-04,-5.999999999999999474e-05,1.100000000000000039e-04,2.000000000000000164e-05,6.000000000000000000e+00,1.000000000000000000e+01
3.583000000000000000e+04,1.199999999999999895e-04,5.000000000000000240e-05,5.000000000000000240e-05,9.000000000000000567e-05,-3.099999999999999999e-04,-5.999999999999999474e-05,1.100000000000000039e-04,2.000000000000000164e-05,6.000000000000000000e+00,1.000000000000000000e+01
3.583100000000000000e+04,1.199999999999999895e-04,5.000000000000000240e-05,5.000000000000000240e-05,9.000000000000000567e-05,-3.099999999999999999e-04,-5.999999999999999474e-05,1.100000000000000039e-04,2.000000000000000164e-05,6.000000000000000000e+00,1.000000000000000000e+01
3.583200000000000000e+04,1.199999999999999895e-04,5.000000000000000240e-05,5.000000000000000240e-05,9.000000000000000567e-05,-3.099999999999999999e-04,-5.999999999999999474e-05,1.100000000000000039e-04,2.000000000000000164e-05,6.000000000000000000e+00,1.000000000000000000e+01
3.583300000000000000e+04,1.199999999999999895e-04,5.000000000000000240e-05,5.000000000000000240e-05,9.000000000000000567e-05,-3.099999999999999999e-04,-5.999999999999999474e-05,1.100000000000000039e-04,2.000000000000000164e-05,6.000000000000000000e+00,1.000000000000000000e+01
3.583400000000000000e+04,1.199999999999999895e-04,5.000000000000000240e-05,5.000000000000000240e-05,9.000000000000000567e-05,-3.099999999999999999e-04,-5.999999999999999474e-05,1.100000000000000039e-04,2.000000000000000164e-05,6.000000000000000000e+00,1.000000000000000000e+01
3.583500000000000000e+04,1.199999999999999895e-04,5.000000000000000240e-05,5.000000000000000240e-05,9.000000000000000567e-05,-3.099999999999999999e-04,-5.999999999999999474e-05,1.100000000000000039e-04,2.000000000000000164e-05,6.000000000000000000e+00,1.000000000000000000e+01
3.584000000000000000e+04,1.199999999999999895e-04,5.000000000000000240e-05,5.000000000000000240e-05,9.000000000000000567e-05,-3.099999999999999999e-04,-5.999999999999999474e-05,1.100000000000000039e-04,2.000000000000000164e-05,6.000000000000000000e+00,1.000000000000000000e+01
3.584100000000000000e+04,1.199999999999999895e-04,5.000000000000000240e-05,5.000000000000000240e-05,9.000000000000000567e-05,-3.099999999999999999e-04,-5.999999999999999474e-05,1.100000000000000039e-04,2.000000000000000164e-05,6.000000000000000000e+00,1.000000000000000000e+01
3.584200000000000000e+04,1.199999999999999895e-04,5.000000000000000240e-05,5.000000000000000240e-05,9.000000000000000567e-05,-3.099999999999999999e-04,-5.999999999999999474e-05,1.100000000000000039e-04,2.000000000000000164e-05,6.000000000000000000e+00,1.000000000000000000e+01
3.584300000000000000e+04,2.999999999999999737e-05,1.000000000000000082e-05,-2.000000000000000164e-05,9.000000000000000567e-05,-4.000000000000000327e-05,2.000000000000000164e-05,9.000000000000000567e-05,-1.000000000000000048e-04,6.000000000000000000e+00,1.000000000000000000e+01
3.584500000000000000e+04,2.999999999999999737e-05,1.000000000000000082e-05,-2.000000000000000164e-05,9.000000000000000567e-05,-4.000000000000000327e-05,2.000000000000000164e-05,9.000000000000000567e-05,-1.000000000000000048e-04,6.000000000000000000e+00,1.000000000000000000e+01
3.584600000000000000e+04,2.999999999999999737e-05,1.000000000000000082e-05,-2.000000000000000164e-05,9.000000000000000567e-05,-4.000000000000000327e-05,2.000000000000000164e-05,9.000000000000000567e-05,-1.000000000000000048e-04,6.000000000000000000e+00,1.000000000000000000e+01
3.584900000000000000e+04,1.300000000000000157e-04,1.100000000000000039e-04,5.999999999999999474e-05,-8.099999999999999561e-04,-5.800000000000000034e-04,1.000000000000000048e-04,8.000000000000000654e-05,1.600000000000000131e-04,6.000000000000000000e+00,1.000000000000000000e+01
3.586000000000000000e+04,1.300000000000000157e-04,1.100000000000000039e-04,5.999999999999999474e-05,-8.099999999999999561e-04,-5.800000000000000034e-04,1.000000000000000048e-04,8.000000000000000654e-05,1.600000000000000131e-04,6.000000000000000000e+00,1.000000000000000000e+01
3.586100000000000000e+04,1.300000000000000157e-04,1.100000000000000039e-04,5.999999999999999474e-05,-8.099999999999999561e-04,-5.800000000000000034e-04,1.000000000000000048e-04,8.000000000000000654e-05,1.600000000000000131e-04,6.000000000000000000e+00,1.000000000000000000e+01
3.586200000000000000e+04,1.300000000000000157e-04,1.100000000000000039e-04,5.999999999999999474e-05,-8.099999999999999561e-04,-5.800000000000000034e-04,1.000000000000000048e-04,8.000000000000000654e-05,1.600000000000000131e-04,6.000000000000000000e+00,1.000000000000000000e+01
3.586400000000000000e+04,1.300000000000000157e-04,1.100000000000000039e-04,5.999999999999999474e-05,-8.099999999999999561e-04,-5.800000000000000034e-04,1.000000000000000048e-04,8.000000000000000654e-05,1.600000000000000131e-04,6.000000000000000000e+00,1.000000000000000000e+01
3.586500000000000000e+04,1.300000000000000157e-04,1.100000000000000039e-04,5.999999999999999474e-05,-8.099999999999999561e-04,-5.800000000000000034e-04,1.000000000000000048e-04,8.000000000000000654e-05,1.600000000000000131e-04,6.000000000000000000e+00,1.000000000000000000e+01
3.586600000000000000e+04,-6.400000000000000524e-04,-9.000000000000000567e-05,-8.000000000000000654e-05,0.000000000000000000e+00,4.599999999999999597e-04,4.599999999999999597e-04,-1.000000000000000082e-05,-1.800000000000000113e-04,6.000000000000000000e+00,1.000000000000000000e+01
3.586700000000000000e+04,1.800000000000000113e-04,2.000000000000000164e-05,-1.000000000000000082e-05,-1.000000000000000082e-05,6.199999999999999999e-04,5.599999999999999509e-04,-5.000000000000000240e-05,-5.000000000000000240e-05,6.000000000000000000e+00,1.000000000000000000e+01
3.586800000000000000e+04,-2.299999999999999799e-04,-8.000000000000000654e-05,-2.000000000000000164e-05,3.200000000000000262e-04,6.999999999999999387e-05,-4.000000000000000327e-05,0.000000000000000000e+00,-1.600000000000000131e-04,6.000000000000000000e+00,1.000000000000000000e+01
3.586900000000000000e+04,-2.299999999999999799e-04,-8.000000000000000654e-05,-2.000000000000000164e-05,3.200000000000000262e-04,6.999999999999999387e-05,-4.000000000000000327e-05,0.000000000000000000e+00,-1.600000000000000131e-04,6.000000000000000000e+00,1.000000000000000000e+01
3.587000000000000000e+04,-2.299999999999999799e-04,-8.000000000000000654e-05,-2.000000000000000164e-05,3.200000000000000262e-04,6.999999999999999387e-05,-4.000000000000000327e-05,0.000000000000000000e+00,-1.600000000000000131e-04,6.000000000000000000e+00,1.000000000000000000e+01
3.587100000000000000e+04,-2.299999999999999799e-04,-8.000000000000000654e-05,-2.000000000000000164e-05,3.200000000000000262e-04,6.999999999999999387e-05,-4.000000000000000327e-05,0.000000000000000000e+00,-1.600000000000000131e-04,6.000000000000000000e+00,1.000000000000000000e+01
3.587200000000000000e+04,-2.299999999999999799e-04,-8.000000000000000654e-05,-2.000000000000000164e-05,3.200000000000000262e-04,6.999999999999999387e-05,-4.000000000000000327e-05,0.000000000000000000e+00,-1.600000000000000131e-04,6.000000000000000000e+00,1.000000000000000000e+01
3.587300000000000000e+04,-2.299999999999999799e-04,-8.000000000000000654e-05,-2.000000000000000164e-05,3.200000000000000262e-04,6.999999999999999387e-05,-4.000000000000000327e-05,0.000000000000000000e+00,-1.600000000000000131e-04,6.000000000000000000e+00,1.000000000000000000e+01
3.587400000000000000e+04,-2.299999999999999799e-04,-8.000000000000000654e-05,-2.000000000000000164e-05,3.200000000000000262e-04,6.999999999999999387e-05,-4.000000000000000327e-05,0.000000000000000000e+00,-1.600000000000000131e-04,6.000000000000000000e+00,1.000000000000000000e+01
3.587500000000000000e+04,-2.299999999999999799e-04,-8.000000000000000654e-05,-2.000000000000000164e-05,3.200000000000000262e-04,6.999999999999999387e-05,-4.000000000000000327e-05,0.000000000000000000e+00,-1.600000000000000131e-04,6.000000000000000000e+00,1.000000000000000000e+01
3.587600000000000000e+04,-2.299999999999999799e-04,-8.000000000000000654e-05,-2.000000000000000164e-05,3.200000000000000262e-04,6.999999999999999387e-05,-4.000000000000000327e-05,0.000000000000000000e+00,-1.600000000000000131e-04,6.000000000000000000e+00,1.000000000000000000e+01
3.587700000000000000e+04,-2.299999999999999799e-04,-8.000000000000000654e-05,-2.000000000000000164e-05,3.200000000000000262e-04,6.999999999999999387e-05,-4.000000000000000327e-05,0.000000000000000000e+00,-1.600000000000000131e-04,6.000000000000000000e+00,1.000000000000000000e+01
3.587800000000000000e+04,-2.299999999999999799e-04,-8.000000000000000654e-05,-2.000000000000000164e-05,3.200000000000000262e-04,6.999999999999999387e-05,-4.000000000000000327e-05,0.000000000000000000e+00,-1.600000000000000131e-04,6.000000000000000000e+00,1.000000000000000000e+01
3.587900000000000000e+04,-2.299999999999999799e-04,-8.000000000000000654e-05,-2.000000000000000164e-05,3.200000000000000262e-04,6.999999999999999387e-05,-4.000000000000000327e-05,0.000000000000000000e+00,-1.600000000000000131e-04,6.000000000000000000e+00,1.000000000000000000e+01
3.588000000000000000e+04,-2.299999999999999799e-04,-8.000000000000000654e-05,-2.000000000000000164e-05,3.200000000000000262e-04,6.999999999999999387e-05,-4.000000000000000327e-05,0.000000000000000000e+00,-1.600000000000000131e-04,6.000000000000000000e+00,1.000000000000000000e+01
3.588100000000000000e+04,-1.399999999999999877e-04,-6.999999999999999387e-05,-5.000000000000000240e-05,-2.000000000000000164e-05,-3.600000000000000227e-04,-4.799999999999999580e-04,4.200000000000000174e-04,-1.800000000000000113e-04,6.000000000000000000e+00,1.000000000000000000e+01
3.588200000000000000e+04,1.699999999999999851e-04,1.100000000000000039e-04,1.000000000000000048e-04,-1.100000000000000039e-04,7.900000000000000121e-04,1.300000000000000157e-04,1.000000000000000082e-05,2.999999999999999737e-04,6.000000000000000000e+00,1.000000000000000000e+01
3.588300000000000000e+04,-2.100000000000000087e-04,0.000000000000000000e+00,5.000000000000000240e-05,2.000000000000000096e-04,-6.999999999999999387e-05,-5.999999999999999474e-05,2.000000000000000164e-05,1.899999999999999834e-04,6.000000000000000000e+00,1.000000000000000000e+01
3.588400000000000000e+04,-2.100000000000000087e-04,0.000000000000000000e+00,5.000000000000000240e-05,2.000000000000000096e-04,-6.999999999999999387e-05,-5.999999999999999474e-05,2.000000000000000164e-05,1.899999999999999834e-04,6.000000000000000000e+00,1.000000000000000000e+01
3.588500000000000000e+04,-2.100000000000000087e-04,0.000000000000000000e+00,5.000000000000000240e-05,2.000000000000000096e-04,-6.999999999999999387e-05,-5.999999999999999474e-05,2.000000000000000164e-05,1.899999999999999834e-04,6.000000000000000000e+00,1.000000000000000000e+01
3.588600000000000000e+04,-2.100000000000000087e-04,0.000000000000000000e+00,5.000000000000000240e-05,2.000000000000000096e-04,-6.999999999999999387e-05,-5.999999999999999474e-05,2.000000000000000164e-05,1.899999999999999834e-04,6.000000000000000000e+00,1.000000000000000000e+01
3.588800000000000000e+04,-2.100000000000000087e-04,0.000000000000000000e+00,5.000000000000000240e-05,2.000000000000000096e-04,-6.999999999999999387e-05,-5.999999999999999474e-05,2.000000000000000164e-05,1.899999999999999834e-04,6.000000000000000000e+00,1.000000000000000000e+01
3.588900000000000000e+04,-2.100000000000000087e-04,0.000000000000000000e+00,5.000000000000000240e-05,2.000000000000000096e-04,-6.999999999999999387e-05,-5.999999999999999474e-05,2.000000000000000164e-05,1.899999999999999834e-04,6.000000000000000000e+00,1.000000000000000000e+01
3.589000000000000000e+04,-2.100000000000000087e-04,0.000000000000000000e+00,5.000000000000000240e-05,2.000000000000000096e-04,-6.999999999999999387e-05,-5.999999999999999474e-05,2.000000000000000164e-05,1.899999999999999834e-04,6.000000000000000000e+00,1.000000000000000000e+01
3.589100000000000000e+04,-2.100000000000000087e-04,0.000000000000000000e+00,5.000000000000000240e-05,2.000000000000000096e-04,-6.999999999999999387e-05,-5.999999999999999474e-05,2.000000000000000164e-05,1.899999999999999834e-04,6.000000000000000000e+00,1.000000000000000000e+01
3.589200000000000000e+04,-2.100000000000000087e-04,0.000000000000000000e+00,5.000000000000000240e-05,2.000000000000000096e-04,-6.999999999999999387e-05,-5.999999999999999474e-05,2.000000000000000164e-05,1.899999999999999834e-04,6.000000000000000000e+00,1.000000000000000000e+01
3.589300000000000000e+04,-2.100000000000000087e-04,0.000000000000000000e+00,5.000000000000000240e-05,2.000000000000000096e-04,-6.999999999999999387e-05,-5.999999999999999474e-05,2.000000000000000164e-05,1.899999999999999834e-04,6.000000000000000000e+00,1.000000000000000000e+01
3.589400000000000000e+04,-2.100000000000000087e-04,0.000000000000000000e+00,5.000000000000000240e-05,2.000000000000000096e-04,-6.999999999999999387e-05,-5.999999999999999474e-05,2.000000000000000164e-05,1.899999999999999834e-04,6.000000000000000000e+00,1.000000000000000000e+01
3.589500000000000000e+04,-2.100000000000000087e-04,0.000000000000000000e+00,5.000000000000000240e-05,2.000000000000000096e-04,-6.999999999999999387e-05,-5.999999999999999474e-05,2.000000000000000164e-05,1.899999999999999834e-04,6.000000000000000000e+00,1.000000000000000000e+01
3.589600000000000000e+04,-2.100000000000000087e-04,0.000000000000000000e+00,5.000000000000000240e-05,2.000000000000000096e-04,-6.999999999999999387e-05,-5.999999999999999474e-05,2.000000000000000164e-05,1.899999999999999834e-04,6.000000000000000000e+00,1.000000000000000000e+01
3.589700000000000000e+04,-2.100000000000000087e-04,0.000000000000000000e+00,5.000000000000000240e-05,2.000000000000000096e-04,-6.999999999999999387e-05,-5.999999999999999474e-05,2.000000000000000164e-05,1.899999999999999834e-04,6.000000000000000000e+00,1.000000000000000000e+01
3.589800000000000000e+04,-2.100000000000000087e-04,0.000000000000000000e+00,5.000000000000000240e-05,2.000000000000000096e-04,-6.999999999999999387e-05,-5.999999999999999474e-05,2.000000000000000164e-05,1.899999999999999834e-04,6.000000000000000000e+00,1.000000000000000000e+01
3.589900000000000000e+04,-2.100000000000000087e-04,0.000000000000000000e+00,5.000000000000000240e-05,2.000000000000000096e-04,-6.999999999999999387e-05,-5.999999999999999474e-05,2.000000000000000164e-05,1.899999999999999834e-04,6.000000000000000000e+00,1.000000000000000000e+01
3.590000000000000000e+04,-2.100000000000000087e-04,0.000000000000000000e+00,5.000000000000000240e-05,2.000000000000000096e-04,-6.999999999999999387e-05,-5.999999999999999474e-05,2.000000000000000164e-05,1.899999999999999834e-04,6.000000000000000000e+00,1.000000000000000000e+01
3.590100000000000000e+04,-2.100000000000000087e-04,0.000000000000000000e+00,5.000000000000000240e-05,2.000000000000000096e-04,-6.999999999999999387e-05,-5.999999999999999474e-05,2.000000000000000164e-05,1.899999999999999834e-04,6.000000000000000000e+00,1.000000000000000000e+01
3.590200000000000000e+04,-2.100000000000000087e-04,0.000000000000000000e+00,5.000000000000000240e-05,2.000000000000000096e-04,-6.999999999999999387e-05,-5.999999999999999474e-05,2.000000000000000164e-05,1.899999999999999834e-04,6.000000000000000000e+00,1.000000000000000000e+01
3.590300000000000000e+04,-5.000000000000000240e-05,-1.000000000000000082e-05,-5.999999999999999474e-05,-1.499999999999999869e-04,-2.399999999999999790e-04,2.299999999999999799e-04,6.999999999999999387e-05,-2.299999999999999799e-04,6.000000000000000000e+00,1.000000000000000000e+01
3.590400000000000000e+04,3.099999999999999999e-04,0.000000000000000000e+00,2.000000000000000164e-05,-4.000000000000000327e-05,-8.599999999999999789e-04,-6.999999999999999387e-05,1.100000000000000039e-04,2.500000000000000052e-04,6.000000000000000000e+00,1.000000000000000000e+01
3.590500000000000000e+04,1.899999999999999834e-04,-2.999999999999999737e-05,-6.999999999999999387e-05,-5.999999999999999474e-05,-6.499999999999999702e-04,-1.199999999999999895e-04,9.000000000000000567e-05,4.000000000000000192e-04,6.000000000000000000e+00,1.000000000000000000e+01
3.590600000000000000e+04,1.899999999999999834e-04,-2.999999999999999737e-05,-6.999999999999999387e-05,-5.999999999999999474e-05,-6.499999999999999702e-04,-1.199999999999999895e-04,9.000000000000000567e-05,4.000000000000000192e-04,6.000000000000000000e+00,1.000000000000000000e+01
3.590700000000000000e+04,1.899999999999999834e-04,-2.999999999999999737e-05,-6.999999999999999387e-05,-5.999999999999999474e-05,-6.499999999999999702e-04,-1.199999999999999895e-04,9.000000000000000567e-05,4.000000000000000192e-04,6.000000000000000000e+00,1.000000000000000000e+01
3.590800000000000000e+04,1.899999999999999834e-04,-2.999999999999999737e-05,-6.999999999999999387e-05,-5.999999999999999474e-05,-6.499999999999999702e-04,-1.199999999999999895e-04,9.000000000000000567e-05,4.000000000000000192e-04,6.000000000000000000e+00,1.000000000000000000e+01
3.590900000000000000e+04,1.899999999999999834e-04,-2.999999999999999737e-05,-6.999999999999999387e-05,-5.999999999999999474e-05,-6.499999999999999702e-04,-1.199999999999999895e-04,9.000000000000000567e-05,4.000000000000000192e-04,6.000000000000000000e+00,1.000000000000000000e+01
3.591000000000000000e+04,1.899999999999999834e-04,-2.999999999999999737e-05,-6.999999999999999387e-05,-5.999999999999999474e-05,-6.499999999999999702e-04,-1.199999999999999895e-04,9.000000000000000567e-05,4.000000000000000192e-04,6.000000000000000000e+00,1.000000000000000000e+01
3.591100000000000000e+04,1.899999999999999834e-04,-2.999999999999999737e-05,-6.999999999999999387e-05,-5.999999999999999474e-05,-6.499999999999999702e-04,-1.199999999999999895e-04,9.000000000000000567e-05,4.000000000000000192e-04,6.000000000000000000e+00,1.000000000000000000e+01
3.591200000000000000e+04,1.899999999999999834e-04,-2.999999999999999737e-05,-6.999999999999999387e-05,-5.999999999999999474e-05,-6.499999999999999702e-04,-1.199999999999999895e-04,9.000000000000000567e-05,4.000000000000000192e-04,6.000000000000000000e+00,1.000000000000000000e+01
3.591300000000000000e+04,1.899999999999999834e-04,-2.999999999999999737e-05,-6.999999999999999387e-05,-5.999999999999999474e-05,-6.499999999999999702e-04,-1.199999999999999895e-04,9.000000000000000567e-05,4.000000000000000192e-04,6.000000000000000000e+00,1.000000000000000000e+01
3.591400000000000000e+04,1.899999999999999834e-04,-2.999999999999999737e-05,-6.999999999999999387e-05,-5.999999999999999474e-05,-6.499999999999999702e-04,-1.199999999999999895e-04,9.000000000000000567e-05,4.000000000000000192e-04,6.000000000000000000e+00,1.000000000000000000e+01
3.591500000000000000e+04,1.899999999999999834e-04,-2.999999999999999737e-05,-6.999999999999999387e-05,-5.999999999999999474e-05,-6.499999999999999702e-04,-1.199999999999999895e-04,9.000000000000000567e-05,4.000000000000000192e-04,6.000000000000000000e+00,1.000000000000000000e+01
3.591600000000000000e+04,1.899999999999999834e-04,-2.999999999999999737e-05,-6.999999999999999387e-05,-5.999999999999999474e-05,-6.499999999999999702e-04,-1.199999999999999895e-04,9.000000000000000567e-05,4.000000000000000192e-04,6.000000000000000000e+00,1.000000000000000000e+01
3.591700000000000000e+04,1.899999999999999834e-04,-2.999999999999999737e-05,-6.999999999999999387e-05,-5.999999999999999474e-05,-6.499999999999999702e-04,-1.199999999999999895e-04,9.000000000000000567e-05,4.000000000000000192e-04,6.000000000000000000e+00,1.000000000000000000e+01
3.591800000000000000e+04,1.899999999999999834e-04,-2.999999999999999737e-05,-6.999999999999999387e-05,-5.999999999999999474e-05,-6.499999999999999702e-04,-1.199999999999999895e-04,9.000000000000000567e-05,4.000000000000000192e-04,6.000000000000000000e+00,1.000000000000000000e+01
3.591900000000000000e+04,1.899999999999999834e-04,-2.999999999999999737e-05,-6.999999999999999387e-05,-5.999999999999999474e-05,-6.499999999999999702e-04,-1.199999999999999895e-04,9.000000000000000567e-05,4.000000000000000192e-04,6.000000000000000000e+00,1.000000000000000000e+01
3.592000000000000000e+04,1.899999999999999834e-04,-2.999999999999999737e-05,-6.999999999999999387e-05,-5.999999999999999474e-05,-6.499999999999999702e-04,-1.199999999999999895e-04,9.000000000000000567e-05,4.000000000000000192e-04,6.000000000000000000e+00,1.000000000000000000e+01
3.592100000000000000e+04,1.899999999999999834e-04,-2.999999999999999737e-05,-6.999999999999999387e-05,-5.999999999999999474e-05,-6.499999999999999702e-04,-1.199999999999999895e-04,9.000000000000000567e-05,4.000000000000000192e-04,6.000000000000000000e+00,1.000000000000000000e+01
3.592200000000000000e+04,1.899999999999999834e-04,-2.999999999999999737e-05,-6.999999999999999387e-05,-5.999999999999999474e-05,-6.499999999999999702e-04,-1.199999999999999895e-04,9.000000000000000567e-05,4.000000000000000192e-04,6.000000000000000000e+00,1.000000000000000000e+01
3.592300000000000000e+04,1.899999999999999834e-04,-2.999999999999999737e-05,-6.999999999999999387e-05,-5.999999999999999474e-05,-6.499999999999999702e-04,-1.199999999999999895e-04,9.000000000000000567e-05,4.000000000000000192e-04,6.000000000000000000e+00,1.000000000000000000e+01
3.592400000000000000e+04,1.899999999999999834e-04,-2.999999999999999737e-05,-6.999999999999999387e-05,-5.999999999999999474e-05,-6.499999999999999702e-04,-1.199999999999999895e-04,9.000000000000000567e-05,4.000000000000000192e-04,6.000000000000000000e+00,1.000000000000000000e+01
3.592500000000000000e+04,1.899999999999999834e-04,-2.999999999999999737e-05,-6.999999999999999387e-05,-5.999999999999999474e-05,-6.499999999999999702e-04,-1.199999999999999895e-04,9.000000000000000567e-05,4.000000000000000192e-04,6.000000000000000000e+00,1.000000000000000000e+01
3.592600000000000000e+04,4.000000000000000327e-05,9.000000000000000567e-05,2.100000000000000087e-04,6.099999999999999737e-04,4.299999999999999894e-04,-1.899999999999999834e-04,-6.999999999999999387e-05,-1.399999999999999877e-04,6.000000000000000000e+00,1.000000000000000000e+01
3.592700000000000000e+04,1.800000000000000113e-04,-4.000000000000000327e-05,-8.000000000000000654e-05,6.999999999999999387e-05,2.399999999999999790e-04,-2.000000000000000164e-05,1.300000000000000157e-04,2.399999999999999790e-04,6.000000000000000000e+00,1.000000000000000000e+01
3.592800000000000000e+04,1.800000000000000113e-04,-4.000000000000000327e-05,-8.000000000000000654e-05,6.999999999999999387e-05,2.399999999999999790e-04,-2.000000000000000164e-05,1.300000000000000157e-04,2.399999999999999790e-04,6.000000000000000000e+00,1.000000000000000000e+01
3.592900000000000000e+04,1.800000000000000113e-04,-4.000000000000000327e-05,-8.000000000000000654e-05,6.999999999999999387e-05,2.399999999999999790e-04,-2.000000000000000164e-05,1.300000000000000157e-04,2.399999999999999790e-04,6.000000000000000000e+00,1.000000000000000000e+01
3.593000000000000000e+04,1.800000000000000113e-04,-4.000000000000000327e-05,-8.000000000000000654e-05,6.999999999999999387e-05,2.399999999999999790e-04,-2.000000000000000164e-05,1.300000000000000157e-04,2.399999999999999790e-04,6.000000000000000000e+00,1.000000000000000000e+01
3.593100000000000000e+04,1.800000000000000113e-04,-4.000000000000000327e-05,-8.000000000000000654e-05,6.999999999999999387e-05,2.399999999999999790e-04,-2.000000000000000164e-05,1.300000000000000157e-04,2.399999999999999790e-04,6.000000000000000000e+00,1.000000000000000000e+01
3.593200000000000000e+04,1.800000000000000113e-04,-4.000000000000000327e-05,-8.000000000000000654e-05,6.999999999999999387e-05,2.399999999999999790e-04,-2.000000000000000164e-05,1.300000000000000157e-04,2.399999999999999790e-04,6.000000000000000000e+00,1.000000000000000000e+01
3.593300000000000000e+04,1.800000000000000113e-04,-4.000000000000000327e-05,-8.000000000000000654e-05,6.999999999999999387e-05,2.399999999999999790e-04,-2.000000000000000164e-05,1.300000000000000157e-04,2.399999999999999790e-04,6.000000000000000000e+00,1.000000000000000000e+01
3.593400000000000000e+04,1.800000000000000113e-04,-4.000000000000000327e-05,-8.000000000000000654e-05,6.999999999999999387e-05,2.399999999999999790e-04,-2.000000000000000164e-05,1.300000000000000157e-04,2.399999999999999790e-04,6.000000000000000000e+00,1.000000000000000000e+01
3.593500000000000000e+04,1.800000000000000113e-04,-4.000000000000000327e-05,-8.000000000000000654e-05,6.999999999999999387e-05,2.399999999999999790e-04,-2.000000000000000164e-05,1.300000000000000157e-04,2.399999999999999790e-04,6.000000000000000000e+00,1.000000000000000000e+01
3.593600000000000000e+04,1.800000000000000113e-04,-4.000000000000000327e-05,-8.000000000000000654e-05,6.999999999999999387e-05,2.399999999999999790e-04,-2.000000000000000164e-05,1.300000000000000157e-04,2.399999999999999790e-04,6.000000000000000000e+00,1.000000000000000000e+01
3.593800000000000000e+04,1.800000000000000113e-04,-4.000000000000000327e-05,-8.000000000000000654e-05,6.999999999999999387e-05,2.399999999999999790e-04,-2.000000000000000164e-05,1.300000000000000157e-04,2.399999999999999790e-04,6.000000000000000000e+00,1.000000000000000000e+01
3.593900000000000000e+04,1.800000000000000113e-04,-4.000000000000000327e-05,-8.000000000000000654e-05,6.999999999999999387e-05,2.399999999999999790e-04,-2.000000000000000164e-05,1.300000000000000157e-04,2.399999999999999790e-04,6.000000000000000000e+00,1.000000000000000000e+01
3.594000000000000000e+04,1.800000000000000113e-04,-4.000000000000000327e-05,-8.000000000000000654e-05,6.999999999999999387e-05,2.399999999999999790e-04,-2.000000000000000164e-05,1.300000000000000157e-04,2.399999999999999790e-04,6.000000000000000000e+00,1.000000000000000000e+01
3.594100000000000000e+04,-2.000000000000000164e-05,-1.000000000000000082e-05,-5.000000000000000240e-05,2.999999999999999737e-04,1.260000000000000052e-03,2.100000000000000087e-04,1.199999999999999895e-04,2.200000000000000078e-04,6.000000000000000000e+00,1.000000000000000000e+01
3.594200000000000000e+04,1.199999999999999895e-04,-5.999999999999999474e-05,-5.999999999999999474e-05,-2.000000000000000096e-04,1.000000000000000082e-05,6.499999999999999702e-04,-1.499999999999999869e-04,3.299999999999999982e-04,6.000000000000000000e+00,1.000000000000000000e+01
3.594300000000000000e+04,2.000000000000000164e-05,-2.000000000000000164e-05,-5.999999999999999474e-05,-2.999999999999999737e-05,3.399999999999999702e-04,-4.000000000000000192e-04,-1.000000000000000048e-04,1.600000000000000131e-04,6.000000000000000000e+00,1.000000000000000000e+01
3.594400000000000000e+04,2.000000000000000164e-05,-2.000000000000000164e-05,-5.999999999999999474e-05,-2.999999999999999737e-05,3.399999999999999702e-04,-4.000000000000000192e-04,-1.000000000000000048e-04,1.600000000000000131e-04,6.000000000000000000e+00,1.000000000000000000e+01
3.594500000000000000e+04,2.000000000000000164e-05,-2.000000000000000164e-05,-5.999999999999999474e-05,-2.999999999999999737e-05,3.399999999999999702e-04,-4.000000000000000192e-04,-1.000000000000000048e-04,1.600000000000000131e-04,6.000000000000000000e+00,1.000000000000000000e+01
3.594600000000000000e+04,2.000000000000000164e-05,-2.000000000000000164e-05,-5.999999999999999474e-05,-2.999999999999999737e-05,3.399999999999999702e-04,-4.000000000000000192e-04,-1.000000000000000048e-04,1.600000000000000131e-04,6.000000000000000000e+00,1.000000000000000000e+01
3.594700000000000000e+04,2.000000000000000164e-05,-2.000000000000000164e-05,-5.999999999999999474e-05,-2.999999999999999737e-05,3.399999999999999702e-04,-4.000000000000000192e-04,-1.000000000000000048e-04,1.600000000000000131e-04,6.000000000000000000e+00,1.000000000000000000e+01
3.594800000000000000e+04,2.000000000000000164e-05,-2.000000000000000164e-05,-5.999999999999999474e-05,-2.999999999999999737e-05,3.399999999999999702e-04,-4.000000000000000192e-04,-1.000000000000000048e-04,1.600000000000000131e-04,6.000000000000000000e+00,1.000000000000000000e+01
3.594900000000000000e+04,2.000000000000000164e-05,-2.000000000000000164e-05,-5.999999999999999474e-05,-2.999999999999999737e-05,3.399999999999999702e-04,-4.000000000000000192e-04,-1.000000000000000048e-04,1.600000000000000131e-04,6.000000000000000000e+00,1.000000000000000000e+01
3.595000000000000000e+04,2.000000000000000164e-05,-2.000000000000000164e-05,-5.999999999999999474e-05,-2.999999999999999737e-05,3.399999999999999702e-04,-4.000000000000000192e-04,-1.000000000000000048e-04,1.600000000000000131e-04,6.000000000000000000e+00,1.000000000000000000e+01
3.595100000000000000e+04,2.000000000000000164e-05,-2.000000000000000164e-05,-5.999999999999999474e-05,-2.999999999999999737e-05,3.399999999999999702e-04,-4.000000000000000192e-04,-1.000000000000000048e-04,1.600000000000000131e-04,6.000000000000000000e+00,1.000000000000000000e+01
3.595200000000000000e+04,2.000000000000000164e-05,-2.000000000000000164e-05,-5.999999999999999474e-05,-2.999999999999999737e-05,3.399999999999999702e-04,-4.000000000000000192e-04,-1.000000000000000048e-04,1.600000000000000131e-04,6.000000000000000000e+00,1.000000000000000000e+01
3.595300000000000000e+04,2.000000000000000164e-05,-2.000000000000000164e-05,-5.999999999999999474e-05,-2.999999999999999737e-05,3.399999999999999702e-04,-4.000000000000000192e-04,-1.000000000000000048e-04,1.600000000000000131e-04,6.000000000000000000e+00,1.000000000000000000e+01
3.595400000000000000e+04,2.000000000000000164e-05,-2.000000000000000164e-05,-5.999999999999999474e-05,-2.999999999999999737e-05,3.399999999999999702e-04,-4.000000000000000192e-04,-1.000000000000000048e-04,1.600000000000000131e-04,6.000000000000000000e+00,1.000000000000000000e+01
3.595500000000000000e+04,2.000000000000000164e-05,-2.000000000000000164e-05,-5.999999999999999474e-05,-2.999999999999999737e-05,3.399999999999999702e-04,-4.000000000000000192e-04,-1.000000000000000048e-04,1.600000000000000131e-04,6.000000000000000000e+00,1.000000000000000000e+01
3.595600000000000000e+04,2.000000000000000164e-05,-2.000000000000000164e-05,-5.999999999999999474e-05,-2.999999999999999737e-05,3.399999999999999702e-04,-4.000000000000000192e-04,-1.000000000000000048e-04,1.600000000000000131e-04,6.000000000000000000e+00,1.000000000000000000e+01
3.595700000000000000e+04,2.000000000000000164e-05,-2.000000000000000164e-05,-5.999999999999999474e-05,-2.999999999999999737e-05,3.399999999999999702e-04,-4.000000000000000192e-04,-1.000000000000000048e-04,1.600000000000000131e-04,6.000000000000000000e+00,1.000000000000000000e+01
3.595800000000000000e+04,2.000000000000000164e-05,-2.000000000000000164e-05,-5.999999999999999474e-05,-2.999999999999999737e-05,3.399999999999999702e-04,-4.000000000000000192e-04,-1.000000000000000048e-04,1.600000000000000131e-04,6.000000000000000000e+00,1.000000000000000000e+01
3.595900000000000000e+04,2.000000000000000164e-05,-2.000000000000000164e-05,-5.999999999999999474e-05,-2.999999999999999737e-05,3.399999999999999702e-04,-4.000000000000000192e-04,-1.000000000000000048e-04,1.600000000000000131e-04,6.000000000000000000e+00,1.000000000000000000e+01
3.596000000000000000e+04,2.000000000000000164e-05,-2.000000000000000164e-05,-5.999999999999999474e-05,-2.999999999999999737e-05,3.399999999999999702e-04,-4.000000000000000192e-04,-1.000000000000000048e-04,1.600000000000000131e-04,6.000000000000000000e+00,1.000000000000000000e+01
3.596100000000000000e+04,2.000000000000000164e-05,-2.000000000000000164e-05,-5.999999999999999474e-05,-2.999999999999999737e-05,3.399999999999999702e-04,-4.000000000000000192e-04,-1.000000000000000048e-04,1.600000000000000131e-04,6.000000000000000000e+00,1.000000000000000000e+01
3.596200000000000000e+04,2.000000000000000164e-05,-2.000000000000000164e-05,-5.999999999999999474e-05,-2.999999999999999737e-05,3.399999999999999702e-04,-4.000000000000000192e-04,-1.000000000000000048e-04,1.600000000000000131e-04,6.000000000000000000e+00,1.000000000000000000e+01
3.596300000000000000e+04,2.000000000000000164e-05,-2.000000000000000164e-05,-5.999999999999999474e-05,-2.999999999999999737e-05,3.399999999999999702e-04,-4.000000000000000192e-04,-1.000000000000000048e-04,1.600000000000000131e-04,6.000000000000000000e+00,1.000000000000000000e+01
3.596400000000000000e+04,-6.999999999999999387e-05,2.000000000000000164e-05,4.000000000000000327e-05,-3.799999999999999667e-04,-9.599999999999999159e-04,-1.199999999999999895e-04,-9.000000000000000567e-05,-1.499999999999999869e-04,6.000000000000000000e+00,1.000000000000000000e+01
3.596500000000000000e+04,-5.299999999999999807e-04,-5.000000000000000240e-05,-8.000000000000000654e-05,-1.199999999999999895e-04,-6.300000000000000261e-04,-4.799999999999999580e-04,-3.299999999999999982e-04,-8.599999999999999789e-04,6.000000000000000000e+00,1.000000000000000000e+01
3.596600000000000000e+04,-5.299999999999999807e-04,-5.000000000000000240e-05,-8.000000000000000654e-05,-1.199999999999999895e-04,-6.300000000000000261e-04,-4.799999999999999580e-04,-3.299999999999999982e-04,-8.599999999999999789e-04,6.000000000000000000e+00,1.000000000000000000e+01
3.596700000000000000e+04,-5.299999999999999807e-04,-5.000000000000000240e-05,-8.000000000000000654e-05,-1.199999999999999895e-04,-6.300000000000000261e-04,-4.799999999999999580e-04,-3.299999999999999982e-04,-8.599999999999999789e-04,6.000000000000000000e+00,1.000000000000000000e+01
3.596800000000000000e+04,-5.299999999999999807e-04,-5.000000000000000240e-05,-8.000000000000000654e-05,-1.199999999999999895e-04,-6.300000000000000261e-04,-4.799999999999999580e-04,-3.299999999999999982e-04,-8.599999999999999789e-04,6.000000000000000000e+00,1.000000000000000000e+01
3.596900000000000000e+04,-5.299999999999999807e-04,-5.000000000000000240e-05,-8.000000000000000654e-05,-1.199999999999999895e-04,-6.300000000000000261e-04,-4.799999999999999580e-04,-3.299999999999999982e-04,-8.599999999999999789e-04,6.000000000000000000e+00,1.000000000000000000e+01
3.597000000000000000e+04,-5.299999999999999807e-04,-5.000000000000000240e-05,-8.000000000000000654e-05,-1.199999999999999895e-04,-6.300000000000000261e-04,-4.799999999999999580e-04,-3.299999999999999982e-04,-8.599999999999999789e-04,6.000000000000000000e+00,1.000000000000000000e+01
3.597100000000000000e+04,-5.299999999999999807e-04,-5.000000000000000240e-05,-8.000000000000000654e-05,-1.199999999999999895e-04,-6.300000000000000261e-04,-4.799999999999999580e-04,-3.299999999999999982e-04,-8.599999999999999789e-04,6.000000000000000000e+00,1.000000000000000000e+01
3.597200000000000000e+04,-5.299999999999999807e-04,-5.000000000000000240e-05,-8.000000000000000654e-05,-1.199999999999999895e-04,-6.300000000000000261e-04,-4.799999999999999580e-04,-3.299999999999999982e-04,-8.599999999999999789e-04,6.000000000000000000e+00,1.000000000000000000e+01
3.597300000000000000e+04,-5.299999999999999807e-04,-5.000000000000000240e-05,-8.000000000000000654e-05,-1.199999999999999895e-04,-6.300000000000000261e-04,-4.799999999999999580e-04,-3.299999999999999982e-04,-8.599999999999999789e-04,6.000000000000000000e+00,1.000000000000000000e+01
3.597400000000000000e+04,-5.299999999999999807e-04,-5.000000000000000240e-05,-8.000000000000000654e-05,-1.199999999999999895e-04,-6.300000000000000261e-04,-4.799999999999999580e-04,-3.299999999999999982e-04,-8.599999999999999789e-04,6.000000000000000000e+00,1.000000000000000000e+01
3.597500000000000000e+04,-5.299999999999999807e-04,-5.000000000000000240e-05,-8.000000000000000654e-05,-1.199999999999999895e-04,-6.300000000000000261e-04,-4.799999999999999580e-04,-3.299999999999999982e-04,-8.599999999999999789e-04,6.000000000000000000e+00,1.000000000000000000e+01
3.597600000000000000e+04,-5.299999999999999807e-04,-5.000000000000000240e-05,-8.000000000000000654e-05,-1.199999999999999895e-04,-6.300000000000000261e-04,-4.799999999999999580e-04,-3.299999999999999982e-04,-8.599999999999999789e-04,6.000000000000000000e+00,1.000000000000000000e+01
3.597700000000000000e+04,-5.299999999999999807e-04,-5.000000000000000240e-05,-8.000000000000000654e-05,-1.199999999999999895e-04,-6.300000000000000261e-04,-4.799999999999999580e-04,-3.299999999999999982e-04,-8.599999999999999789e-04,6.000000000000000000e+00,1.000000000000000000e+01
3.597800000000000000e+04,-5.299999999999999807e-04,-5.000000000000000240e-05,-8.000000000000000654e-05,-1.199999999999999895e-04,-6.300000000000000261e-04,-4.799999999999999580e-04,-3.299999999999999982e-04,-8.599999999999999789e-04,6.000000000000000000e+00,1.000000000000000000e+01
3.597900000000000000e+04,-5.299999999999999807e-04,-5.000000000000000240e-05,-8.000000000000000654e-05,-1.199999999999999895e-04,-6.300000000000000261e-04,-4.799999999999999580e-04,-3.299999999999999982e-04,-8.599999999999999789e-04,6.000000000000000000e+00,1.000000000000000000e+01
3.598000000000000000e+04,-5.299999999999999807e-04,-5.000000000000000240e-05,-8.000000000000000654e-05,-1.199999999999999895e-04,-6.300000000000000261e-04,-4.799999999999999580e-04,-3.299999999999999982e-04,-8.599999999999999789e-04,6.000000000000000000e+00,1.000000000000000000e+01
3.598100000000000000e+04,-5.299999999999999807e-04,-5.000000000000000240e-05,-8.000000000000000654e-05,-1.199999999999999895e-04,-6.300000000000000261e-04,-4.799999999999999580e-04,-3.299999999999999982e-04,-8.599999999999999789e-04,6.000000000000000000e+00,1.000000000000000000e+01
3.598200000000000000e+04,-5.299999999999999807e-04,-5.000000000000000240e-05,-8.000000000000000654e-05,-1.199999999999999895e-04,-6.300000000000000261e-04,-4.799999999999999580e-04,-3.299999999999999982e-04,-8.599999999999999789e-04,6.000000000000000000e+00,1.000000000000000000e+01
3.598300000000000000e+04,-5.299999999999999807e-04,-5.000000000000000240e-05,-8.000000000000000654e-05,-1.199999999999999895e-04,-6.300000000000000261e-04,-4.799999999999999580e-04,-3.299999999999999982e-04,-8.599999999999999789e-04,6.000000000000000000e+00,1.000000000000000000e+01
3.598400000000000000e+04,-5.299999999999999807e-04,-5.000000000000000240e-05,-8.000000000000000654e-05,-1.199999999999999895e-04,-6.300000000000000261e-04,-4.799999999999999580e-04,-3.299999999999999982e-04,-8.599999999999999789e-04,6.000000000000000000e+00,1.000000000000000000e+01
3.598500000000000000e+04,-5.299999999999999807e-04,-5.000000000000000240e-05,-8.000000000000000654e-05,-1.199999999999999895e-04,-6.300000000000000261e-04,-4.799999999999999580e-04,-3.299999999999999982e-04,-8.599999999999999789e-04,6.000000000000000000e+00,1.000000000000000000e+01
3.598600000000000000e+04,2.999999999999999737e-05,2.000000000000000164e-05,1.000000000000000048e-04,1.399999999999999877e-04,4.099999999999999912e-04,6.999999999999999387e-05,1.800000000000000113e-04,3.699999999999999947e-04,6.000000000000000000e+00,1.000000000000000000e+01
3.598800000000000000e+04,2.600000000000000314e-04,-6.999999999999999387e-05,-4.000000000000000327e-05,1.100000000000000039e-04,2.999999999999999737e-05,-1.199999999999999895e-04,-9.000000000000000567e-05,-2.000000000000000164e-05,6.000000000000000000e+00,1.000000000000000000e+01
3.598900000000000000e+04,2.600000000000000314e-04,-6.999999999999999387e-05,-4.000000000000000327e-05,1.100000000000000039e-04,2.999999999999999737e-05,-1.199999999999999895e-04,-9.000000000000000567e-05,-2.000000000000000164e-05,6.000000000000000000e+00,1.000000000000000000e+01
3.599000000000000000e+04,2.600000000000000314e-04,-6.999999999999999387e-05,-4.000000000000000327e-05,1.100000000000000039e-04,2.999999999999999737e-05,-1.199999999999999895e-04,-9.000000000000000567e-05,-2.000000000000000164e-05,6.000000000000000000e+00,1.000000000000000000e+01
3.599100000000000000e+04,2.600000000000000314e-04,-6.999999999999999387e-05,-4.000000000000000327e-05,1.100000000000000039e-04,2.999999999999999737e-05,-1.199999999999999895e-04,-9.000000000000000567e-05,-2.000000000000000164e-05,6.000000000000000000e+00,1.000000000000000000e+01
3.599200000000000000e+04,2.600000000000000314e-04,-6.999999999999999387e-05,-4.000000000000000327e-05,1.100000000000000039e-04,2.999999999999999737e-05,-1.199999999999999895e-04,-9.000000000000000567e-05,-2.000000000000000164e-05,6.000000000000000000e+00,1.000000000000000000e+01
3.599300000000000000e+04,2.600000000000000314e-04,-6.999999999999999387e-05,-4.000000000000000327e-05,1.100000000000000039e-04,2.999999999999999737e-05,-1.199999999999999895e-04,-9.000000000000000567e-05,-2.000000000000000164e-05,6.000000000000000000e+00,1.000000000000000000e+01
3.599400000000000000e+04,2.600000000000000314e-04,-6.999999999999999387e-05,-4.000000000000000327e-05,1.100000000000000039e-04,2.999999999999999737e-05,-1.199999999999999895e-04,-9.000000000000000567e-05,-2.000000000000000164e-05,6.000000000000000000e+00,1.000000000000000000e+01
3.599500000000000000e+04,2.600000000000000314e-04,-6.999999999999999387e-05,-4.000000000000000327e-05,1.100000000000000039e-04,2.999999999999999737e-05,-1.199999999999999895e-04,-9.000000000000000567e-05,-2.000000000000000164e-05,6.000000000000000000e+00,1.000000000000000000e+01
3.599600000000000000e+04,2.600000000000000314e-04,-6.999999999999999387e-05,-4.000000000000000327e-05,1.100000000000000039e-04,2.999999999999999737e-05,-1.199999999999999895e-04,-9.000000000000000567e-05,-2.000000000000000164e-05,6.000000000000000000e+00,1.000000000000000000e+01
3.599700000000000000e+04,2.600000000000000314e-04,-6.999999999999999387e-05,-4.000000000000000327e-05,1.100000000000000039e-04,2.999999999999999737e-05,-1.199999999999999895e-04,-9.000000000000000567e-05,-2.000000000000000164e-05,6.000000000000000000e+00,1.000000000000000000e+01
3.599800000000000000e+04,2.600000000000000314e-04,-6.999999999999999387e-05,-4.000000000000000327e-05,1.100000000000000039e-04,2.999999999999999737e-05,-1.199999999999999895e-04,-9.000000000000000567e-05,-2.000000000000000164e-05,6.000000000000000000e+00,1.000000000000000000e+01
3.599900000000000000e+04,2.600000000000000314e-04,-6.999999999999999387e-05,-4.000000000000000327e-05,1.100000000000000039e-04,2.999999999999999737e-05,-1.199999999999999895e-04,-9.000000000000000567e-05,-2.000000000000000164e-05,6.000000000000000000e+00,1.000000000000000000e+01
3.600000000000000000e+04,-1.199999999999999895e-04,-4.000000000000000327e-05,-1.499999999999999869e-04,-4.799999999999999580e-04,2.200000000000000078e-04,-1.300000000000000157e-04,5.999999999999999474e-05,-4.000000000000000327e-05,6.000000000000000000e+00,1.000000000000000000e+01
3.600100000000000000e+04,-1.199999999999999895e-04,-4.000000000000000327e-05,-1.499999999999999869e-04,-4.799999999999999580e-04,2.200000000000000078e-04,-1.300000000000000157e-04,5.999999999999999474e-05,-4.000000000000000327e-05,6.000000000000000000e+00,1.000000000000000000e+01
3.600200000000000000e+04,-1.199999999999999895e-04,-4.000000000000000327e-05,-1.499999999999999869e-04,-4.799999999999999580e-04,2.200000000000000078e-04,-1.300000000000000157e-04,5.999999999999999474e-05,-4.000000000000000327e-05,6.000000000000000000e+00,1.000000000000000000e+01
3.600300000000000000e+04,-1.199999999999999895e-04,-4.000000000000000327e-05,-1.499999999999999869e-04,-4.799999999999999580e-04,2.200000000000000078e-04,-1.300000000000000157e-04,5.999999999999999474e-05,-4.000000000000000327e-05,6.000000000000000000e+00,1.000000000000000000e+01
3.600400000000000000e+04,-1.199999999999999895e-04,-4.000000000000000327e-05,-1.499999999999999869e-04,-4.799999999999999580e-04,2.200000000000000078e-04,-1.300000000000000157e-04,5.999999999999999474e-05,-4.000000000000000327e-05,6.000000000000000000e+00,1.000000000000000000e+01
3.600500000000000000e+04,-1.199999999999999895e-04,-4.000000000000000327e-05,-1.499999999999999869e-04,-4.799999999999999580e-04,2.200000000000000078e-04,-1.300000000000000157e-04,5.999999999999999474e-05,-4.000000000000000327e-05,6.000000000000000000e+00,1.000000000000000000e+01
3.600600000000000000e+04,-1.199999999999999895e-04,-4.000000000000000327e-05,-1.499999999999999869e-04,-4.799999999999999580e-04,2.200000000000000078e-04,-1.300000000000000157e-04,5.999999999999999474e-05,-4.000000000000000327e-05,6.000000000000000000e+00,1.000000000000000000e+01
3.600700000000000000e+04,1.399999999999999877e-04,1.000000000000000082e-05,0.000000000000000000e+00,-8.000000000000000654e-05,1.499999999999999869e-04,-1.600000000000000131e-04,2.100000000000000087e-04,5.599999999999999509e-04,6.000000000000000000e+00,1.000000000000000000e+01
3.600800000000000000e+04,1.399999999999999877e-04,1.000000000000000082e-05,0.000000000000000000e+00,-8.000000000000000654e-05,1.499999999999999869e-04,-1.600000000000000131e-04,2.100000000000000087e-04,5.599999999999999509e-04,6.000000000000000000e+00,1.000000000000000000e+01
3.600900000000000000e+04,1.399999999999999877e-04,1.000000000000000082e-05,0.000000000000000000e+00,-8.000000000000000654e-05,1.499999999999999869e-04,-1.600000000000000131e-04,2.100000000000000087e-04,5.599999999999999509e-04,6.000000000000000000e+00,1.000000000000000000e+01
3.601000000000000000e+04,1.399999999999999877e-04,1.000000000000000082e-05,0.000000000000000000e+00,-8.000000000000000654e-05,1.499999999999999869e-04,-1.600000000000000131e-04,2.100000000000000087e-04,5.599999999999999509e-04,6.000000000000000000e+00,1.000000000000000000e+01
3.601100000000000000e+04,1.399999999999999877e-04,1.000000000000000082e-05,0.000000000000000000e+00,-8.000000000000000654e-05,1.499999999999999869e-04,-1.600000000000000131e-04,2.100000000000000087e-04,5.599999999999999509e-04,6.000000000000000000e+00,1.000000000000000000e+01
3.601200000000000000e+04,1.399999999999999877e-04,1.000000000000000082e-05,0.000000000000000000e+00,-8.000000000000000654e-05,1.499999999999999869e-04,-1.600000000000000131e-04,2.100000000000000087e-04,5.599999999999999509e-04,6.000000000000000000e+00,1.000000000000000000e+01
3.601300000000000000e+04,1.399999999999999877e-04,1.000000000000000082e-05,0.000000000000000000e+00,-8.000000000000000654e-05,1.499999999999999869e-04,-1.600000000000000131e-04,2.100000000000000087e-04,5.599999999999999509e-04,6.000000000000000000e+00,1.000000000000000000e+01
3.601400000000000000e+04,1.399999999999999877e-04,1.000000000000000082e-05,0.000000000000000000e+00,-8.000000000000000654e-05,1.499999999999999869e-04,-1.600000000000000131e-04,2.100000000000000087e-04,5.599999999999999509e-04,6.000000000000000000e+00,1.000000000000000000e+01
3.601500000000000000e+04,1.399999999999999877e-04,1.000000000000000082e-05,0.000000000000000000e+00,-8.000000000000000654e-05,1.499999999999999869e-04,-1.600000000000000131e-04,2.100000000000000087e-04,5.599999999999999509e-04,6.000000000000000000e+00,1.000000000000000000e+01
3.601600000000000000e+04,1.399999999999999877e-04,1.000000000000000082e-05,0.000000000000000000e+00,-8.000000000000000654e-05,1.499999999999999869e-04,-1.600000000000000131e-04,2.100000000000000087e-04,5.599999999999999509e-04,6.000000000000000000e+00,1.000000000000000000e+01
3.601700000000000000e+04,1.399999999999999877e-04,1.000000000000000082e-05,0.000000000000000000e+00,-8.000000000000000654e-05,1.499999999999999869e-04,-1.600000000000000131e-04,2.100000000000000087e-04,5.599999999999999509e-04,6.000000000000000000e+00,1.000000000000000000e+01
3.601800000000000000e+04,1.399999999999999877e-04,1.000000000000000082e-05,0.000000000000000000e+00,-8.000000000000000654e-05,1.499999999999999869e-04,-1.600000000000000131e-04,2.100000000000000087e-04,5.599999999999999509e-04,6.000000000000000000e+00,1.000000000000000000e+01
3.601900000000000000e+04,1.399999999999999877e-04,1.000000000000000082e-05,0.000000000000000000e+00,-8.000000000000000654e-05,1.499999999999999869e-04,-1.600000000000000131e-04,2.100000000000000087e-04,5.599999999999999509e-04,6.000000000000000000e+00,1.000000000000000000e+01
3.602000000000000000e+04,1.399999999999999877e-04,1.000000000000000082e-05,0.000000000000000000e+00,-8.000000000000000654e-05,1.499999999999999869e-04,-1.600000000000000131e-04,2.100000000000000087e-04,5.599999999999999509e-04,6.000000000000000000e+00,1.000000000000000000e+01
3.602100000000000000e+04,1.399999999999999877e-04,1.000000000000000082e-05,0.000000000000000000e+00,-8.000000000000000654e-05,1.499999999999999869e-04,-1.600000000000000131e-04,2.100000000000000087e-04,5.599999999999999509e-04,6.000000000000000000e+00,1.000000000000000000e+01
3.602200000000000000e+04,1.399999999999999877e-04,1.000000000000000082e-05,0.000000000000000000e+00,-8.000000000000000654e-05,1.499999999999999869e-04,-1.600000000000000131e-04,2.100000000000000087e-04,5.599999999999999509e-04,6.000000000000000000e+00,1.000000000000000000e+01
3.602300000000000000e+04,1.499999999999999869e-04,2.999999999999999737e-05,0.000000000000000000e+00,2.299999999999999799e-04,8.000000000000000654e-05,2.000000000000000164e-05,-1.699999999999999851e-04,2.100000000000000087e-04,6.000000000000000000e+00,1.000000000000000000e+01
3.602400000000000000e+04,1.499999999999999869e-04,2.999999999999999737e-05,0.000000000000000000e+00,2.299999999999999799e-04,8.000000000000000654e-05,2.000000000000000164e-05,-1.699999999999999851e-04,2.100000000000000087e-04,6.000000000000000000e+00,1.000000000000000000e+01
3.602500000000000000e+04,2.000000000000000096e-04,0.000000000000000000e+00,5.999999999999999474e-05,4.299999999999999894e-04,5.299999999999999807e-04,6.799999999999999404e-04,2.500000000000000052e-04,1.800000000000000113e-04,6.000000000000000000e+00,1.000000000000000000e+01
3.602600000000000000e+04,2.000000000000000096e-04,0.000000000000000000e+00,5.999999999999999474e-05,4.299999999999999894e-04,5.299999999999999807e-04,6.799999999999999404e-04,2.500000000000000052e-04,1.800000000000000113e-04,6.000000000000000000e+00,1.000000000000000000e+01
3.602700000000000000e+04,2.000000000000000096e-04,0.000000000000000000e+00,5.999999999999999474e-05,4.299999999999999894e-04,5.299999999999999807e-04,6.799999999999999404e-04,2.500000000000000052e-04,1.800000000000000113e-04,6.000000000000000000e+00,1.000000000000000000e+01
3.602800000000000000e+04,2.000000000000000096e-04,0.000000000000000000e+00,5.999999999999999474e-05,4.299999999999999894e-04,5.299999999999999807e-04,6.799999999999999404e-04,2.500000000000000052e-04,1.800000000000000113e-04,6.000000000000000000e+00,1.000000000000000000e+01
3.602900000000000000e+04,2.000000000000000096e-04,0.000000000000000000e+00,5.999999999999999474e-05,4.299999999999999894e-04,5.299999999999999807e-04,6.799999999999999404e-04,2.500000000000000052e-04,1.800000000000000113e-04,6.000000000000000000e+00,1.000000000000000000e+01
3.603000000000000000e+04,2.000000000000000096e-04,0.000000000000000000e+00,5.999999999999999474e-05,4.299999999999999894e-04,5.299999999999999807e-04,6.799999999999999404e-04,2.500000000000000052e-04,1.800000000000000113e-04,6.000000000000000000e+00,1.000000000000000000e+01
3.603100000000000000e+04,2.000000000000000096e-04,0.000000000000000000e+00,5.999999999999999474e-05,4.299999999999999894e-04,5.299999999999999807e-04,6.799999999999999404e-04,2.500000000000000052e-04,1.800000000000000113e-04,6.000000000000000000e+00,1.000000000000000000e+01
3.603200000000000000e+04,2.000000000000000096e-04,0.000000000000000000e+00,5.999999999999999474e-05,4.299999999999999894e-04,5.299999999999999807e-04,6.799999999999999404e-04,2.500000000000000052e-04,1.800000000000000113e-04,6.000000000000000000e+00,1.000000000000000000e+01
3.603300000000000000e+04,2.000000000000000096e-04,0.000000000000000000e+00,5.999999999999999474e-05,4.299999999999999894e-04,5.299999999999999807e-04,6.799999999999999404e-04,2.500000000000000052e-04,1.800000000000000113e-04,6.000000000000000000e+00,1.000000000000000000e+01
3.603400000000000000e+04,2.000000000000000096e-04,0.000000000000000000e+00,5.999999999999999474e-05,4.299999999999999894e-04,5.299999999999999807e-04,6.799999999999999404e-04,2.500000000000000052e-04,1.800000000000000113e-04,6.000000000000000000e+00,1.000000000000000000e+01
3.603500000000000000e+04,2.000000000000000096e-04,0.000000000000000000e+00,5.999999999999999474e-05,4.299999999999999894e-04,5.299999999999999807e-04,6.799999999999999404e-04,2.500000000000000052e-04,1.800000000000000113e-04,6.000000000000000000e+00,1.000000000000000000e+01
3.603600000000000000e+04,2.000000000000000096e-04,0.000000000000000000e+00,5.999999999999999474e-05,4.299999999999999894e-04,5.299999999999999807e-04,6.799999999999999404e-04,2.500000000000000052e-04,1.800000000000000113e-04,6.000000000000000000e+00,1.000000000000000000e+01
3.603800000000000000e+04,2.000000000000000096e-04,0.000000000000000000e+00,5.999999999999999474e-05,4.299999999999999894e-04,5.299999999999999807e-04,6.799999999999999404e-04,2.500000000000000052e-04,1.800000000000000113e-04,6.000000000000000000e+00,1.000000000000000000e+01
3.603900000000000000e+04,2.000000000000000096e-04,0.000000000000000000e+00,5.999999999999999474e-05,4.299999999999999894e-04,5.299999999999999807e-04,6.799999999999999404e-04,2.500000000000000052e-04,1.800000000000000113e-04,6.000000000000000000e+00,1.000000000000000000e+01
3.604000000000000000e+04,2.000000000000000096e-04,0.000000000000000000e+00,5.999999999999999474e-05,4.299999999999999894e-04,5.299999999999999807e-04,6.799999999999999404e-04,2.500000000000000052e-04,1.800000000000000113e-04,6.000000000000000000e+00,1.000000000000000000e+01
3.604100000000000000e+04,2.000000000000000096e-04,0.000000000000000000e+00,5.999999999999999474e-05,4.299999999999999894e-04,5.299999999999999807e-04,6.799999999999999404e-04,2.500000000000000052e-04,1.800000000000000113e-04,6.000000000000000000e+00,1.000000000000000000e+01
3.604200000000000000e+04,2.000000000000000096e-04,0.000000000000000000e+00,5.999999999999999474e-05,4.299999999999999894e-04,5.299999999999999807e-04,6.799999999999999404e-04,2.500000000000000052e-04,1.800000000000000113e-04,6.000000000000000000e+00,1.000000000000000000e+01
3.604300000000000000e+04,2.000000000000000096e-04,0.000000000000000000e+00,5.999999999999999474e-05,4.299999999999999894e-04,5.299999999999999807e-04,6.799999999999999404e-04,2.500000000000000052e-04,1.800000000000000113e-04,6.000000000000000000e+00,1.000000000000000000e+01
3.604400000000000000e+04,2.000000000000000096e-04,0.000000000000000000e+00,5.999999999999999474e-05,4.299999999999999894e-04,5.299999999999999807e-04,6.799999999999999404e-04,2.500000000000000052e-04,1.800000000000000113e-04,6.000000000000000000e+00,1.000000000000000000e+01
3.604500000000000000e+04,2.000000000000000096e-04,0.000000000000000000e+00,5.999999999999999474e-05,4.299999999999999894e-04,5.299999999999999807e-04,6.799999999999999404e-04,2.500000000000000052e-04,1.800000000000000113e-04,6.000000000000000000e+00,1.000000000000000000e+01
3.604600000000000000e+04,2.000000000000000096e-04,0.000000000000000000e+00,5.999999999999999474e-05,4.299999999999999894e-04,5.299999999999999807e-04,6.799999999999999404e-04,2.500000000000000052e-04,1.800000000000000113e-04,6.000000000000000000e+00,1.000000000000000000e+01
3.604700000000000000e+04,-2.000000000000000164e-05,-6.999999999999999387e-05,-1.000000000000000048e-04,-1.800000000000000113e-04,1.100000000000000039e-04,-2.000000000000000164e-05,-1.100000000000000039e-04,9.000000000000000567e-05,6.000000000000000000e+00,1.000000000000000000e+01
3.604800000000000000e+04,5.999999999999999474e-05,-1.000000000000000082e-05,8.000000000000000654e-05,2.000000000000000164e-05,-5.400000000000000069e-04,-1.100000000000000039e-04,1.300000000000000157e-04,-3.099999999999999999e-04,6.000000000000000000e+00,1.000000000000000000e+01
3.604900000000000000e+04,5.999999999999999474e-05,-1.000000000000000082e-05,8.000000000000000654e-05,2.000000000000000164e-05,-5.400000000000000069e-04,-1.100000000000000039e-04,1.300000000000000157e-04,-3.099999999999999999e-04,6.000000000000000000e+00,1.000000000000000000e+01
3.605000000000000000e+04,5.999999999999999474e-05,-1.000000000000000082e-05,8.000000000000000654e-05,2.000000000000000164e-05,-5.400000000000000069e-04,-1.100000000000000039e-04,1.300000000000000157e-04,-3.099999999999999999e-04,6.000000000000000000e+00,1.000000000000000000e+01
3.605100000000000000e+04,5.999999999999999474e-05,-1.000000000000000082e-05,8.000000000000000654e-05,2.000000000000000164e-05,-5.400000000000000069e-04,-1.100000000000000039e-04,1.300000000000000157e-04,-3.099999999999999999e-04,6.000000000000000000e+00,1.000000000000000000e+01
3.605200000000000000e+04,5.999999999999999474e-05,-1.000000000000000082e-05,8.000000000000000654e-05,2.000000000000000164e-05,-5.400000000000000069e-04,-1.100000000000000039e-04,1.300000000000000157e-04,-3.099999999999999999e-04,6.000000000000000000e+00,1.000000000000000000e+01
3.605300000000000000e+04,5.999999999999999474e-05,-1.000000000000000082e-05,8.000000000000000654e-05,2.000000000000000164e-05,-5.400000000000000069e-04,-1.100000000000000039e-04,1.300000000000000157e-04,-3.099999999999999999e-04,6.000000000000000000e+00,1.000000000000000000e+01
3.605400000000000000e+04,5.999999999999999474e-05,-1.000000000000000082e-05,8.000000000000000654e-05,2.000000000000000164e-05,-5.400000000000000069e-04,-1.100000000000000039e-04,1.300000000000000157e-04,-3.099999999999999999e-04,6.000000000000000000e+00,1.000000000000000000e+01
3.605500000000000000e+04,5.999999999999999474e-05,-1.000000000000000082e-05,8.000000000000000654e-05,2.000000000000000164e-05,-5.400000000000000069e-04,-1.100000000000000039e-04,1.300000000000000157e-04,-3.099999999999999999e-04,6.000000000000000000e+00,1.000000000000000000e+01
3.605600000000000000e+04,5.999999999999999474e-05,-1.000000000000000082e-05,8.000000000000000654e-05,2.000000000000000164e-05,-5.400000000000000069e-04,-1.100000000000000039e-04,1.300000000000000157e-04,-3.099999999999999999e-04,6.000000000000000000e+00,1.000000000000000000e+01
3.605700000000000000e+04,5.999999999999999474e-05,-1.000000000000000082e-05,8.000000000000000654e-05,2.000000000000000164e-05,-5.400000000000000069e-04,-1.100000000000000039e-04,1.300000000000000157e-04,-3.099999999999999999e-04,6.000000000000000000e+00,1.000000000000000000e+01
3.605800000000000000e+04,5.999999999999999474e-05,-1.000000000000000082e-05,8.000000000000000654e-05,2.000000000000000164e-05,-5.400000000000000069e-04,-1.100000000000000039e-04,1.300000000000000157e-04,-3.099999999999999999e-04,6.000000000000000000e+00,1.000000000000000000e+01
3.605900000000000000e+04,5.999999999999999474e-05,-1.000000000000000082e-05,8.000000000000000654e-05,2.000000000000000164e-05,-5.400000000000000069e-04,-1.100000000000000039e-04,1.300000000000000157e-04,-3.099999999999999999e-04,6.000000000000000000e+00,1.000000000000000000e+01
3.606000000000000000e+04,-2.399999999999999790e-04,-9.000000000000000567e-05,-1.199999999999999895e-04,8.000000000000000654e-05,-2.000000000000000164e-05,1.800000000000000113e-04,-5.000000000000000240e-05,-7.500000000000000156e-04,6.000000000000000000e+00,1.000000000000000000e+01
3.606100000000000000e+04,-2.399999999999999790e-04,-9.000000000000000567e-05,-1.199999999999999895e-04,8.000000000000000654e-05,-2.000000000000000164e-05,1.800000000000000113e-04,-5.000000000000000240e-05,-7.500000000000000156e-04,6.000000000000000000e+00,1.000000000000000000e+01
3.606200000000000000e+04,-2.399999999999999790e-04,-9.000000000000000567e-05,-1.199999999999999895e-04,8.000000000000000654e-05,-2.000000000000000164e-05,1.800000000000000113e-04,-5.000000000000000240e-05,-7.500000000000000156e-04,6.000000000000000000e+00,1.000000000000000000e+01
3.606300000000000000e+04,-2.399999999999999790e-04,-9.000000000000000567e-05,-1.199999999999999895e-04,8.000000000000000654e-05,-2.000000000000000164e-05,1.800000000000000113e-04,-5.000000000000000240e-05,-7.500000000000000156e-04,6.000000000000000000e+00,1.000000000000000000e+01
3.606400000000000000e+04,-2.399999999999999790e-04,-9.000000000000000567e-05,-1.199999999999999895e-04,8.000000000000000654e-05,-2.000000000000000164e-05,1.800000000000000113e-04,-5.000000000000000240e-05,-7.500000000000000156e-04,6.000000000000000000e+00,1.000000000000000000e+01
3.606500000000000000e+04,-2.399999999999999790e-04,-9.000000000000000567e-05,-1.199999999999999895e-04,8.000000000000000654e-05,-2.000000000000000164e-05,1.800000000000000113e-04,-5.000000000000000240e-05,-7.500000000000000156e-04,6.000000000000000000e+00,1.000000000000000000e+01
3.606600000000000000e+04,-2.399999999999999790e-04,-9.000000000000000567e-05,-1.199999999999999895e-04,8.000000000000000654e-05,-2.000000000000000164e-05,1.800000000000000113e-04,-5.000000000000000240e-05,-7.500000000000000156e-04,6.000000000000000000e+00,1.000000000000000000e+01
3.606700000000000000e+04,5.000000000000000240e-05,0.000000000000000000e+00,-5.000000000000000240e-05,-1.000000000000000048e-04,1.100000000000000039e-04,-2.500000000000000052e-04,-2.700000000000000035e-04,1.899999999999999834e-04,6.000000000000000000e+00,1.000000000000000000e+01
3.606800000000000000e+04,5.000000000000000240e-05,0.000000000000000000e+00,-5.000000000000000240e-05,-1.000000000000000048e-04,1.100000000000000039e-04,-2.500000000000000052e-04,-2.700000000000000035e-04,1.899999999999999834e-04,6.000000000000000000e+00,1.000000000000000000e+01
3.606900000000000000e+04,5.000000000000000240e-05,0.000000000000000000e+00,-5.000000000000000240e-05,-1.000000000000000048e-04,1.100000000000000039e-04,-2.500000000000000052e-04,-2.700000000000000035e-04,1.899999999999999834e-04,6.000000000000000000e+00,1.000000000000000000e+01
3.607000000000000000e+04,5.000000000000000240e-05,0.000000000000000000e+00,-5.000000000000000240e-05,-1.000000000000000048e-04,1.100000000000000039e-04,-2.500000000000000052e-04,-2.700000000000000035e-04,1.899999999999999834e-04,6.000000000000000000e+00,1.000000000000000000e+01
3.607100000000000000e+04,5.000000000000000240e-05,0.000000000000000000e+00,-5.000000000000000240e-05,-1.000000000000000048e-04,1.100000000000000039e-04,-2.500000000000000052e-04,-2.700000000000000035e-04,1.899999999999999834e-04,6.000000000000000000e+00,1.000000000000000000e+01
3.607200000000000000e+04,5.000000000000000240e-05,0.000000000000000000e+00,-5.000000000000000240e-05,-1.000000000000000048e-04,1.100000000000000039e-04,-2.500000000000000052e-04,-2.700000000000000035e-04,1.899999999999999834e-04,6.000000000000000000e+00,1.000000000000000000e+01
3.607300000000000000e+04,5.000000000000000240e-05,0.000000000000000000e+00,-5.000000000000000240e-05,-1.000000000000000048e-04,1.100000000000000039e-04,-2.500000000000000052e-04,-2.700000000000000035e-04,1.899999999999999834e-04,6.000000000000000000e+00,1.000000000000000000e+01
3.607400000000000000e+04,5.000000000000000240e-05,0.000000000000000000e+00,-5.000000000000000240e-05,-1.000000000000000048e-04,1.100000000000000039e-04,-2.500000000000000052e-04,-2.700000000000000035e-04,1.899999999999999834e-04,6.000000000000000000e+00,1.000000000000000000e+01
3.607500000000000000e+04,5.000000000000000240e-05,0.000000000000000000e+00,-5.000000000000000240e-05,-1.000000000000000048e-04,1.100000000000000039e-04,-2.500000000000000052e-04,-2.700000000000000035e-04,1.899999999999999834e-04,6.000000000000000000e+00,1.000000000000000000e+01
3.607600000000000000e+04,5.000000000000000240e-05,0.000000000000000000e+00,-5.000000000000000240e-05,-1.000000000000000048e-04,1.100000000000000039e-04,-2.500000000000000052e-04,-2.700000000000000035e-04,1.899999999999999834e-04,6.000000000000000000e+00,1.000000000000000000e+01
3.607700000000000000e+04,5.000000000000000240e-05,0.000000000000000000e+00,-5.000000000000000240e-05,-1.000000000000000048e-04,1.100000000000000039e-04,-2.500000000000000052e-04,-2.700000000000000035e-04,1.899999999999999834e-04,6.000000000000000000e+00,1.000000000000000000e+01
3.607800000000000000e+04,5.000000000000000240e-05,0.000000000000000000e+00,-5.000000000000000240e-05,-1.000000000000000048e-04,1.100000000000000039e-04,-2.500000000000000052e-04,-2.700000000000000035e-04,1.899999999999999834e-04,6.000000000000000000e+00,1.000000000000000000e+01
3.607900000000000000e+04,5.000000000000000240e-05,0.000000000000000000e+00,-5.000000000000000240e-05,-1.000000000000000048e-04,1.100000000000000039e-04,-2.500000000000000052e-04,-2.700000000000000035e-04,1.899999999999999834e-04,6.000000000000000000e+00,1.000000000000000000e+01
3.608000000000000000e+04,5.000000000000000240e-05,0.000000000000000000e+00,-5.000000000000000240e-05,-1.000000000000000048e-04,1.100000000000000039e-04,-2.500000000000000052e-04,-2.700000000000000035e-04,1.899999999999999834e-04,6.000000000000000000e+00,1.000000000000000000e+01
3.608100000000000000e+04,5.000000000000000240e-05,0.000000000000000000e+00,-5.000000000000000240e-05,-1.000000000000000048e-04,1.100000000000000039e-04,-2.500000000000000052e-04,-2.700000000000000035e-04,1.899999999999999834e-04,6.000000000000000000e+00,1.000000000000000000e+01
3.608200000000000000e+04,5.000000000000000240e-05,0.000000000000000000e+00,-5.000000000000000240e-05,-1.000000000000000048e-04,1.100000000000000039e-04,-2.500000000000000052e-04,-2.700000000000000035e-04,1.899999999999999834e-04,6.000000000000000000e+00,1.000000000000000000e+01
3.608300000000000000e+04,1.499999999999999869e-04,-4.000000000000000327e-05,-5.999999999999999474e-05,-9.000000000000000567e-05,-1.899999999999999834e-04,-4.099999999999999912e-04,2.000000000000000164e-05,9.000000000000000567e-05,6.000000000000000000e+00,1.000000000000000000e+01
3.608400000000000000e+04,-7.700000000000000681e-04,4.000000000000000327e-05,1.899999999999999834e-04,-5.000000000000000240e-05,-6.599999999999999964e-04,-2.999999999999999737e-05,-2.999999999999999737e-05,-7.700000000000000681e-04,6.000000000000000000e+00,1.000000000000000000e+01
3.608500000000000000e+04,-1.699999999999999851e-04,1.000000000000000082e-05,-1.000000000000000082e-05,-2.799999999999999755e-04,7.099999999999999107e-04,7.700000000000000681e-04,9.000000000000000567e-05,-6.300000000000000261e-04,6.000000000000000000e+00,1.000000000000000000e+01
3.608600000000000000e+04,-1.699999999999999851e-04,1.000000000000000082e-05,-1.000000000000000082e-05,-2.799999999999999755e-04,7.099999999999999107e-04,7.700000000000000681e-04,9.000000000000000567e-05,-6.300000000000000261e-04,6.000000000000000000e+00,1.000000000000000000e+01
3.608800000000000000e+04,-1.699999999999999851e-04,1.000000000000000082e-05,-1.000000000000000082e-05,-2.799999999999999755e-04,7.099999999999999107e-04,7.700000000000000681e-04,9.000000000000000567e-05,-6.300000000000000261e-04,6.000000000000000000e+00,1.000000000000000000e+01
3.608900000000000000e+04,-1.699999999999999851e-04,1.000000000000000082e-05,-1.000000000000000082e-05,-2.799999999999999755e-04,7.099999999999999107e-04,7.700000000000000681e-04,9.000000000000000567e-05,-6.300000000000000261e-04,6.000000000000000000e+00,1.000000000000000000e+01
3.609000000000000000e+04,-1.699999999999999851e-04,1.000000000000000082e-05,-1.000000000000000082e-05,-2.799999999999999755e-04,7.099999999999999107e-04,7.700000000000000681e-04,9.000000000000000567e-05,-6.300000000000000261e-04,6.000000000000000000e+00,1.000000000000000000e+01
3.609100000000000000e+04,-1.699999999999999851e-04,1.000000000000000082e-05,-1.000000000000000082e-05,-2.799999999999999755e-04,7.099999999999999107e-04,7.700000000000000681e-04,9.000000000000000567e-05,-6.300000000000000261e-04,6.000000000000000000e+00,1.000000000000000000e+01
3.609200000000000000e+04,-1.699999999999999851e-04,1.000000000000000082e-05,-1.000000000000000082e-05,-2.799999999999999755e-04,7.099999999999999107e-04,7.700000000000000681e-04,9.000000000000000567e-05,-6.300000000000000261e-04,6.000000000000000000e+00,1.000000000000000000e+01
3.609300000000000000e+04,-1.699999999999999851e-04,1.000000000000000082e-05,-1.000000000000000082e-05,-2.799999999999999755e-04,7.099999999999999107e-04,7.700000000000000681e-04,9.000000000000000567e-05,-6.300000000000000261e-04,6.000000000000000000e+00,1.000000000000000000e+01
3.609400000000000000e+04,-1.699999999999999851e-04,1.000000000000000082e-05,-1.000000000000000082e-05,-2.799999999999999755e-04,7.099999999999999107e-04,7.700000000000000681e-04,9.000000000000000567e-05,-6.300000000000000261e-04,6.000000000000000000e+00,1.000000000000000000e+01
3.609500000000000000e+04,-1.699999999999999851e-04,1.000000000000000082e-05,-1.000000000000000082e-05,-2.799999999999999755e-04,7.099999999999999107e-04,7.700000000000000681e-04,9.000000000000000567e-05,-6.300000000000000261e-04,6.000000000000000000e+00,1.000000000000000000e+01
3.609600000000000000e+04,-1.699999999999999851e-04,1.000000000000000082e-05,-1.000000000000000082e-05,-2.799999999999999755e-04,7.099999999999999107e-04,7.700000000000000681e-04,9.000000000000000567e-05,-6.300000000000000261e-04,6.000000000000000000e+00,1.000000000000000000e+01
3.609700000000000000e+04,-1.699999999999999851e-04,1.000000000000000082e-05,-1.000000000000000082e-05,-2.799999999999999755e-04,7.099999999999999107e-04,7.700000000000000681e-04,9.000000000000000567e-05,-6.300000000000000261e-04,6.000000000000000000e+00,1.000000000000000000e+01
3.609800000000000000e+04,-1.699999999999999851e-04,1.000000000000000082e-05,-1.000000000000000082e-05,-2.799999999999999755e-04,7.099999999999999107e-04,7.700000000000000681e-04,9.000000000000000567e-05,-6.300000000000000261e-04,6.000000000000000000e+00,1.000000000000000000e+01
3.609900000000000000e+04,-1.699999999999999851e-04,1.000000000000000082e-05,-1.000000000000000082e-05,-2.799999999999999755e-04,7.099999999999999107e-04,7.700000000000000681e-04,9.000000000000000567e-05,-6.300000000000000261e-04,6.000000000000000000e+00,1.000000000000000000e+01
3.610000000000000000e+04,-1.699999999999999851e-04,1.000000000000000082e-05,-1.000000000000000082e-05,-2.799999999999999755e-04,7.099999999999999107e-04,7.700000000000000681e-04,9.000000000000000567e-05,-6.300000000000000261e-04,6.000000000000000000e+00,1.000000000000000000e+01
3.610100000000000000e+04,-1.699999999999999851e-04,1.000000000000000082e-05,-1.000000000000000082e-05,-2.799999999999999755e-04,7.099999999999999107e-04,7.700000000000000681e-04,9.000000000000000567e-05,-6.300000000000000261e-04,6.000000000000000000e+00,1.000000000000000000e+01
3.610200000000000000e+04,-1.699999999999999851e-04,1.000000000000000082e-05,-1.000000000000000082e-05,-2.799999999999999755e-04,7.099999999999999107e-04,7.700000000000000681e-04,9.000000000000000567e-05,-6.300000000000000261e-04,6.000000000000000000e+00,1.000000000000000000e+01
3.610300000000000000e+04,-1.699999999999999851e-04,1.000000000000000082e-05,-1.000000000000000082e-05,-2.799999999999999755e-04,7.099999999999999107e-04,7.700000000000000681e-04,9.000000000000000567e-05,-6.300000000000000261e-04,6.000000000000000000e+00,1.000000000000000000e+01
3.610400000000000000e+04,-1.699999999999999851e-04,1.000000000000000082e-05,-1.000000000000000082e-05,-2.799999999999999755e-04,7.099999999999999107e-04,7.700000000000000681e-04,9.000000000000000567e-05,-6.300000000000000261e-04,6.000000000000000000e+00,1.000000000000000000e+01
3.610500000000000000e+04,-1.699999999999999851e-04,1.000000000000000082e-05,-1.000000000000000082e-05,-2.799999999999999755e-04,7.099999999999999107e-04,7.700000000000000681e-04,9.000000000000000567e-05,-6.300000000000000261e-04,6.000000000000000000e+00,1.000000000000000000e+01
3.610600000000000000e+04,4.200000000000000174e-04,1.000000000000000082e-05,-4.000000000000000327e-05,-1.100000000000000039e-04,-5.800000000000000034e-04,-2.100000000000000087e-04,-1.300000000000000157e-04,4.599999999999999597e-04,6.000000000000000000e+00,1.000000000000000000e+01
3.610700000000000000e+04,-1.899999999999999834e-04,-1.000000000000000082e-05,-5.000000000000000240e-05,-2.600000000000000314e-04,-2.999999999999999737e-05,-5.000000000000000240e-05,4.299999999999999894e-04,-1.000000000000000048e-04,6.000000000000000000e+00,1.000000000000000000e+01
3.610800000000000000e+04,-1.899999999999999834e-04,-1.000000000000000082e-05,-5.000000000000000240e-05,-2.600000000000000314e-04,-2.999999999999999737e-05,-5.000000000000000240e-05,4.299999999999999894e-04,-1.000000000000000048e-04,6.000000000000000000e+00,1.000000000000000000e+01
3.610900000000000000e+04,-1.899999999999999834e-04,-1.000000000000000082e-05,-5.000000000000000240e-05,-2.600000000000000314e-04,-2.999999999999999737e-05,-5.000000000000000240e-05,4.299999999999999894e-04,-1.000000000000000048e-04,6.000000000000000000e+00,1.000000000000000000e+01
3.611000000000000000e+04,-1.899999999999999834e-04,-1.000000000000000082e-05,-5.000000000000000240e-05,-2.600000000000000314e-04,-2.999999999999999737e-05,-5.000000000000000240e-05,4.299999999999999894e-04,-1.000000000000000048e-04,6.000000000000000000e+00,1.000000000000000000e+01
3.611100000000000000e+04,-1.899999999999999834e-04,-1.000000000000000082e-05,-5.000000000000000240e-05,-2.600000000000000314e-04,-2.999999999999999737e-05,-5.000000000000000240e-05,4.299999999999999894e-04,-1.000000000000000048e-04,6.000000000000000000e+00,1.000000000000000000e+01
3.611200000000000000e+04,-1.899999999999999834e-04,-1.000000000000000082e-05,-5.000000000000000240e-05,-2.600000000000000314e-04,-2.999999999999999737e-05,-5.000000000000000240e-05,4.299999999999999894e-04,-1.000000000000000048e-04,6.000000000000000000e+00,1.000000000000000000e+01
3.611300000000000000e+04,-1.899999999999999834e-04,-1.000000000000000082e-05,-5.000000000000000240e-05,-2.600000000000000314e-04,-2.999999999999999737e-05,-5.000000000000000240e-05,4.299999999999999894e-04,-1.000000000000000048e-04,6.000000000000000000e+00,1.000000000000000000e+01
3.611400000000000000e+04,-1.899999999999999834e-04,-1.000000000000000082e-05,-5.000000000000000240e-05,-2.600000000000000314e-04,-2.999999999999999737e-05,-5.000000000000000240e-05,4.299999999999999894e-04,-1.000000000000000048e-04,6.000000000000000000e+00,1.000000000000000000e+01
3.611500000000000000e+04,-1.899999999999999834e-04,-1.000000000000000082e-05,-5.000000000000000240e-05,-2.600000000000000314e-04,-2.999999999999999737e-05,-5.000000000000000240e-05,4.299999999999999894e-04,-1.000000000000000048e-04,6.000000000000000000e+00,1.000000000000000000e+01
3.611600000000000000e+04,-1.899999999999999834e-04,-1.000000000000000082e-05,-5.000000000000000240e-05,-2.600000000000000314e-04,-2.999999999999999737e-05,-5.000000000000000240e-05,4.299999999999999894e-04,-1.000000000000000048e-04,6.000000000000000000e+00,1.000000000000000000e+01
3.611700000000000000e+04,-1.899999999999999834e-04,-1.000000000000000082e-05,-5.000000000000000240e-05,-2.600000000000000314e-04,-2.999999999999999737e-05,-5.000000000000000240e-05,4.299999999999999894e-04,-1.000000000000000048e-04,6.000000000000000000e+00,1.000000000000000000e+01
3.611800000000000000e+04,-1.899999999999999834e-04,-1.000000000000000082e-05,-5.000000000000000240e-05,-2.600000000000000314e-04,-2.999999999999999737e-05,-5.000000000000000240e-05,4.299999999999999894e-04,-1.000000000000000048e-04,6.000000000000000000e+00,1.000000000000000000e+01
3.611900000000000000e+04,-1.899999999999999834e-04,-1.000000000000000082e-05,-5.000000000000000240e-05,-2.600000000000000314e-04,-2.999999999999999737e-05,-5.000000000000000240e-05,4.299999999999999894e-04,-1.000000000000000048e-04,6.000000000000000000e+00,1.000000000000000000e+01
3.612000000000000000e+04,2.700000000000000035e-04,1.399999999999999877e-04,3.299999999999999982e-04,7.599999999999999334e-04,7.599999999999999334e-04,9.599999999999999159e-04,3.799999999999999667e-04,4.200000000000000174e-04,6.000000000000000000e+00,1.000000000000000000e+01
3.612100000000000000e+04,2.700000000000000035e-04,1.399999999999999877e-04,3.299999999999999982e-04,7.599999999999999334e-04,7.599999999999999334e-04,9.599999999999999159e-04,3.799999999999999667e-04,4.200000000000000174e-04,6.000000000000000000e+00,1.000000000000000000e+01
3.612200000000000000e+04,2.700000000000000035e-04,1.399999999999999877e-04,3.299999999999999982e-04,7.599999999999999334e-04,7.599999999999999334e-04,9.599999999999999159e-04,3.799999999999999667e-04,4.200000000000000174e-04,6.000000000000000000e+00,1.000000000000000000e+01
3.612300000000000000e+04,2.700000000000000035e-04,1.399999999999999877e-04,3.299999999999999982e-04,7.599999999999999334e-04,7.599999999999999334e-04,9.599999999999999159e-04,3.799999999999999667e-04,4.200000000000000174e-04,6.000000000000000000e+00,1.000000000000000000e+01
3.612400000000000000e+04,2.700000000000000035e-04,1.399999999999999877e-04,3.299999999999999982e-04,7.599999999999999334e-04,7.599999999999999334e-04,9.599999999999999159e-04,3.799999999999999667e-04,4.200000000000000174e-04,6.000000000000000000e+00,1.000000000000000000e+01
3.612500000000000000e+04,2.700000000000000035e-04,1.399999999999999877e-04,3.299999999999999982e-04,7.599999999999999334e-04,7.599999999999999334e-04,9.599999999999999159e-04,3.799999999999999667e-04,4.200000000000000174e-04,6.000000000000000000e+00,1.000000000000000000e+01
3.612600000000000000e+04,2.700000000000000035e-04,1.399999999999999877e-04,3.299999999999999982e-04,7.599999999999999334e-04,7.599999999999999334e-04,9.599999999999999159e-04,3.799999999999999667e-04,4.200000000000000174e-04,6.000000000000000000e+00,1.000000000000000000e+01
3.612700000000000000e+04,-6.499999999999999702e-04,-9.000000000000000567e-05,-1.399999999999999877e-04,-1.100000000000000039e-04,2.399999999999999790e-04,2.100000000000000087e-04,-1.699999999999999851e-04,-5.500000000000000331e-04,6.000000000000000000e+00,1.000000000000000000e+01
3.612800000000000000e+04,-6.499999999999999702e-04,-9.000000000000000567e-05,-1.399999999999999877e-04,-1.100000000000000039e-04,2.399999999999999790e-04,2.100000000000000087e-04,-1.699999999999999851e-04,-5.500000000000000331e-04,6.000000000000000000e+00,1.000000000000000000e+01
3.612900000000000000e+04,-6.499999999999999702e-04,-9.000000000000000567e-05,-1.399999999999999877e-04,-1.100000000000000039e-04,2.399999999999999790e-04,2.100000000000000087e-04,-1.699999999999999851e-04,-5.500000000000000331e-04,6.000000000000000000e+00,1.000000000000000000e+01
3.613000000000000000e+04,-6.499999999999999702e-04,-9.000000000000000567e-05,-1.399999999999999877e-04,-1.100000000000000039e-04,2.399999999999999790e-04,2.100000000000000087e-04,-1.699999999999999851e-04,-5.500000000000000331e-04,6.000000000000000000e+00,1.000000000000000000e+01
3.613100000000000000e+04,-6.499999999999999702e-04,-9.000000000000000567e-05,-1.399999999999999877e-04,-1.100000000000000039e-04,2.399999999999999790e-04,2.100000000000000087e-04,-1.699999999999999851e-04,-5.500000000000000331e-04,6.000000000000000000e+00,1.000000000000000000e+01
3.613200000000000000e+04,-6.499999999999999702e-04,-9.000000000000000567e-05,-1.399999999999999877e-04,-1.100000000000000039e-04,2.399999999999999790e-04,2.100000000000000087e-04,-1.699999999999999851e-04,-5.500000000000000331e-04,6.000000000000000000e+00,1.000000000000000000e+01
3.613300000000000000e+04,-6.499999999999999702e-04,-9.000000000000000567e-05,-1.399999999999999877e-04,-1.100000000000000039e-04,2.399999999999999790e-04,2.100000000000000087e-04,-1.699999999999999851e-04,-5.500000000000000331e-04,6.000000000000000000e+00,1.000000000000000000e+01
3.613400000000000000e+04,-6.499999999999999702e-04,-9.000000000000000567e-05,-1.399999999999999877e-04,-1.100000000000000039e-04,2.399999999999999790e-04,2.100000000000000087e-04,-1.699999999999999851e-04,-5.500000000000000331e-04,6.000000000000000000e+00,1.000000000000000000e+01
3.613500000000000000e+04,-6.499999999999999702e-04,-9.000000000000000567e-05,-1.399999999999999877e-04,-1.100000000000000039e-04,2.399999999999999790e-04,2.100000000000000087e-04,-1.699999999999999851e-04,-5.500000000000000331e-04,6.000000000000000000e+00,1.000000000000000000e+01
3.613600000000000000e+04,-6.499999999999999702e-04,-9.000000000000000567e-05,-1.399999999999999877e-04,-1.100000000000000039e-04,2.399999999999999790e-04,2.100000000000000087e-04,-1.699999999999999851e-04,-5.500000000000000331e-04,6.000000000000000000e+00,1.000000000000000000e+01
3.613800000000000000e+04,-6.499999999999999702e-04,-9.000000000000000567e-05,-1.399999999999999877e-04,-1.100000000000000039e-04,2.399999999999999790e-04,2.100000000000000087e-04,-1.699999999999999851e-04,-5.500000000000000331e-04,6.000000000000000000e+00,1.000000000000000000e+01
3.613900000000000000e+04,-6.499999999999999702e-04,-9.000000000000000567e-05,-1.399999999999999877e-04,-1.100000000000000039e-04,2.399999999999999790e-04,2.100000000000000087e-04,-1.699999999999999851e-04,-5.500000000000000331e-04,6.000000000000000000e+00,1.000000000000000000e+01
3.614000000000000000e+04,-6.499999999999999702e-04,-9.000000000000000567e-05,-1.399999999999999877e-04,-1.100000000000000039e-04,2.399999999999999790e-04,2.100000000000000087e-04,-1.699999999999999851e-04,-5.500000000000000331e-04,6.000000000000000000e+00,1.000000000000000000e+01
3.614100000000000000e+04,-6.499999999999999702e-04,-9.000000000000000567e-05,-1.399999999999999877e-04,-1.100000000000000039e-04,2.399999999999999790e-04,2.100000000000000087e-04,-1.699999999999999851e-04,-5.500000000000000331e-04,6.000000000000000000e+00,1.000000000000000000e+01
3.614200000000000000e+04,-6.499999999999999702e-04,-9.000000000000000567e-05,-1.399999999999999877e-04,-1.100000000000000039e-04,2.399999999999999790e-04,2.100000000000000087e-04,-1.699999999999999851e-04,-5.500000000000000331e-04,6.000000000000000000e+00,1.000000000000000000e+01
3.614300000000000000e+04,-6.499999999999999702e-04,-9.000000000000000567e-05,-1.399999999999999877e-04,-1.100000000000000039e-04,2.399999999999999790e-04,2.100000000000000087e-04,-1.699999999999999851e-04,-5.500000000000000331e-04,6.000000000000000000e+00,1.000000000000000000e+01
3.614400000000000000e+04,1.499999999999999869e-04,-1.100000000000000039e-04,-2.000000000000000096e-04,-1.199999999999999895e-04,8.000000000000000654e-05,1.300000000000000157e-04,-3.699999999999999947e-04,-4.000000000000000327e-05,6.000000000000000000e+00,1.000000000000000000e+01
3.614500000000000000e+04,4.000000000000000327e-05,-2.000000000000000164e-05,6.999999999999999387e-05,6.799999999999999404e-04,-2.700000000000000035e-04,1.000000000000000082e-05,2.000000000000000096e-04,2.200000000000000078e-04,6.000000000000000000e+00,1.000000000000000000e+01
3.614600000000000000e+04,4.000000000000000327e-05,-2.000000000000000164e-05,6.999999999999999387e-05,6.799999999999999404e-04,-2.700000000000000035e-04,1.000000000000000082e-05,2.000000000000000096e-04,2.200000000000000078e-04,6.000000000000000000e+00,1.000000000000000000e+01
3.614700000000000000e+04,4.000000000000000327e-05,-2.000000000000000164e-05,6.999999999999999387e-05,6.799999999999999404e-04,-2.700000000000000035e-04,1.000000000000000082e-05,2.000000000000000096e-04,2.200000000000000078e-04,6.000000000000000000e+00,1.000000000000000000e+01
3.614800000000000000e+04,4.000000000000000327e-05,-2.000000000000000164e-05,6.999999999999999387e-05,6.799999999999999404e-04,-2.700000000000000035e-04,1.000000000000000082e-05,2.000000000000000096e-04,2.200000000000000078e-04,6.000000000000000000e+00,1.000000000000000000e+01
3.614900000000000000e+04,4.000000000000000327e-05,-2.000000000000000164e-05,6.999999999999999387e-05,6.799999999999999404e-04,-2.700000000000000035e-04,1.000000000000000082e-05,2.000000000000000096e-04,2.200000000000000078e-04,6.000000000000000000e+00,1.000000000000000000e+01
3.615000000000000000e+04,4.000000000000000327e-05,-2.000000000000000164e-05,6.999999999999999387e-05,6.799999999999999404e-04,-2.700000000000000035e-04,1.000000000000000082e-05,2.000000000000000096e-04,2.200000000000000078e-04,6.000000000000000000e+00,1.000000000000000000e+01
3.615100000000000000e+04,4.000000000000000327e-05,-2.000000000000000164e-05,6.999999999999999387e-05,6.799999999999999404e-04,-2.700000000000000035e-04,1.000000000000000082e-05,2.000000000000000096e-04,2.200000000000000078e-04,6.000000000000000000e+00,1.000000000000000000e+01
3.615200000000000000e+04,4.000000000000000327e-05,-2.000000000000000164e-05,6.999999999999999387e-05,6.799999999999999404e-04,-2.700000000000000035e-04,1.000000000000000082e-05,2.000000000000000096e-04,2.200000000000000078e-04,6.000000000000000000e+00,1.000000000000000000e+01
3.615300000000000000e+04,4.000000000000000327e-05,-2.000000000000000164e-05,6.999999999999999387e-05,6.799999999999999404e-04,-2.700000000000000035e-04,1.000000000000000082e-05,2.000000000000000096e-04,2.200000000000000078e-04,6.000000000000000000e+00,1.000000000000000000e+01
3.615400000000000000e+04,4.000000000000000327e-05,-2.000000000000000164e-05,6.999999999999999387e-05,6.799999999999999404e-04,-2.700000000000000035e-04,1.000000000000000082e-05,2.000000000000000096e-04,2.200000000000000078e-04,6.000000000000000000e+00,1.000000000000000000e+01
3.615500000000000000e+04,4.000000000000000327e-05,-2.000000000000000164e-05,6.999999999999999387e-05,6.799999999999999404e-04,-2.700000000000000035e-04,1.000000000000000082e-05,2.000000000000000096e-04,2.200000000000000078e-04,6.000000000000000000e+00,1.000000000000000000e+01
3.615600000000000000e+04,4.000000000000000327e-05,-2.000000000000000164e-05,6.999999999999999387e-05,6.799999999999999404e-04,-2.700000000000000035e-04,1.000000000000000082e-05,2.000000000000000096e-04,2.200000000000000078e-04,6.000000000000000000e+00,1.000000000000000000e+01
3.615700000000000000e+04,4.000000000000000327e-05,-2.000000000000000164e-05,6.999999999999999387e-05,6.799999999999999404e-04,-2.700000000000000035e-04,1.000000000000000082e-05,2.000000000000000096e-04,2.200000000000000078e-04,6.000000000000000000e+00,1.000000000000000000e+01
3.615800000000000000e+04,4.000000000000000327e-05,-2.000000000000000164e-05,6.999999999999999387e-05,6.799999999999999404e-04,-2.700000000000000035e-04,1.000000000000000082e-05,2.000000000000000096e-04,2.200000000000000078e-04,6.000000000000000000e+00,1.000000000000000000e+01
3.615900000000000000e+04,4.000000000000000327e-05,-2.000000000000000164e-05,6.999999999999999387e-05,6.799999999999999404e-04,-2.700000000000000035e-04,1.000000000000000082e-05,2.000000000000000096e-04,2.200000000000000078e-04,6.000000000000000000e+00,1.000000000000000000e+01
3.616000000000000000e+04,4.000000000000000327e-05,-2.000000000000000164e-05,6.999999999999999387e-05,6.799999999999999404e-04,-2.700000000000000035e-04,1.000000000000000082e-05,2.000000000000000096e-04,2.200000000000000078e-04,6.000000000000000000e+00,1.000000000000000000e+01
3.616100000000000000e+04,4.000000000000000327e-05,-2.000000000000000164e-05,6.999999999999999387e-05,6.799999999999999404e-04,-2.700000000000000035e-04,1.000000000000000082e-05,2.000000000000000096e-04,2.200000000000000078e-04,6.000000000000000000e+00,1.000000000000000000e+01
3.616200000000000000e+04,4.000000000000000327e-05,-2.000000000000000164e-05,6.999999999999999387e-05,6.799999999999999404e-04,-2.700000000000000035e-04,1.000000000000000082e-05,2.000000000000000096e-04,2.200000000000000078e-04,6.000000000000000000e+00,1.000000000000000000e+01
3.616300000000000000e+04,4.000000000000000327e-05,-2.000000000000000164e-05,6.999999999999999387e-05,6.799999999999999404e-04,-2.700000000000000035e-04,1.000000000000000082e-05,2.000000000000000096e-04,2.200000000000000078e-04,6.000000000000000000e+00,1.000000000000000000e+01
3.616400000000000000e+04,4.000000000000000327e-05,-2.000000000000000164e-05,6.999999999999999387e-05,6.799999999999999404e-04,-2.700000000000000035e-04,1.000000000000000082e-05,2.000000000000000096e-04,2.200000000000000078e-04,6.000000000000000000e+00,1.000000000000000000e+01
3.616500000000000000e+04,4.000000000000000327e-05,-2.000000000000000164e-05,6.999999999999999387e-05,6.799999999999999404e-04,-2.700000000000000035e-04,1.000000000000000082e-05,2.000000000000000096e-04,2.200000000000000078e-04,6.000000000000000000e+00,1.000000000000000000e+01
3.616600000000000000e+04,-6.999999999999999387e-05,-2.999999999999999737e-05,-1.600000000000000131e-04,-5.900000000000000296e-04,-2.700000000000000035e-04,-1.699999999999999851e-04,2.999999999999999737e-05,-5.000000000000000240e-05,6.000000000000000000e+00,1.000000000000000000e+01
3.616700000000000000e+04,-6.999999999999999387e-05,-2.999999999999999737e-05,-1.600000000000000131e-04,-5.900000000000000296e-04,-2.700000000000000035e-04,-1.699999999999999851e-04,2.999999999999999737e-05,-5.000000000000000240e-05,6.000000000000000000e+00,1.000000000000000000e+01
3.616800000000000000e+04,1.800000000000000113e-04,4.000000000000000327e-05,1.000000000000000048e-04,6.999999999999999387e-05,-6.099999999999999737e-04,-3.799999999999999667e-04,1.300000000000000157e-04,1.399999999999999877e-04,6.000000000000000000e+00,1.000000000000000000e+01
3.616900000000000000e+04,1.800000000000000113e-04,4.000000000000000327e-05,1.000000000000000048e-04,6.999999999999999387e-05,-6.099999999999999737e-04,-3.799999999999999667e-04,1.300000000000000157e-04,1.399999999999999877e-04,6.000000000000000000e+00,1.000000000000000000e+01
3.617000000000000000e+04,1.800000000000000113e-04,4.000000000000000327e-05,1.000000000000000048e-04,6.999999999999999387e-05,-6.099999999999999737e-04,-3.799999999999999667e-04,1.300000000000000157e-04,1.399999999999999877e-04,6.000000000000000000e+00,1.000000000000000000e+01
3.617100000000000000e+04,1.800000000000000113e-04,4.000000000000000327e-05,1.000000000000000048e-04,6.999999999999999387e-05,-6.099999999999999737e-04,-3.799999999999999667e-04,1.300000000000000157e-04,1.399999999999999877e-04,6.000000000000000000e+00,1.000000000000000000e+01
3.617200000000000000e+04,1.800000000000000113e-04,4.000000000000000327e-05,1.000000000000000048e-04,6.999999999999999387e-05,-6.099999999999999737e-04,-3.799999999999999667e-04,1.300000000000000157e-04,1.399999999999999877e-04,6.000000000000000000e+00,1.000000000000000000e+01
3.617300000000000000e+04,1.800000000000000113e-04,4.000000000000000327e-05,1.000000000000000048e-04,6.999999999999999387e-05,-6.099999999999999737e-04,-3.799999999999999667e-04,1.300000000000000157e-04,1.399999999999999877e-04,6.000000000000000000e+00,1.000000000000000000e+01
3.617400000000000000e+04,1.800000000000000113e-04,4.000000000000000327e-05,1.000000000000000048e-04,6.999999999999999387e-05,-6.099999999999999737e-04,-3.799999999999999667e-04,1.300000000000000157e-04,1.399999999999999877e-04,6.000000000000000000e+00,1.000000000000000000e+01
3.617500000000000000e+04,1.800000000000000113e-04,4.000000000000000327e-05,1.000000000000000048e-04,6.999999999999999387e-05,-6.099999999999999737e-04,-3.799999999999999667e-04,1.300000000000000157e-04,1.399999999999999877e-04,6.000000000000000000e+00,1.000000000000000000e+01
3.617600000000000000e+04,1.800000000000000113e-04,4.000000000000000327e-05,1.000000000000000048e-04,6.999999999999999387e-05,-6.099999999999999737e-04,-3.799999999999999667e-04,1.300000000000000157e-04,1.399999999999999877e-04,6.000000000000000000e+00,1.000000000000000000e+01
3.617700000000000000e+04,1.800000000000000113e-04,4.000000000000000327e-05,1.000000000000000048e-04,6.999999999999999387e-05,-6.099999999999999737e-04,-3.799999999999999667e-04,1.300000000000000157e-04,1.399999999999999877e-04,6.000000000000000000e+00,1.000000000000000000e+01
3.617800000000000000e+04,1.800000000000000113e-04,4.000000000000000327e-05,1.000000000000000048e-04,6.999999999999999387e-05,-6.099999999999999737e-04,-3.799999999999999667e-04,1.300000000000000157e-04,1.399999999999999877e-04,6.000000000000000000e+00,1.000000000000000000e+01
3.617900000000000000e+04,1.800000000000000113e-04,4.000000000000000327e-05,1.000000000000000048e-04,6.999999999999999387e-05,-6.099999999999999737e-04,-3.799999999999999667e-04,1.300000000000000157e-04,1.399999999999999877e-04,6.000000000000000000e+00,1.000000000000000000e+01
3.618000000000000000e+04,1.800000000000000113e-04,4.000000000000000327e-05,1.000000000000000048e-04,6.999999999999999387e-05,-6.099999999999999737e-04,-3.799999999999999667e-04,1.300000000000000157e-04,1.399999999999999877e-04,6.000000000000000000e+00,1.000000000000000000e+01
3.618100000000000000e+04,6.999999999999999387e-05,-2.000000000000000164e-05,-6.999999999999999387e-05,2.500000000000000052e-04,-3.499999999999999964e-04,-6.999999999999999929e-04,-5.999999999999999474e-05,-2.299999999999999799e-04,6.000000000000000000e+00,1.000000000000000000e+01
3.618200000000000000e+04,6.999999999999999387e-05,-2.000000000000000164e-05,-6.999999999999999387e-05,2.500000000000000052e-04,-3.499999999999999964e-04,-6.999999999999999929e-04,-5.999999999999999474e-05,-2.299999999999999799e-04,6.000000000000000000e+00,1.000000000000000000e+01
3.618300000000000000e+04,6.999999999999999387e-05,-2.000000000000000164e-05,-6.999999999999999387e-05,2.500000000000000052e-04,-3.499999999999999964e-04,-6.999999999999999929e-04,-5.999999999999999474e-05,-2.299999999999999799e-04,6.000000000000000000e+00,1.000000000000000000e+01
3.618400000000000000e+04,6.999999999999999387e-05,-2.000000000000000164e-05,-6.999999999999999387e-05,2.500000000000000052e-04,-3.499999999999999964e-04,-6.999999999999999929e-04,-5.999999999999999474e-05,-2.299999999999999799e-04,6.000000000000000000e+00,1.000000000000000000e+01
3.618500000000000000e+04,6.999999999999999387e-05,-2.000000000000000164e-05,-6.999999999999999387e-05,2.500000000000000052e-04,-3.499999999999999964e-04,-6.999999999999999929e-04,-5.999999999999999474e-05,-2.299999999999999799e-04,6.000000000000000000e+00,1.000000000000000000e+01
3.618600000000000000e+04,6.999999999999999387e-05,-2.000000000000000164e-05,-6.999999999999999387e-05,2.500000000000000052e-04,-3.499999999999999964e-04,-6.999999999999999929e-04,-5.999999999999999474e-05,-2.299999999999999799e-04,6.000000000000000000e+00,1.000000000000000000e+01
3.618800000000000000e+04,2.600000000000000314e-04,1.000000000000000082e-05,-5.999999999999999474e-05,-1.000000000000000082e-05,7.200000000000000453e-04,4.700000000000000401e-04,-2.100000000000000087e-04,-1.000000000000000082e-05,6.000000000000000000e+00,1.000000000000000000e+01
3.618900000000000000e+04,2.600000000000000314e-04,1.000000000000000082e-05,-5.999999999999999474e-05,-1.000000000000000082e-05,7.200000000000000453e-04,4.700000000000000401e-04,-2.100000000000000087e-04,-1.000000000000000082e-05,6.000000000000000000e+00,1.000000000000000000e+01
3.619000000000000000e+04,2.600000000000000314e-04,1.000000000000000082e-05,-5.999999999999999474e-05,-1.000000000000000082e-05,7.200000000000000453e-04,4.700000000000000401e-04,-2.100000000000000087e-04,-1.000000000000000082e-05,6.000000000000000000e+00,1.000000000000000000e+01
3.619100000000000000e+04,2.600000000000000314e-04,1.000000000000000082e-05,-5.999999999999999474e-05,-1.000000000000000082e-05,7.200000000000000453e-04,4.700000000000000401e-04,-2.100000000000000087e-04,-1.000000000000000082e-05,6.000000000000000000e+00,1.000000000000000000e+01
3.619200000000000000e+04,2.600000000000000314e-04,1.000000000000000082e-05,-5.999999999999999474e-05,-1.000000000000000082e-05,7.200000000000000453e-04,4.700000000000000401e-04,-2.100000000000000087e-04,-1.000000000000000082e-05,6.000000000000000000e+00,1.000000000000000000e+01
3.619300000000000000e+04,2.600000000000000314e-04,1.000000000000000082e-05,-5.999999999999999474e-05,-1.000000000000000082e-05,7.200000000000000453e-04,4.700000000000000401e-04,-2.100000000000000087e-04,-1.000000000000000082e-05,6.000000000000000000e+00,1.000000000000000000e+01
3.619400000000000000e+04,2.600000000000000314e-04,1.000000000000000082e-05,-5.999999999999999474e-05,-1.000000000000000082e-05,7.200000000000000453e-04,4.700000000000000401e-04,-2.100000000000000087e-04,-1.000000000000000082e-05,6.000000000000000000e+00,1.000000000000000000e+01
3.619500000000000000e+04,2.600000000000000314e-04,1.000000000000000082e-05,-5.999999999999999474e-05,-1.000000000000000082e-05,7.200000000000000453e-04,4.700000000000000401e-04,-2.100000000000000087e-04,-1.000000000000000082e-05,6.000000000000000000e+00,1.000000000000000000e+01
3.619600000000000000e+04,2.600000000000000314e-04,1.000000000000000082e-05,-5.999999999999999474e-05,-1.000000000000000082e-05,7.200000000000000453e-04,4.700000000000000401e-04,-2.100000000000000087e-04,-1.000000000000000082e-05,6.000000000000000000e+00,1.000000000000000000e+01
3.619700000000000000e+04,2.600000000000000314e-04,1.000000000000000082e-05,-5.999999999999999474e-05,-1.000000000000000082e-05,7.200000000000000453e-04,4.700000000000000401e-04,-2.100000000000000087e-04,-1.000000000000000082e-05,6.000000000000000000e+00,1.000000000000000000e+01
3.619800000000000000e+04,2.600000000000000314e-04,1.000000000000000082e-05,-5.999999999999999474e-05,-1.000000000000000082e-05,7.200000000000000453e-04,4.700000000000000401e-04,-2.100000000000000087e-04,-1.000000000000000082e-05,6.000000000000000000e+00,1.000000000000000000e+01
