2.578400000000000000e+04,1.499999999999999869e-04,-2.000000000000000096e-04,-3.499999999999999964e-04,-9.000000000000000567e-05,-2.700000000000000035e-04,-1.300000000000000157e-04,-9.000000000000000567e-05,-2.999999999999999737e-05,5.000000000000000000e+00,9.000000000000000000e+00
2.578500000000000000e+04,1.499999999999999869e-04,-2.000000000000000096e-04,-3.499999999999999964e-04,-9.000000000000000567e-05,-2.700000000000000035e-04,-1.300000000000000157e-04,-9.000000000000000567e-05,-2.999999999999999737e-05,5.000000000000000000e+00,9.000000000000000000e+00
2.578600000000000000e+04,1.499999999999999869e-04,-2.000000000000000096e-04,-3.499999999999999964e-04,-9.000000000000000567e-05,-2.700000000000000035e-04,-1.300000000000000157e-04,-9.000000000000000567e-05,-2.999999999999999737e-05,5.000000000000000000e+00,9.000000000000000000e+00
2.578800000000000000e+04,1.499999999999999869e-04,-2.000000000000000096e-04,-3.499999999999999964e-04,-9.000000000000000567e-05,-2.700000000000000035e-04,-1.300000000000000157e-04,-9.000000000000000567e-05,-2.999999999999999737e-05,5.000000000000000000e+00,9.000000000000000000e+00
2.578900000000000000e+04,1.499999999999999869e-04,-2.000000000000000096e-04,-3.499999999999999964e-04,-9.000000000000000567e-05,-2.700000000000000035e-04,-1.300000000000000157e-04,-9.000000000000000567e-05,-2.999999999999999737e-05,5.000000000000000000e+00,9.000000000000000000e+00
2.579000000000000000e+04,1.499999999999999869e-04,-2.000000000000000096e-04,-3.499999999999999964e-04,-9.000000000000000567e-05,-2.700000000000000035e-04,-1.300000000000000157e-04,-9.000000000000000567e-05,-2.999999999999999737e-05,5.000000000000000000e+00,9.000000000000000000e+00
2.579100000000000000e+04,-1.000000000000000048e-04,1.000000000000000082e-05,8.000000000000000654e-05,-5.900000000000000296e-04,-8.800000000000000313e-04,2.999999999999999737e-05,4.000000000000000327e-05,1.000000000000000082e-05,5.000000000000000000e+00,9.000000000000000000e+00
2.579200000000000000e+04,2.700000000000000035e-04,-1.000000000000000082e-05,1.199999999999999895e-04,1.499999999999999869e-04,-4.000000000000000327e-05,-8.000000000000000654e-05,-2.000000000000000164e-05,2.000000000000000164e-05,5.000000000000000000e+00,9.000000000000000000e+00
2.579300000000000000e+04,2.700000000000000035e-04,-1.000000000000000082e-05,1.199999999999999895e-04,1.499999999999999869e-04,-4.000000000000000327e-05,-8.000000000000000654e-05,-2.000000000000000164e-05,2.000000000000000164e-05,5.000000000000000000e+00,9.000000000000000000e+00
2.579400000000000000e+04,2.700000000000000035e-04,-1.000000000000000082e-05,1.199999999999999895e-04,1.499999999999999869e-04,-4.000000000000000327e-05,-8.000000000000000654e-05,-2.000000000000000164e-05,2.000000000000000164e-05,5.000000000000000000e+00,9.000000000000000000e+00
2.579500000000000000e+04,2.700000000000000035e-04,-1.000000000000000082e-05,1.199999999999999895e-04,1.499999999999999869e-04,-4.000000000000000327e-05,-8.000000000000000654e-05,-2.000000000000000164e-05,2.000000000000000164e-05,5.000000000000000000e+00,9.000000000000000000e+00
2.579600000000000000e+04,2.700000000000000035e-04,-1.000000000000000082e-05,1.199999999999999895e-04,1.499999999999999869e-04,-4.000000000000000327e-05,-8.000000000000000654e-05,-2.000000000000000164e-05,2.000000000000000164e-05,5.000000000000000000e+00,9.000000000000000000e+00
2.579700000000000000e+04,2.700000000000000035e-04,-1.000000000000000082e-05,1.199999999999999895e-04,1.499999999999999869e-04,-4.000000000000000327e-05,-8.000000000000000654e-05,-2.000000000000000164e-05,2.000000000000000164e-05,5.000000000000000000e+00,9.000000000000000000e+00
2.579800000000000000e+04,2.700000000000000035e-04,-1.000000000000000082e-05,1.199999999999999895e-04,1.499999999999999869e-04,-4.000000000000000327e-05,-8.000000000000000654e-05,-2.000000000000000164e-05,2.000000000000000164e-05,5.000000000000000000e+00,9.000000000000000000e+00
2.579900000000000000e+04,2.700000000000000035e-04,-1.000000000000000082e-05,1.199999999999999895e-04,1.499999999999999869e-04,-4.000000000000000327e-05,-8.000000000000000654e-05,-2.000000000000000164e-05,2.000000000000000164e-05,5.000000000000000000e+00,9.000000000000000000e+00
2.580000000000000000e+04,2.700000000000000035e-04,-1.000000000000000082e-05,1.199999999999999895e-04,1.499999999999999869e-04,-4.000000000000000327e-05,-8.000000000000000654e-05,-2.000000000000000164e-05,2.000000000000000164e-05,5.000000000000000000e+00,9.000000000000000000e+00
2.580100000000000000e+04,2.700000000000000035e-04,-1.000000000000000082e-05,1.199999999999999895e-04,1.499999999999999869e-04,-4.000000000000000327e-05,-8.000000000000000654e-05,-2.000000000000000164e-05,2.000000000000000164e-05,5.000000000000000000e+00,9.000000000000000000e+00
2.580200000000000000e+04,2.700000000000000035e-04,-1.000000000000000082e-05,1.199999999999999895e-04,1.499999999999999869e-04,-4.000000000000000327e-05,-8.000000000000000654e-05,-2.000000000000000164e-05,2.000000000000000164e-05,5.000000000000000000e+00,9.000000000000000000e+00
2.580400000000000000e+04,2.700000000000000035e-04,-1.000000000000000082e-05,1.199999999999999895e-04,1.499999999999999869e-04,-4.000000000000000327e-05,-8.000000000000000654e-05,-2.000000000000000164e-05,2.000000000000000164e-05,5.000000000000000000e+00,9.000000000000000000e+00
2.580500000000000000e+04,2.700000000000000035e-04,-1.000000000000000082e-05,1.199999999999999895e-04,1.499999999999999869e-04,-4.000000000000000327e-05,-8.000000000000000654e-05,-2.000000000000000164e-05,2.000000000000000164e-05,5.000000000000000000e+00,9.000000000000000000e+00
2.580600000000000000e+04,2.700000000000000035e-04,-1.000000000000000082e-05,1.199999999999999895e-04,1.499999999999999869e-04,-4.000000000000000327e-05,-8.000000000000000654e-05,-2.000000000000000164e-05,2.000000000000000164e-05,5.000000000000000000e+00,9.000000000000000000e+00
2.580700000000000000e+04,2.700000000000000035e-04,-1.000000000000000082e-05,1.199999999999999895e-04,1.499999999999999869e-04,-4.000000000000000327e-05,-8.000000000000000654e-05,-2.000000000000000164e-05,2.000000000000000164e-05,5.000000000000000000e+00,9.000000000000000000e+00
2.580800000000000000e+04,2.700000000000000035e-04,-1.000000000000000082e-05,1.199999999999999895e-04,1.499999999999999869e-04,-4.000000000000000327e-05,-8.000000000000000654e-05,-2.000000000000000164e-05,2.000000000000000164e-05,5.000000000000000000e+00,9.000000000000000000e+00
2.580900000000000000e+04,2.700000000000000035e-04,-1.000000000000000082e-05,1.199999999999999895e-04,1.499999999999999869e-04,-4.000000000000000327e-05,-8.000000000000000654e-05,-2.000000000000000164e-05,2.000000000000000164e-05,5.000000000000000000e+00,9.000000000000000000e+00
2.581000000000000000e+04,2.700000000000000035e-04,-1.000000000000000082e-05,1.199999999999999895e-04,1.499999999999999869e-04,-4.000000000000000327e-05,-8.000000000000000654e-05,-2.000000000000000164e-05,2.000000000000000164e-05,5.000000000000000000e+00,9.000000000000000000e+00
2.581100000000000000e+04,2.700000000000000035e-04,-1.000000000000000082e-05,1.199999999999999895e-04,1.499999999999999869e-04,-4.000000000000000327e-05,-8.000000000000000654e-05,-2.000000000000000164e-05,2.000000000000000164e-05,5.000000000000000000e+00,9.000000000000000000e+00
2.581200000000000000e+04,2.700000000000000035e-04,-1.000000000000000082e-05,1.199999999999999895e-04,1.499999999999999869e-04,-4.000000000000000327e-05,-8.000000000000000654e-05,-2.000000000000000164e-05,2.000000000000000164e-05,5.000000000000000000e+00,9.000000000000000000e+00
2.581300000000000000e+04,2.200000000000000078e-04,1.100000000000000039e-04,-6.999999999999999387e-05,5.800000000000000034e-04,3.200000000000000262e-04,9.000000000000000567e-05,1.000000000000000082e-05,1.000000000000000082e-05,5.000000000000000000e+00,9.000000000000000000e+00
2.581400000000000000e+04,-2.000000000000000164e-05,4.599999999999999597e-04,8.300000000000001170e-04,6.700000000000000226e-04,-4.700000000000000401e-04,-4.000000000000000327e-05,5.999999999999999474e-05,2.000000000000000164e-05,5.000000000000000000e+00,9.000000000000000000e+00
2.581500000000000000e+04,-2.000000000000000164e-05,4.599999999999999597e-04,8.300000000000001170e-04,6.700000000000000226e-04,-4.700000000000000401e-04,-4.000000000000000327e-05,5.999999999999999474e-05,2.000000000000000164e-05,5.000000000000000000e+00,9.000000000000000000e+00
2.581600000000000000e+04,-2.000000000000000164e-05,4.599999999999999597e-04,8.300000000000001170e-04,6.700000000000000226e-04,-4.700000000000000401e-04,-4.000000000000000327e-05,5.999999999999999474e-05,2.000000000000000164e-05,5.000000000000000000e+00,9.000000000000000000e+00
2.581700000000000000e+04,-2.000000000000000164e-05,4.599999999999999597e-04,8.300000000000001170e-04,6.700000000000000226e-04,-4.700000000000000401e-04,-4.000000000000000327e-05,5.999999999999999474e-05,2.000000000000000164e-05,5.000000000000000000e+00,9.000000000000000000e+00
2.581800000000000000e+04,-2.000000000000000164e-05,4.599999999999999597e-04,8.300000000000001170e-04,6.700000000000000226e-04,-4.700000000000000401e-04,-4.000000000000000327e-05,5.999999999999999474e-05,2.000000000000000164e-05,5.000000000000000000e+00,9.000000000000000000e+00
2.581900000000000000e+04,-2.000000000000000164e-05,4.599999999999999597e-04,8.300000000000001170e-04,6.700000000000000226e-04,-4.700000000000000401e-04,-4.000000000000000327e-05,5.999999999999999474e-05,2.000000000000000164e-05,5.000000000000000000e+00,9.000000000000000000e+00
2.582000000000000000e+04,-2.000000000000000164e-05,4.599999999999999597e-04,8.300000000000001170e-04,6.700000000000000226e-04,-4.700000000000000401e-04,-4.000000000000000327e-05,5.999999999999999474e-05,2.000000000000000164e-05,5.000000000000000000e+00,9.000000000000000000e+00
2.582100000000000000e+04,-2.000000000000000164e-05,4.599999999999999597e-04,8.300000000000001170e-04,6.700000000000000226e-04,-4.700000000000000401e-04,-4.000000000000000327e-05,5.999999999999999474e-05,2.000000000000000164e-05,5.000000000000000000e+00,9.000000000000000000e+00
2.582200000000000000e+04,-2.000000000000000164e-05,4.599999999999999597e-04,8.300000000000001170e-04,6.700000000000000226e-04,-4.700000000000000401e-04,-4.000000000000000327e-05,5.999999999999999474e-05,2.000000000000000164e-05,5.000000000000000000e+00,9.000000000000000000e+00
2.582300000000000000e+04,-2.000000000000000164e-05,4.599999999999999597e-04,8.300000000000001170e-04,6.700000000000000226e-04,-4.700000000000000401e-04,-4.000000000000000327e-05,5.999999999999999474e-05,2.000000000000000164e-05,5.000000000000000000e+00,9.000000000000000000e+00
2.582400000000000000e+04,-2.000000000000000164e-05,4.599999999999999597e-04,8.300000000000001170e-04,6.700000000000000226e-04,-4.700000000000000401e-04,-4.000000000000000327e-05,5.999999999999999474e-05,2.000000000000000164e-05,5.000000000000000000e+00,9.000000000000000000e+00
2.582500000000000000e+04,-2.000000000000000164e-05,4.599999999999999597e-04,8.300000000000001170e-04,6.700000000000000226e-04,-4.700000000000000401e-04,-4.000000000000000327e-05,5.999999999999999474e-05,2.000000000000000164e-05,5.000000000000000000e+00,9.000000000000000000e+00
2.582600000000000000e+04,-2.000000000000000164e-05,4.599999999999999597e-04,8.300000000000001170e-04,6.700000000000000226e-04,-4.700000000000000401e-04,-4.000000000000000327e-05,5.999999999999999474e-05,2.000000000000000164e-05,5.000000000000000000e+00,9.000000000000000000e+00
2.582700000000000000e+04,-2.000000000000000164e-05,4.599999999999999597e-04,8.300000000000001170e-04,6.700000000000000226e-04,-4.700000000000000401e-04,-4.000000000000000327e-05,5.999999999999999474e-05,2.000000000000000164e-05,5.000000000000000000e+00,9.000000000000000000e+00
2.582800000000000000e+04,-2.000000000000000164e-05,4.599999999999999597e-04,8.300000000000001170e-04,6.700000000000000226e-04,-4.700000000000000401e-04,-4.000000000000000327e-05,5.999999999999999474e-05,2.000000000000000164e-05,5.000000000000000000e+00,9.000000000000000000e+00
2.582900000000000000e+04,-2.000000000000000164e-05,4.599999999999999597e-04,8.300000000000001170e-04,6.700000000000000226e-04,-4.700000000000000401e-04,-4.000000000000000327e-05,5.999999999999999474e-05,2.000000000000000164e-05,5.000000000000000000e+00,9.000000000000000000e+00
2.583000000000000000e+04,-2.000000000000000164e-05,4.599999999999999597e-04,8.300000000000001170e-04,6.700000000000000226e-04,-4.700000000000000401e-04,-4.000000000000000327e-05,5.999999999999999474e-05,2.000000000000000164e-05,5.000000000000000000e+00,9.000000000000000000e+00
2.583100000000000000e+04,-2.000000000000000164e-05,4.599999999999999597e-04,8.300000000000001170e-04,6.700000000000000226e-04,-4.700000000000000401e-04,-4.000000000000000327e-05,5.999999999999999474e-05,2.000000000000000164e-05,5.000000000000000000e+00,9.000000000000000000e+00
2.583200000000000000e+04,-2.000000000000000164e-05,4.599999999999999597e-04,8.300000000000001170e-04,6.700000000000000226e-04,-4.700000000000000401e-04,-4.000000000000000327e-05,5.999999999999999474e-05,2.000000000000000164e-05,5.000000000000000000e+00,9.000000000000000000e+00
2.583300000000000000e+04,-2.000000000000000164e-05,4.599999999999999597e-04,8.300000000000001170e-04,6.700000000000000226e-04,-4.700000000000000401e-04,-4.000000000000000327e-05,5.999999999999999474e-05,2.000000000000000164e-05,5.000000000000000000e+00,9.000000000000000000e+00
2.583400000000000000e+04,-2.000000000000000164e-05,4.599999999999999597e-04,8.300000000000001170e-04,6.700000000000000226e-04,-4.700000000000000401e-04,-4.000000000000000327e-05,5.999999999999999474e-05,2.000000000000000164e-05,5.000000000000000000e+00,9.000000000000000000e+00
2.583500000000000000e+04,2.900000000000000017e-04,-9.000000000000000567e-05,-3.600000000000000227e-04,-3.399999999999999702e-04,2.700000000000000035e-04,1.800000000000000113e-04,2.000000000000000164e-05,-2.000000000000000164e-05,5.000000000000000000e+00,9.000000000000000000e+00
2.583600000000000000e+04,-1.000000000000000048e-04,-4.000000000000000327e-05,4.499999999999999877e-04,7.500000000000000156e-04,2.000000000000000164e-05,-8.000000000000000654e-05,-8.000000000000000654e-05,-2.000000000000000164e-05,5.000000000000000000e+00,9.000000000000000000e+00
2.583800000000000000e+04,-1.000000000000000048e-04,-4.000000000000000327e-05,4.499999999999999877e-04,7.500000000000000156e-04,2.000000000000000164e-05,-8.000000000000000654e-05,-8.000000000000000654e-05,-2.000000000000000164e-05,5.000000000000000000e+00,9.000000000000000000e+00
2.583900000000000000e+04,-1.000000000000000048e-04,-4.000000000000000327e-05,4.499999999999999877e-04,7.500000000000000156e-04,2.000000000000000164e-05,-8.000000000000000654e-05,-8.000000000000000654e-05,-2.000000000000000164e-05,5.000000000000000000e+00,9.000000000000000000e+00
2.584000000000000000e+04,-1.000000000000000048e-04,-4.000000000000000327e-05,4.499999999999999877e-04,7.500000000000000156e-04,2.000000000000000164e-05,-8.000000000000000654e-05,-8.000000000000000654e-05,-2.000000000000000164e-05,5.000000000000000000e+00,9.000000000000000000e+00
2.584100000000000000e+04,-1.000000000000000048e-04,-4.000000000000000327e-05,4.499999999999999877e-04,7.500000000000000156e-04,2.000000000000000164e-05,-8.000000000000000654e-05,-8.000000000000000654e-05,-2.000000000000000164e-05,5.000000000000000000e+00,9.000000000000000000e+00
2.584200000000000000e+04,-1.000000000000000048e-04,-4.000000000000000327e-05,4.499999999999999877e-04,7.500000000000000156e-04,2.000000000000000164e-05,-8.000000000000000654e-05,-8.000000000000000654e-05,-2.000000000000000164e-05,5.000000000000000000e+00,9.000000000000000000e+00
2.584300000000000000e+04,2.000000000000000096e-04,1.100000000000000039e-04,-1.199999999999999895e-04,1.800000000000000113e-04,5.000000000000000240e-05,-4.000000000000000327e-05,2.999999999999999737e-05,1.300000000000000157e-04,5.000000000000000000e+00,9.000000000000000000e+00
2.584400000000000000e+04,2.000000000000000096e-04,1.100000000000000039e-04,-1.199999999999999895e-04,1.800000000000000113e-04,5.000000000000000240e-05,-4.000000000000000327e-05,2.999999999999999737e-05,1.300000000000000157e-04,5.000000000000000000e+00,9.000000000000000000e+00
2.584500000000000000e+04,2.000000000000000096e-04,1.100000000000000039e-04,-1.199999999999999895e-04,1.800000000000000113e-04,5.000000000000000240e-05,-4.000000000000000327e-05,2.999999999999999737e-05,1.300000000000000157e-04,5.000000000000000000e+00,9.000000000000000000e+00
2.584600000000000000e+04,2.000000000000000096e-04,1.100000000000000039e-04,-1.199999999999999895e-04,1.800000000000000113e-04,5.000000000000000240e-05,-4.000000000000000327e-05,2.999999999999999737e-05,1.300000000000000157e-04,5.000000000000000000e+00,9.000000000000000000e+00
2.584700000000000000e+04,2.000000000000000096e-04,1.100000000000000039e-04,-1.199999999999999895e-04,1.800000000000000113e-04,5.000000000000000240e-05,-4.000000000000000327e-05,2.999999999999999737e-05,1.300000000000000157e-04,5.000000000000000000e+00,9.000000000000000000e+00
2.584800000000000000e+04,2.000000000000000096e-04,1.100000000000000039e-04,-1.199999999999999895e-04,1.800000000000000113e-04,5.000000000000000240e-05,-4.000000000000000327e-05,2.999999999999999737e-05,1.300000000000000157e-04,5.000000000000000000e+00,9.000000000000000000e+00
2.584900000000000000e+04,2.000000000000000096e-04,1.100000000000000039e-04,-1.199999999999999895e-04,1.800000000000000113e-04,5.000000000000000240e-05,-4.000000000000000327e-05,2.999999999999999737e-05,1.300000000000000157e-04,5.000000000000000000e+00,9.000000000000000000e+00
2.585000000000000000e+04,2.000000000000000096e-04,1.100000000000000039e-04,-1.199999999999999895e-04,1.800000000000000113e-04,5.000000000000000240e-05,-4.000000000000000327e-05,2.999999999999999737e-05,1.300000000000000157e-04,5.000000000000000000e+00,9.000000000000000000e+00
2.585100000000000000e+04,2.999999999999999737e-05,4.000000000000000192e-04,7.599999999999999334e-04,-2.000000000000000164e-05,-3.200000000000000262e-04,0.000000000000000000e+00,1.100000000000000039e-04,5.000000000000000240e-05,5.000000000000000000e+00,9.000000000000000000e+00
2.585200000000000000e+04,-2.299999999999999799e-04,-2.000000000000000164e-05,2.799999999999999755e-04,3.099999999999999999e-04,-2.700000000000000035e-04,-1.399999999999999877e-04,-6.999999999999999387e-05,-5.999999999999999474e-05,5.000000000000000000e+00,9.000000000000000000e+00
2.585400000000000000e+04,-2.299999999999999799e-04,-2.000000000000000164e-05,2.799999999999999755e-04,3.099999999999999999e-04,-2.700000000000000035e-04,-1.399999999999999877e-04,-6.999999999999999387e-05,-5.999999999999999474e-05,5.000000000000000000e+00,9.000000000000000000e+00
2.585500000000000000e+04,-2.299999999999999799e-04,-2.000000000000000164e-05,2.799999999999999755e-04,3.099999999999999999e-04,-2.700000000000000035e-04,-1.399999999999999877e-04,-6.999999999999999387e-05,-5.999999999999999474e-05,5.000000000000000000e+00,9.000000000000000000e+00
2.585600000000000000e+04,-2.299999999999999799e-04,-2.000000000000000164e-05,2.799999999999999755e-04,3.099999999999999999e-04,-2.700000000000000035e-04,-1.399999999999999877e-04,-6.999999999999999387e-05,-5.999999999999999474e-05,5.000000000000000000e+00,9.000000000000000000e+00
2.585700000000000000e+04,-2.299999999999999799e-04,-2.000000000000000164e-05,2.799999999999999755e-04,3.099999999999999999e-04,-2.700000000000000035e-04,-1.399999999999999877e-04,-6.999999999999999387e-05,-5.999999999999999474e-05,5.000000000000000000e+00,9.000000000000000000e+00
2.585800000000000000e+04,-2.299999999999999799e-04,-2.000000000000000164e-05,2.799999999999999755e-04,3.099999999999999999e-04,-2.700000000000000035e-04,-1.399999999999999877e-04,-6.999999999999999387e-05,-5.999999999999999474e-05,5.000000000000000000e+00,9.000000000000000000e+00
2.585900000000000000e+04,-2.299999999999999799e-04,-2.000000000000000164e-05,2.799999999999999755e-04,3.099999999999999999e-04,-2.700000000000000035e-04,-1.399999999999999877e-04,-6.999999999999999387e-05,-5.999999999999999474e-05,5.000000000000000000e+00,9.000000000000000000e+00
2.586000000000000000e+04,-2.299999999999999799e-04,-2.000000000000000164e-05,2.799999999999999755e-04,3.099999999999999999e-04,-2.700000000000000035e-04,-1.399999999999999877e-04,-6.999999999999999387e-05,-5.999999999999999474e-05,5.000000000000000000e+00,9.000000000000000000e+00
2.586100000000000000e+04,-2.299999999999999799e-04,-2.000000000000000164e-05,2.799999999999999755e-04,3.099999999999999999e-04,-2.700000000000000035e-04,-1.399999999999999877e-04,-6.999999999999999387e-05,-5.999999999999999474e-05,5.000000000000000000e+00,9.000000000000000000e+00
2.586200000000000000e+04,-2.299999999999999799e-04,-2.000000000000000164e-05,2.799999999999999755e-04,3.099999999999999999e-04,-2.700000000000000035e-04,-1.399999999999999877e-04,-6.999999999999999387e-05,-5.999999999999999474e-05,5.000000000000000000e+00,9.000000000000000000e+00
2.586300000000000000e+04,-2.299999999999999799e-04,-2.000000000000000164e-05,2.799999999999999755e-04,3.099999999999999999e-04,-2.700000000000000035e-04,-1.399999999999999877e-04,-6.999999999999999387e-05,-5.999999999999999474e-05,5.000000000000000000e+00,9.000000000000000000e+00
2.586400000000000000e+04,-2.299999999999999799e-04,-2.000000000000000164e-05,2.799999999999999755e-04,3.099999999999999999e-04,-2.700000000000000035e-04,-1.399999999999999877e-04,-6.999999999999999387e-05,-5.999999999999999474e-05,5.000000000000000000e+00,9.000000000000000000e+00
2.586500000000000000e+04,-2.299999999999999799e-04,-2.000000000000000164e-05,2.799999999999999755e-04,3.099999999999999999e-04,-2.700000000000000035e-04,-1.399999999999999877e-04,-6.999999999999999387e-05,-5.999999999999999474e-05,5.000000000000000000e+00,9.000000000000000000e+00
2.586600000000000000e+04,-2.299999999999999799e-04,-2.000000000000000164e-05,2.799999999999999755e-04,3.099999999999999999e-04,-2.700000000000000035e-04,-1.399999999999999877e-04,-6.999999999999999387e-05,-5.999999999999999474e-05,5.000000000000000000e+00,9.000000000000000000e+00
2.586700000000000000e+04,-2.299999999999999799e-04,-2.000000000000000164e-05,2.799999999999999755e-04,3.099999999999999999e-04,-2.700000000000000035e-04,-1.399999999999999877e-04,-6.999999999999999387e-05,-5.999999999999999474e-05,5.000000000000000000e+00,9.000000000000000000e+00
2.586800000000000000e+04,-2.299999999999999799e-04,-2.000000000000000164e-05,2.799999999999999755e-04,3.099999999999999999e-04,-2.700000000000000035e-04,-1.399999999999999877e-04,-6.999999999999999387e-05,-5.999999999999999474e-05,5.000000000000000000e+00,9.000000000000000000e+00
2.586900000000000000e+04,-2.299999999999999799e-04,-2.000000000000000164e-05,2.799999999999999755e-04,3.099999999999999999e-04,-2.700000000000000035e-04,-1.399999999999999877e-04,-6.999999999999999387e-05,-5.999999999999999474e-05,5.000000000000000000e+00,9.000000000000000000e+00
2.587000000000000000e+04,-2.299999999999999799e-04,-2.000000000000000164e-05,2.799999999999999755e-04,3.099999999999999999e-04,-2.700000000000000035e-04,-1.399999999999999877e-04,-6.999999999999999387e-05,-5.999999999999999474e-05,5.000000000000000000e+00,9.000000000000000000e+00
2.587100000000000000e+04,-2.299999999999999799e-04,-2.000000000000000164e-05,2.799999999999999755e-04,3.099999999999999999e-04,-2.700000000000000035e-04,-1.399999999999999877e-04,-6.999999999999999387e-05,-5.999999999999999474e-05,5.000000000000000000e+00,9.000000000000000000e+00
2.587200000000000000e+04,-2.299999999999999799e-04,-2.000000000000000164e-05,2.799999999999999755e-04,3.099999999999999999e-04,-2.700000000000000035e-04,-1.399999999999999877e-04,-6.999999999999999387e-05,-5.999999999999999474e-05,5.000000000000000000e+00,9.000000000000000000e+00
2.587300000000000000e+04,6.999999999999999387e-05,-1.300000000000000157e-04,-4.599999999999999597e-04,-5.999999999999999474e-05,2.999999999999999737e-05,2.000000000000000164e-05,-5.000000000000000240e-05,-1.000000000000000082e-05,5.000000000000000000e+00,9.000000000000000000e+00
2.587400000000000000e+04,-9.000000000000000567e-05,-1.000000000000000048e-04,9.000000000000000567e-05,4.000000000000000327e-05,4.299999999999999894e-04,-5.000000000000000240e-05,-1.000000000000000082e-05,-5.999999999999999474e-05,5.000000000000000000e+00,9.000000000000000000e+00
2.587500000000000000e+04,-9.000000000000000567e-05,-1.000000000000000048e-04,9.000000000000000567e-05,4.000000000000000327e-05,4.299999999999999894e-04,-5.000000000000000240e-05,-1.000000000000000082e-05,-5.999999999999999474e-05,5.000000000000000000e+00,9.000000000000000000e+00
2.587600000000000000e+04,-9.000000000000000567e-05,-1.000000000000000048e-04,9.000000000000000567e-05,4.000000000000000327e-05,4.299999999999999894e-04,-5.000000000000000240e-05,-1.000000000000000082e-05,-5.999999999999999474e-05,5.000000000000000000e+00,9.000000000000000000e+00
2.587700000000000000e+04,-9.000000000000000567e-05,-1.000000000000000048e-04,9.000000000000000567e-05,4.000000000000000327e-05,4.299999999999999894e-04,-5.000000000000000240e-05,-1.000000000000000082e-05,-5.999999999999999474e-05,5.000000000000000000e+00,9.000000000000000000e+00
2.587800000000000000e+04,-9.000000000000000567e-05,-1.000000000000000048e-04,9.000000000000000567e-05,4.000000000000000327e-05,4.299999999999999894e-04,-5.000000000000000240e-05,-1.000000000000000082e-05,-5.999999999999999474e-05,5.000000000000000000e+00,9.000000000000000000e+00
2.587900000000000000e+04,-9.000000000000000567e-05,-1.000000000000000048e-04,9.000000000000000567e-05,4.000000000000000327e-05,4.299999999999999894e-04,-5.000000000000000240e-05,-1.000000000000000082e-05,-5.999999999999999474e-05,5.000000000000000000e+00,9.000000000000000000e+00
2.588000000000000000e+04,-9.000000000000000567e-05,-1.000000000000000048e-04,9.000000000000000567e-05,4.000000000000000327e-05,4.299999999999999894e-04,-5.000000000000000240e-05,-1.000000000000000082e-05,-5.999999999999999474e-05,5.000000000000000000e+00,9.000000000000000000e+00
2.588100000000000000e+04,-9.000000000000000567e-05,-1.000000000000000048e-04,9.000000000000000567e-05,4.000000000000000327e-05,4.299999999999999894e-04,-5.000000000000000240e-05,-1.000000000000000082e-05,-5.999999999999999474e-05,5.000000000000000000e+00,9.000000000000000000e+00
2.588200000000000000e+04,-9.000000000000000567e-05,-1.000000000000000048e-04,9.000000000000000567e-05,4.000000000000000327e-05,4.299999999999999894e-04,-5.000000000000000240e-05,-1.000000000000000082e-05,-5.999999999999999474e-05,5.000000000000000000e+00,9.000000000000000000e+00
2.588300000000000000e+04,-9.000000000000000567e-05,-1.000000000000000048e-04,9.000000000000000567e-05,4.000000000000000327e-05,4.299999999999999894e-04,-5.000000000000000240e-05,-1.000000000000000082e-05,-5.999999999999999474e-05,5.000000000000000000e+00,9.000000000000000000e+00
2.588400000000000000e+04,-9.000000000000000567e-05,-1.000000000000000048e-04,9.000000000000000567e-05,4.000000000000000327e-05,4.299999999999999894e-04,-5.000000000000000240e-05,-1.000000000000000082e-05,-5.999999999999999474e-05,5.000000000000000000e+00,9.000000000000000000e+00
2.588500000000000000e+04,-9.000000000000000567e-05,-1.000000000000000048e-04,9.000000000000000567e-05,4.000000000000000327e-05,4.299999999999999894e-04,-5.000000000000000240e-05,-1.000000000000000082e-05,-5.999999999999999474e-05,5.000000000000000000e+00,9.000000000000000000e+00
2.588600000000000000e+04,-9.000000000000000567e-05,-1.000000000000000048e-04,9.000000000000000567e-05,4.000000000000000327e-05,4.299999999999999894e-04,-5.000000000000000240e-05,-1.000000000000000082e-05,-5.999999999999999474e-05,5.000000000000000000e+00,9.000000000000000000e+00
2.588800000000000000e+04,-9.000000000000000567e-05,-1.000000000000000048e-04,9.000000000000000567e-05,4.000000000000000327e-05,4.299999999999999894e-04,-5.000000000000000240e-05,-1.000000000000000082e-05,-5.999999999999999474e-05,5.000000000000000000e+00,9.000000000000000000e+00
2.588900000000000000e+04,-9.000000000000000567e-05,-1.000000000000000048e-04,9.000000000000000567e-05,4.000000000000000327e-05,4.299999999999999894e-04,-5.000000000000000240e-05,-1.000000000000000082e-05,-5.999999999999999474e-05,5.000000000000000000e+00,9.000000000000000000e+00
2.589000000000000000e+04,-9.000000000000000567e-05,-1.000000000000000048e-04,9.000000000000000567e-05,4.000000000000000327e-05,4.299999999999999894e-04,-5.000000000000000240e-05,-1.000000000000000082e-05,-5.999999999999999474e-05,5.000000000000000000e+00,9.000000000000000000e+00
2.589100000000000000e+04,-9.000000000000000567e-05,-1.000000000000000048e-04,9.000000000000000567e-05,4.000000000000000327e-05,4.299999999999999894e-04,-5.000000000000000240e-05,-1.000000000000000082e-05,-5.999999999999999474e-05,5.000000000000000000e+00,9.000000000000000000e+00
2.589200000000000000e+04,-9.000000000000000567e-05,-1.000000000000000048e-04,9.000000000000000567e-05,4.000000000000000327e-05,4.299999999999999894e-04,-5.000000000000000240e-05,-1.000000000000000082e-05,-5.999999999999999474e-05,5.000000000000000000e+00,9.000000000000000000e+00
2.589300000000000000e+04,-9.000000000000000567e-05,-1.000000000000000048e-04,9.000000000000000567e-05,4.000000000000000327e-05,4.299999999999999894e-04,-5.000000000000000240e-05,-1.000000000000000082e-05,-5.999999999999999474e-05,5.000000000000000000e+00,9.000000000000000000e+00
2.589400000000000000e+04,-9.000000000000000567e-05,-1.000000000000000048e-04,9.000000000000000567e-05,4.000000000000000327e-05,4.299999999999999894e-04,-5.000000000000000240e-05,-1.000000000000000082e-05,-5.999999999999999474e-05,5.000000000000000000e+00,9.000000000000000000e+00
2.589500000000000000e+04,-9.000000000000000567e-05,-1.000000000000000048e-04,9.000000000000000567e-05,4.000000000000000327e-05,4.299999999999999894e-04,-5.000000000000000240e-05,-1.000000000000000082e-05,-5.999999999999999474e-05,5.000000000000000000e+00,9.000000000000000000e+00
2.589600000000000000e+04,-9.000000000000000567e-05,-1.000000000000000048e-04,9.000000000000000567e-05,4.000000000000000327e-05,4.299999999999999894e-04,-5.000000000000000240e-05,-1.000000000000000082e-05,-5.999999999999999474e-05,5.000000000000000000e+00,9.000000000000000000e+00
2.589700000000000000e+04,5.000000000000000240e-05,2.999999999999999737e-05,-1.499999999999999869e-04,-9.799999999999999684e-04,-1.090000000000000040e-03,-1.699999999999999851e-04,-2.000000000000000164e-05,4.000000000000000327e-05,5.000000000000000000e+00,9.000000000000000000e+00
2.589800000000000000e+04,5.000000000000000240e-05,2.999999999999999737e-05,-1.499999999999999869e-04,-9.799999999999999684e-04,-1.090000000000000040e-03,-1.699999999999999851e-04,-2.000000000000000164e-05,4.000000000000000327e-05,5.000000000000000000e+00,9.000000000000000000e+00
2.589900000000000000e+04,5.000000000000000240e-05,2.999999999999999737e-05,-1.499999999999999869e-04,-9.799999999999999684e-04,-1.090000000000000040e-03,-1.699999999999999851e-04,-2.000000000000000164e-05,4.000000000000000327e-05,5.000000000000000000e+00,9.000000000000000000e+00
2.590000000000000000e+04,5.000000000000000240e-05,2.999999999999999737e-05,-1.499999999999999869e-04,-9.799999999999999684e-04,-1.090000000000000040e-03,-1.699999999999999851e-04,-2.000000000000000164e-05,4.000000000000000327e-05,5.000000000000000000e+00,9.000000000000000000e+00
2.590100000000000000e+04,5.000000000000000240e-05,2.999999999999999737e-05,-1.499999999999999869e-04,-9.799999999999999684e-04,-1.090000000000000040e-03,-1.699999999999999851e-04,-2.000000000000000164e-05,4.000000000000000327e-05,5.000000000000000000e+00,9.000000000000000000e+00
2.590200000000000000e+04,5.000000000000000240e-05,2.999999999999999737e-05,-1.499999999999999869e-04,-9.799999999999999684e-04,-1.090000000000000040e-03,-1.699999999999999851e-04,-2.000000000000000164e-05,4.000000000000000327e-05,5.000000000000000000e+00,9.000000000000000000e+00
2.590300000000000000e+04,5.000000000000000240e-05,2.999999999999999737e-05,-1.499999999999999869e-04,-9.799999999999999684e-04,-1.090000000000000040e-03,-1.699999999999999851e-04,-2.000000000000000164e-05,4.000000000000000327e-05,5.000000000000000000e+00,9.000000000000000000e+00
2.590400000000000000e+04,5.000000000000000240e-05,2.999999999999999737e-05,-1.499999999999999869e-04,-9.799999999999999684e-04,-1.090000000000000040e-03,-1.699999999999999851e-04,-2.000000000000000164e-05,4.000000000000000327e-05,5.000000000000000000e+00,9.000000000000000000e+00
2.590500000000000000e+04,5.000000000000000240e-05,2.999999999999999737e-05,-1.499999999999999869e-04,-9.799999999999999684e-04,-1.090000000000000040e-03,-1.699999999999999851e-04,-2.000000000000000164e-05,4.000000000000000327e-05,5.000000000000000000e+00,9.000000000000000000e+00
2.590600000000000000e+04,5.000000000000000240e-05,2.999999999999999737e-05,-1.499999999999999869e-04,-9.799999999999999684e-04,-1.090000000000000040e-03,-1.699999999999999851e-04,-2.000000000000000164e-05,4.000000000000000327e-05,5.000000000000000000e+00,9.000000000000000000e+00
2.590700000000000000e+04,5.000000000000000240e-05,2.999999999999999737e-05,-1.499999999999999869e-04,-9.799999999999999684e-04,-1.090000000000000040e-03,-1.699999999999999851e-04,-2.000000000000000164e-05,4.000000000000000327e-05,5.000000000000000000e+00,9.000000000000000000e+00
2.590800000000000000e+04,5.000000000000000240e-05,2.999999999999999737e-05,-1.499999999999999869e-04,-9.799999999999999684e-04,-1.090000000000000040e-03,-1.699999999999999851e-04,-2.000000000000000164e-05,4.000000000000000327e-05,5.000000000000000000e+00,9.000000000000000000e+00
2.590900000000000000e+04,5.000000000000000240e-05,2.999999999999999737e-05,-1.499999999999999869e-04,-9.799999999999999684e-04,-1.090000000000000040e-03,-1.699999999999999851e-04,-2.000000000000000164e-05,4.000000000000000327e-05,5.000000000000000000e+00,9.000000000000000000e+00
2.591000000000000000e+04,5.000000000000000240e-05,2.999999999999999737e-05,-1.499999999999999869e-04,-9.799999999999999684e-04,-1.090000000000000040e-03,-1.699999999999999851e-04,-2.000000000000000164e-05,4.000000000000000327e-05,5.000000000000000000e+00,9.000000000000000000e+00
2.591100000000000000e+04,-5.299999999999999807e-04,1.100000000000000039e-04,4.200000000000000174e-04,-3.399999999999999702e-04,5.699999999999999772e-04,-1.000000000000000082e-05,2.000000000000000164e-05,-2.999999999999999737e-05,5.000000000000000000e+00,9.000000000000000000e+00
2.591200000000000000e+04,2.000000000000000164e-05,-5.999999999999999474e-05,-2.999999999999999737e-05,3.299999999999999982e-04,1.000000000000000048e-04,-2.999999999999999737e-05,-5.999999999999999474e-05,-4.000000000000000327e-05,5.000000000000000000e+00,9.000000000000000000e+00
2.591300000000000000e+04,2.000000000000000164e-05,-5.999999999999999474e-05,-2.999999999999999737e-05,3.299999999999999982e-04,1.000000000000000048e-04,-2.999999999999999737e-05,-5.999999999999999474e-05,-4.000000000000000327e-05,5.000000000000000000e+00,9.000000000000000000e+00
2.591400000000000000e+04,2.000000000000000164e-05,-5.999999999999999474e-05,-2.999999999999999737e-05,3.299999999999999982e-04,1.000000000000000048e-04,-2.999999999999999737e-05,-5.999999999999999474e-05,-4.000000000000000327e-05,5.000000000000000000e+00,9.000000000000000000e+00
2.591500000000000000e+04,2.000000000000000164e-05,-5.999999999999999474e-05,-2.999999999999999737e-05,3.299999999999999982e-04,1.000000000000000048e-04,-2.999999999999999737e-05,-5.999999999999999474e-05,-4.000000000000000327e-05,5.000000000000000000e+00,9.000000000000000000e+00
2.591600000000000000e+04,2.000000000000000164e-05,-5.999999999999999474e-05,-2.999999999999999737e-05,3.299999999999999982e-04,1.000000000000000048e-04,-2.999999999999999737e-05,-5.999999999999999474e-05,-4.000000000000000327e-05,5.000000000000000000e+00,9.000000000000000000e+00
2.591700000000000000e+04,2.000000000000000164e-05,-5.999999999999999474e-05,-2.999999999999999737e-05,3.299999999999999982e-04,1.000000000000000048e-04,-2.999999999999999737e-05,-5.999999999999999474e-05,-4.000000000000000327e-05,5.000000000000000000e+00,9.000000000000000000e+00
2.591800000000000000e+04,2.000000000000000164e-05,-5.999999999999999474e-05,-2.999999999999999737e-05,3.299999999999999982e-04,1.000000000000000048e-04,-2.999999999999999737e-05,-5.999999999999999474e-05,-4.000000000000000327e-05,5.000000000000000000e+00,9.000000000000000000e+00
2.591900000000000000e+04,2.000000000000000164e-05,-5.999999999999999474e-05,-2.999999999999999737e-05,3.299999999999999982e-04,1.000000000000000048e-04,-2.999999999999999737e-05,-5.999999999999999474e-05,-4.000000000000000327e-05,5.000000000000000000e+00,9.000000000000000000e+00
2.592000000000000000e+04,2.000000000000000164e-05,-5.999999999999999474e-05,-2.999999999999999737e-05,3.299999999999999982e-04,1.000000000000000048e-04,-2.999999999999999737e-05,-5.999999999999999474e-05,-4.000000000000000327e-05,5.000000000000000000e+00,9.000000000000000000e+00
2.592100000000000000e+04,2.000000000000000164e-05,-5.999999999999999474e-05,-2.999999999999999737e-05,3.299999999999999982e-04,1.000000000000000048e-04,-2.999999999999999737e-05,-5.999999999999999474e-05,-4.000000000000000327e-05,5.000000000000000000e+00,9.000000000000000000e+00
2.592200000000000000e+04,2.000000000000000164e-05,-5.999999999999999474e-05,-2.999999999999999737e-05,3.299999999999999982e-04,1.000000000000000048e-04,-2.999999999999999737e-05,-5.999999999999999474e-05,-4.000000000000000327e-05,5.000000000000000000e+00,9.000000000000000000e+00
2.592300000000000000e+04,2.000000000000000164e-05,-5.999999999999999474e-05,-2.999999999999999737e-05,3.299999999999999982e-04,1.000000000000000048e-04,-2.999999999999999737e-05,-5.999999999999999474e-05,-4.000000000000000327e-05,5.000000000000000000e+00,9.000000000000000000e+00
2.592400000000000000e+04,2.000000000000000164e-05,-5.999999999999999474e-05,-2.999999999999999737e-05,3.299999999999999982e-04,1.000000000000000048e-04,-2.999999999999999737e-05,-5.999999999999999474e-05,-4.000000000000000327e-05,5.000000000000000000e+00,9.000000000000000000e+00
2.592500000000000000e+04,2.000000000000000164e-05,-5.999999999999999474e-05,-2.999999999999999737e-05,3.299999999999999982e-04,1.000000000000000048e-04,-2.999999999999999737e-05,-5.999999999999999474e-05,-4.000000000000000327e-05,5.000000000000000000e+00,9.000000000000000000e+00
2.592600000000000000e+04,2.000000000000000164e-05,-5.999999999999999474e-05,-2.999999999999999737e-05,3.299999999999999982e-04,1.000000000000000048e-04,-2.999999999999999737e-05,-5.999999999999999474e-05,-4.000000000000000327e-05,5.000000000000000000e+00,9.000000000000000000e+00
2.592700000000000000e+04,2.000000000000000164e-05,-5.999999999999999474e-05,-2.999999999999999737e-05,3.299999999999999982e-04,1.000000000000000048e-04,-2.999999999999999737e-05,-5.999999999999999474e-05,-4.000000000000000327e-05,5.000000000000000000e+00,9.000000000000000000e+00
2.592800000000000000e+04,2.000000000000000164e-05,-5.999999999999999474e-05,-2.999999999999999737e-05,3.299999999999999982e-04,1.000000000000000048e-04,-2.999999999999999737e-05,-5.999999999999999474e-05,-4.000000000000000327e-05,5.000000000000000000e+00,9.000000000000000000e+00
2.592900000000000000e+04,2.000000000000000164e-05,-5.999999999999999474e-05,-2.999999999999999737e-05,3.299999999999999982e-04,1.000000000000000048e-04,-2.999999999999999737e-05,-5.999999999999999474e-05,-4.000000000000000327e-05,5.000000000000000000e+00,9.000000000000000000e+00
2.593000000000000000e+04,2.000000000000000164e-05,-5.999999999999999474e-05,-2.999999999999999737e-05,3.299999999999999982e-04,1.000000000000000048e-04,-2.999999999999999737e-05,-5.999999999999999474e-05,-4.000000000000000327e-05,5.000000000000000000e+00,9.000000000000000000e+00
2.593100000000000000e+04,2.000000000000000164e-05,-5.999999999999999474e-05,-2.999999999999999737e-05,3.299999999999999982e-04,1.000000000000000048e-04,-2.999999999999999737e-05,-5.999999999999999474e-05,-4.000000000000000327e-05,5.000000000000000000e+00,9.000000000000000000e+00
2.593200000000000000e+04,2.000000000000000164e-05,-5.999999999999999474e-05,-2.999999999999999737e-05,3.299999999999999982e-04,1.000000000000000048e-04,-2.999999999999999737e-05,-5.999999999999999474e-05,-4.000000000000000327e-05,5.000000000000000000e+00,9.000000000000000000e+00
2.593300000000000000e+04,0.000000000000000000e+00,-2.000000000000000164e-05,3.699999999999999947e-04,8.199999999999999824e-04,-6.700000000000000226e-04,-1.499999999999999869e-04,-4.000000000000000327e-05,-8.000000000000000654e-05,5.000000000000000000e+00,9.000000000000000000e+00
2.593500000000000000e+04,-1.300000000000000157e-04,-5.000000000000000240e-05,-1.399999999999999877e-04,-2.399999999999999790e-04,8.000000000000000383e-04,-5.000000000000000240e-05,-4.000000000000000327e-05,-1.000000000000000082e-05,5.000000000000000000e+00,9.000000000000000000e+00
2.593600000000000000e+04,-1.300000000000000157e-04,-5.000000000000000240e-05,-1.399999999999999877e-04,-2.399999999999999790e-04,8.000000000000000383e-04,-5.000000000000000240e-05,-4.000000000000000327e-05,-1.000000000000000082e-05,5.000000000000000000e+00,9.000000000000000000e+00
2.593800000000000000e+04,-1.300000000000000157e-04,-5.000000000000000240e-05,-1.399999999999999877e-04,-2.399999999999999790e-04,8.000000000000000383e-04,-5.000000000000000240e-05,-4.000000000000000327e-05,-1.000000000000000082e-05,5.000000000000000000e+00,9.000000000000000000e+00
2.593900000000000000e+04,-1.300000000000000157e-04,-5.000000000000000240e-05,-1.399999999999999877e-04,-2.399999999999999790e-04,8.000000000000000383e-04,-5.000000000000000240e-05,-4.000000000000000327e-05,-1.000000000000000082e-05,5.000000000000000000e+00,9.000000000000000000e+00
2.594000000000000000e+04,-1.300000000000000157e-04,-5.000000000000000240e-05,-1.399999999999999877e-04,-2.399999999999999790e-04,8.000000000000000383e-04,-5.000000000000000240e-05,-4.000000000000000327e-05,-1.000000000000000082e-05,5.000000000000000000e+00,9.000000000000000000e+00
2.594100000000000000e+04,-1.300000000000000157e-04,-5.000000000000000240e-05,-1.399999999999999877e-04,-2.399999999999999790e-04,8.000000000000000383e-04,-5.000000000000000240e-05,-4.000000000000000327e-05,-1.000000000000000082e-05,5.000000000000000000e+00,9.000000000000000000e+00
2.594200000000000000e+04,-1.300000000000000157e-04,-5.000000000000000240e-05,-1.399999999999999877e-04,-2.399999999999999790e-04,8.000000000000000383e-04,-5.000000000000000240e-05,-4.000000000000000327e-05,-1.000000000000000082e-05,5.000000000000000000e+00,9.000000000000000000e+00
2.594300000000000000e+04,-1.300000000000000157e-04,-5.000000000000000240e-05,-1.399999999999999877e-04,-2.399999999999999790e-04,8.000000000000000383e-04,-5.000000000000000240e-05,-4.000000000000000327e-05,-1.000000000000000082e-05,5.000000000000000000e+00,9.000000000000000000e+00
2.594400000000000000e+04,-1.300000000000000157e-04,-5.000000000000000240e-05,-1.399999999999999877e-04,-2.399999999999999790e-04,8.000000000000000383e-04,-5.000000000000000240e-05,-4.000000000000000327e-05,-1.000000000000000082e-05,5.000000000000000000e+00,9.000000000000000000e+00
2.594500000000000000e+04,-1.300000000000000157e-04,-5.000000000000000240e-05,-1.399999999999999877e-04,-2.399999999999999790e-04,8.000000000000000383e-04,-5.000000000000000240e-05,-4.000000000000000327e-05,-1.000000000000000082e-05,5.000000000000000000e+00,9.000000000000000000e+00
2.594600000000000000e+04,-1.300000000000000157e-04,-5.000000000000000240e-05,-1.399999999999999877e-04,-2.399999999999999790e-04,8.000000000000000383e-04,-5.000000000000000240e-05,-4.000000000000000327e-05,-1.000000000000000082e-05,5.000000000000000000e+00,9.000000000000000000e+00
2.594700000000000000e+04,-1.300000000000000157e-04,-5.000000000000000240e-05,-1.399999999999999877e-04,-2.399999999999999790e-04,8.000000000000000383e-04,-5.000000000000000240e-05,-4.000000000000000327e-05,-1.000000000000000082e-05,5.000000000000000000e+00,9.000000000000000000e+00
2.594800000000000000e+04,-1.300000000000000157e-04,-5.000000000000000240e-05,-1.399999999999999877e-04,-2.399999999999999790e-04,8.000000000000000383e-04,-5.000000000000000240e-05,-4.000000000000000327e-05,-1.000000000000000082e-05,5.000000000000000000e+00,9.000000000000000000e+00
2.594900000000000000e+04,-1.300000000000000157e-04,-5.000000000000000240e-05,-1.399999999999999877e-04,-2.399999999999999790e-04,8.000000000000000383e-04,-5.000000000000000240e-05,-4.000000000000000327e-05,-1.000000000000000082e-05,5.000000000000000000e+00,9.000000000000000000e+00
2.595000000000000000e+04,-1.300000000000000157e-04,-5.000000000000000240e-05,-1.399999999999999877e-04,-2.399999999999999790e-04,8.000000000000000383e-04,-5.000000000000000240e-05,-4.000000000000000327e-05,-1.000000000000000082e-05,5.000000000000000000e+00,9.000000000000000000e+00
2.595100000000000000e+04,-1.300000000000000157e-04,-5.000000000000000240e-05,-1.399999999999999877e-04,-2.399999999999999790e-04,8.000000000000000383e-04,-5.000000000000000240e-05,-4.000000000000000327e-05,-1.000000000000000082e-05,5.000000000000000000e+00,9.000000000000000000e+00
2.595200000000000000e+04,-1.300000000000000157e-04,-5.000000000000000240e-05,-1.399999999999999877e-04,-2.399999999999999790e-04,8.000000000000000383e-04,-5.000000000000000240e-05,-4.000000000000000327e-05,-1.000000000000000082e-05,5.000000000000000000e+00,9.000000000000000000e+00
2.595300000000000000e+04,-1.300000000000000157e-04,-5.000000000000000240e-05,-1.399999999999999877e-04,-2.399999999999999790e-04,8.000000000000000383e-04,-5.000000000000000240e-05,-4.000000000000000327e-05,-1.000000000000000082e-05,5.000000000000000000e+00,9.000000000000000000e+00
2.595400000000000000e+04,-1.300000000000000157e-04,-5.000000000000000240e-05,-1.399999999999999877e-04,-2.399999999999999790e-04,8.000000000000000383e-04,-5.000000000000000240e-05,-4.000000000000000327e-05,-1.000000000000000082e-05,5.000000000000000000e+00,9.000000000000000000e+00
2.595500000000000000e+04,-1.300000000000000157e-04,-5.000000000000000240e-05,-1.399999999999999877e-04,-2.399999999999999790e-04,8.000000000000000383e-04,-5.000000000000000240e-05,-4.000000000000000327e-05,-1.000000000000000082e-05,5.000000000000000000e+00,9.000000000000000000e+00
2.595600000000000000e+04,-1.899999999999999834e-04,-4.000000000000000192e-04,-9.100000000000000016e-04,3.600000000000000227e-04,4.000000000000000327e-05,-2.500000000000000052e-04,-6.999999999999999387e-05,-1.499999999999999869e-04,5.000000000000000000e+00,9.000000000000000000e+00
2.595700000000000000e+04,-1.000000000000000082e-05,2.100000000000000087e-04,4.799999999999999580e-04,-5.299999999999999807e-04,-3.499999999999999964e-04,-6.999999999999999387e-05,1.000000000000000082e-05,1.100000000000000039e-04,5.000000000000000000e+00,9.000000000000000000e+00
2.595800000000000000e+04,-1.000000000000000082e-05,2.100000000000000087e-04,4.799999999999999580e-04,-5.299999999999999807e-04,-3.499999999999999964e-04,-6.999999999999999387e-05,1.000000000000000082e-05,1.100000000000000039e-04,5.000000000000000000e+00,9.000000000000000000e+00
2.595900000000000000e+04,-1.000000000000000082e-05,2.100000000000000087e-04,4.799999999999999580e-04,-5.299999999999999807e-04,-3.499999999999999964e-04,-6.999999999999999387e-05,1.000000000000000082e-05,1.100000000000000039e-04,5.000000000000000000e+00,9.000000000000000000e+00
2.596000000000000000e+04,-1.000000000000000082e-05,2.100000000000000087e-04,4.799999999999999580e-04,-5.299999999999999807e-04,-3.499999999999999964e-04,-6.999999999999999387e-05,1.000000000000000082e-05,1.100000000000000039e-04,5.000000000000000000e+00,9.000000000000000000e+00
2.596100000000000000e+04,-1.000000000000000082e-05,2.100000000000000087e-04,4.799999999999999580e-04,-5.299999999999999807e-04,-3.499999999999999964e-04,-6.999999999999999387e-05,1.000000000000000082e-05,1.100000000000000039e-04,5.000000000000000000e+00,9.000000000000000000e+00
2.596200000000000000e+04,-1.000000000000000082e-05,2.100000000000000087e-04,4.799999999999999580e-04,-5.299999999999999807e-04,-3.499999999999999964e-04,-6.999999999999999387e-05,1.000000000000000082e-05,1.100000000000000039e-04,5.000000000000000000e+00,9.000000000000000000e+00
2.596300000000000000e+04,-1.000000000000000082e-05,2.100000000000000087e-04,4.799999999999999580e-04,-5.299999999999999807e-04,-3.499999999999999964e-04,-6.999999999999999387e-05,1.000000000000000082e-05,1.100000000000000039e-04,5.000000000000000000e+00,9.000000000000000000e+00
2.596400000000000000e+04,-1.000000000000000082e-05,2.100000000000000087e-04,4.799999999999999580e-04,-5.299999999999999807e-04,-3.499999999999999964e-04,-6.999999999999999387e-05,1.000000000000000082e-05,1.100000000000000039e-04,5.000000000000000000e+00,9.000000000000000000e+00
2.596500000000000000e+04,-1.000000000000000082e-05,2.100000000000000087e-04,4.799999999999999580e-04,-5.299999999999999807e-04,-3.499999999999999964e-04,-6.999999999999999387e-05,1.000000000000000082e-05,1.100000000000000039e-04,5.000000000000000000e+00,9.000000000000000000e+00
2.596600000000000000e+04,-1.000000000000000082e-05,2.100000000000000087e-04,4.799999999999999580e-04,-5.299999999999999807e-04,-3.499999999999999964e-04,-6.999999999999999387e-05,1.000000000000000082e-05,1.100000000000000039e-04,5.000000000000000000e+00,9.000000000000000000e+00
2.596700000000000000e+04,-1.000000000000000082e-05,2.100000000000000087e-04,4.799999999999999580e-04,-5.299999999999999807e-04,-3.499999999999999964e-04,-6.999999999999999387e-05,1.000000000000000082e-05,1.100000000000000039e-04,5.000000000000000000e+00,9.000000000000000000e+00
2.596800000000000000e+04,-1.000000000000000082e-05,2.100000000000000087e-04,4.799999999999999580e-04,-5.299999999999999807e-04,-3.499999999999999964e-04,-6.999999999999999387e-05,1.000000000000000082e-05,1.100000000000000039e-04,5.000000000000000000e+00,9.000000000000000000e+00
2.596900000000000000e+04,-1.000000000000000082e-05,2.100000000000000087e-04,4.799999999999999580e-04,-5.299999999999999807e-04,-3.499999999999999964e-04,-6.999999999999999387e-05,1.000000000000000082e-05,1.100000000000000039e-04,5.000000000000000000e+00,9.000000000000000000e+00
2.597000000000000000e+04,-1.000000000000000082e-05,2.100000000000000087e-04,4.799999999999999580e-04,-5.299999999999999807e-04,-3.499999999999999964e-04,-6.999999999999999387e-05,1.000000000000000082e-05,1.100000000000000039e-04,5.000000000000000000e+00,9.000000000000000000e+00
2.597100000000000000e+04,1.399999999999999877e-04,1.199999999999999895e-04,-5.000000000000000240e-05,-1.000000000000000048e-04,5.800000000000000034e-04,1.000000000000000082e-05,1.000000000000000082e-05,0.000000000000000000e+00,5.000000000000000000e+00,9.000000000000000000e+00
2.597200000000000000e+04,-2.900000000000000017e-04,-2.200000000000000078e-04,-4.200000000000000174e-04,5.000000000000000104e-04,4.000000000000000192e-04,1.399999999999999877e-04,4.000000000000000327e-05,-5.999999999999999474e-05,5.000000000000000000e+00,9.000000000000000000e+00
2.597300000000000000e+04,-2.900000000000000017e-04,-2.200000000000000078e-04,-4.200000000000000174e-04,5.000000000000000104e-04,4.000000000000000192e-04,1.399999999999999877e-04,4.000000000000000327e-05,-5.999999999999999474e-05,5.000000000000000000e+00,9.000000000000000000e+00
2.597400000000000000e+04,-2.900000000000000017e-04,-2.200000000000000078e-04,-4.200000000000000174e-04,5.000000000000000104e-04,4.000000000000000192e-04,1.399999999999999877e-04,4.000000000000000327e-05,-5.999999999999999474e-05,5.000000000000000000e+00,9.000000000000000000e+00
2.597500000000000000e+04,-2.900000000000000017e-04,-2.200000000000000078e-04,-4.200000000000000174e-04,5.000000000000000104e-04,4.000000000000000192e-04,1.399999999999999877e-04,4.000000000000000327e-05,-5.999999999999999474e-05,5.000000000000000000e+00,9.000000000000000000e+00
2.597600000000000000e+04,-2.900000000000000017e-04,-2.200000000000000078e-04,-4.200000000000000174e-04,5.000000000000000104e-04,4.000000000000000192e-04,1.399999999999999877e-04,4.000000000000000327e-05,-5.999999999999999474e-05,5.000000000000000000e+00,9.000000000000000000e+00
2.597700000000000000e+04,-2.900000000000000017e-04,-2.200000000000000078e-04,-4.200000000000000174e-04,5.000000000000000104e-04,4.000000000000000192e-04,1.399999999999999877e-04,4.000000000000000327e-05,-5.999999999999999474e-05,5.000000000000000000e+00,9.000000000000000000e+00
2.597800000000000000e+04,-2.900000000000000017e-04,-2.200000000000000078e-04,-4.200000000000000174e-04,5.000000000000000104e-04,4.000000000000000192e-04,1.399999999999999877e-04,4.000000000000000327e-05,-5.999999999999999474e-05,5.000000000000000000e+00,9.000000000000000000e+00
2.597900000000000000e+04,-2.900000000000000017e-04,-2.200000000000000078e-04,-4.200000000000000174e-04,5.000000000000000104e-04,4.000000000000000192e-04,1.399999999999999877e-04,4.000000000000000327e-05,-5.999999999999999474e-05,5.000000000000000000e+00,9.000000000000000000e+00
2.598000000000000000e+04,-2.900000000000000017e-04,-2.200000000000000078e-04,-4.200000000000000174e-04,5.000000000000000104e-04,4.000000000000000192e-04,1.399999999999999877e-04,4.000000000000000327e-05,-5.999999999999999474e-05,5.000000000000000000e+00,9.000000000000000000e+00
2.598100000000000000e+04,-2.900000000000000017e-04,-2.200000000000000078e-04,-4.200000000000000174e-04,5.000000000000000104e-04,4.000000000000000192e-04,1.399999999999999877e-04,4.000000000000000327e-05,-5.999999999999999474e-05,5.000000000000000000e+00,9.000000000000000000e+00
2.598200000000000000e+04,-2.900000000000000017e-04,-2.200000000000000078e-04,-4.200000000000000174e-04,5.000000000000000104e-04,4.000000000000000192e-04,1.399999999999999877e-04,4.000000000000000327e-05,-5.999999999999999474e-05,5.000000000000000000e+00,9.000000000000000000e+00
2.598300000000000000e+04,-2.900000000000000017e-04,-2.200000000000000078e-04,-4.200000000000000174e-04,5.000000000000000104e-04,4.000000000000000192e-04,1.399999999999999877e-04,4.000000000000000327e-05,-5.999999999999999474e-05,5.000000000000000000e+00,9.000000000000000000e+00
2.598400000000000000e+04,-2.900000000000000017e-04,-2.200000000000000078e-04,-4.200000000000000174e-04,5.000000000000000104e-04,4.000000000000000192e-04,1.399999999999999877e-04,4.000000000000000327e-05,-5.999999999999999474e-05,5.000000000000000000e+00,9.000000000000000000e+00
2.598500000000000000e+04,-2.900000000000000017e-04,-2.200000000000000078e-04,-4.200000000000000174e-04,5.000000000000000104e-04,4.000000000000000192e-04,1.399999999999999877e-04,4.000000000000000327e-05,-5.999999999999999474e-05,5.000000000000000000e+00,9.000000000000000000e+00
2.598600000000000000e+04,-2.900000000000000017e-04,-2.200000000000000078e-04,-4.200000000000000174e-04,5.000000000000000104e-04,4.000000000000000192e-04,1.399999999999999877e-04,4.000000000000000327e-05,-5.999999999999999474e-05,5.000000000000000000e+00,9.000000000000000000e+00
2.598800000000000000e+04,-2.900000000000000017e-04,-2.200000000000000078e-04,-4.200000000000000174e-04,5.000000000000000104e-04,4.000000000000000192e-04,1.399999999999999877e-04,4.000000000000000327e-05,-5.999999999999999474e-05,5.000000000000000000e+00,9.000000000000000000e+00
2.598900000000000000e+04,-2.900000000000000017e-04,-2.200000000000000078e-04,-4.200000000000000174e-04,5.000000000000000104e-04,4.000000000000000192e-04,1.399999999999999877e-04,4.000000000000000327e-05,-5.999999999999999474e-05,5.000000000000000000e+00,9.000000000000000000e+00
2.599000000000000000e+04,-2.900000000000000017e-04,-2.200000000000000078e-04,-4.200000000000000174e-04,5.000000000000000104e-04,4.000000000000000192e-04,1.399999999999999877e-04,4.000000000000000327e-05,-5.999999999999999474e-05,5.000000000000000000e+00,9.000000000000000000e+00
2.599100000000000000e+04,-2.900000000000000017e-04,-2.200000000000000078e-04,-4.200000000000000174e-04,5.000000000000000104e-04,4.000000000000000192e-04,1.399999999999999877e-04,4.000000000000000327e-05,-5.999999999999999474e-05,5.000000000000000000e+00,9.000000000000000000e+00
2.599200000000000000e+04,-2.900000000000000017e-04,-2.200000000000000078e-04,-4.200000000000000174e-04,5.000000000000000104e-04,4.000000000000000192e-04,1.399999999999999877e-04,4.000000000000000327e-05,-5.999999999999999474e-05,5.000000000000000000e+00,9.000000000000000000e+00
2.599300000000000000e+04,-5.999999999999999474e-05,-1.100000000000000039e-04,-1.899999999999999834e-04,-1.000000000000000048e-04,0.000000000000000000e+00,1.199999999999999895e-04,1.000000000000000082e-05,-1.000000000000000082e-05,5.000000000000000000e+00,9.000000000000000000e+00
2.599400000000000000e+04,1.000000000000000048e-04,1.100000000000000039e-04,-1.300000000000000157e-04,-3.699999999999999947e-04,2.100000000000000087e-04,1.399999999999999877e-04,6.999999999999999387e-05,2.000000000000000164e-05,5.000000000000000000e+00,9.000000000000000000e+00
2.599500000000000000e+04,1.000000000000000048e-04,1.100000000000000039e-04,-1.300000000000000157e-04,-3.699999999999999947e-04,2.100000000000000087e-04,1.399999999999999877e-04,6.999999999999999387e-05,2.000000000000000164e-05,5.000000000000000000e+00,9.000000000000000000e+00
2.599600000000000000e+04,1.000000000000000048e-04,1.100000000000000039e-04,-1.300000000000000157e-04,-3.699999999999999947e-04,2.100000000000000087e-04,1.399999999999999877e-04,6.999999999999999387e-05,2.000000000000000164e-05,5.000000000000000000e+00,9.000000000000000000e+00
2.599700000000000000e+04,1.000000000000000048e-04,1.100000000000000039e-04,-1.300000000000000157e-04,-3.699999999999999947e-04,2.100000000000000087e-04,1.399999999999999877e-04,6.999999999999999387e-05,2.000000000000000164e-05,5.000000000000000000e+00,9.000000000000000000e+00
2.599800000000000000e+04,1.000000000000000048e-04,1.100000000000000039e-04,-1.300000000000000157e-04,-3.699999999999999947e-04,2.100000000000000087e-04,1.399999999999999877e-04,6.999999999999999387e-05,2.000000000000000164e-05,5.000000000000000000e+00,9.000000000000000000e+00
2.599900000000000000e+04,1.000000000000000048e-04,1.100000000000000039e-04,-1.300000000000000157e-04,-3.699999999999999947e-04,2.100000000000000087e-04,1.399999999999999877e-04,6.999999999999999387e-05,2.000000000000000164e-05,5.000000000000000000e+00,9.000000000000000000e+00
2.600000000000000000e+04,1.000000000000000048e-04,1.100000000000000039e-04,-1.300000000000000157e-04,-3.699999999999999947e-04,2.100000000000000087e-04,1.399999999999999877e-04,6.999999999999999387e-05,2.000000000000000164e-05,5.000000000000000000e+00,9.000000000000000000e+00
2.600100000000000000e+04,1.000000000000000048e-04,1.100000000000000039e-04,-1.300000000000000157e-04,-3.699999999999999947e-04,2.100000000000000087e-04,1.399999999999999877e-04,6.999999999999999387e-05,2.000000000000000164e-05,5.000000000000000000e+00,9.000000000000000000e+00
2.600200000000000000e+04,1.000000000000000048e-04,1.100000000000000039e-04,-1.300000000000000157e-04,-3.699999999999999947e-04,2.100000000000000087e-04,1.399999999999999877e-04,6.999999999999999387e-05,2.000000000000000164e-05,5.000000000000000000e+00,9.000000000000000000e+00
2.600300000000000000e+04,1.000000000000000048e-04,1.100000000000000039e-04,-1.300000000000000157e-04,-3.699999999999999947e-04,2.100000000000000087e-04,1.399999999999999877e-04,6.999999999999999387e-05,2.000000000000000164e-05,5.000000000000000000e+00,9.000000000000000000e+00
2.600400000000000000e+04,1.000000000000000048e-04,1.100000000000000039e-04,-1.300000000000000157e-04,-3.699999999999999947e-04,2.100000000000000087e-04,1.399999999999999877e-04,6.999999999999999387e-05,2.000000000000000164e-05,5.000000000000000000e+00,9.000000000000000000e+00
2.600500000000000000e+04,1.000000000000000048e-04,1.100000000000000039e-04,-1.300000000000000157e-04,-3.699999999999999947e-04,2.100000000000000087e-04,1.399999999999999877e-04,6.999999999999999387e-05,2.000000000000000164e-05,5.000000000000000000e+00,9.000000000000000000e+00
2.600600000000000000e+04,1.000000000000000048e-04,1.100000000000000039e-04,-1.300000000000000157e-04,-3.699999999999999947e-04,2.100000000000000087e-04,1.399999999999999877e-04,6.999999999999999387e-05,2.000000000000000164e-05,5.000000000000000000e+00,9.000000000000000000e+00
2.600700000000000000e+04,1.000000000000000048e-04,1.100000000000000039e-04,-1.300000000000000157e-04,-3.699999999999999947e-04,2.100000000000000087e-04,1.399999999999999877e-04,6.999999999999999387e-05,2.000000000000000164e-05,5.000000000000000000e+00,9.000000000000000000e+00
2.600800000000000000e+04,1.000000000000000048e-04,1.100000000000000039e-04,-1.300000000000000157e-04,-3.699999999999999947e-04,2.100000000000000087e-04,1.399999999999999877e-04,6.999999999999999387e-05,2.000000000000000164e-05,5.000000000000000000e+00,9.000000000000000000e+00
2.600900000000000000e+04,1.000000000000000048e-04,1.100000000000000039e-04,-1.300000000000000157e-04,-3.699999999999999947e-04,2.100000000000000087e-04,1.399999999999999877e-04,6.999999999999999387e-05,2.000000000000000164e-05,5.000000000000000000e+00,9.000000000000000000e+00
2.601000000000000000e+04,1.000000000000000048e-04,1.100000000000000039e-04,-1.300000000000000157e-04,-3.699999999999999947e-04,2.100000000000000087e-04,1.399999999999999877e-04,6.999999999999999387e-05,2.000000000000000164e-05,5.000000000000000000e+00,9.000000000000000000e+00
2.601100000000000000e+04,1.000000000000000048e-04,1.100000000000000039e-04,-1.300000000000000157e-04,-3.699999999999999947e-04,2.100000000000000087e-04,1.399999999999999877e-04,6.999999999999999387e-05,2.000000000000000164e-05,5.000000000000000000e+00,9.000000000000000000e+00
2.601200000000000000e+04,1.000000000000000048e-04,1.100000000000000039e-04,-1.300000000000000157e-04,-3.699999999999999947e-04,2.100000000000000087e-04,1.399999999999999877e-04,6.999999999999999387e-05,2.000000000000000164e-05,5.000000000000000000e+00,9.000000000000000000e+00
2.601300000000000000e+04,1.000000000000000048e-04,1.100000000000000039e-04,-1.300000000000000157e-04,-3.699999999999999947e-04,2.100000000000000087e-04,1.399999999999999877e-04,6.999999999999999387e-05,2.000000000000000164e-05,5.000000000000000000e+00,9.000000000000000000e+00
2.601400000000000000e+04,1.000000000000000048e-04,1.100000000000000039e-04,-1.300000000000000157e-04,-3.699999999999999947e-04,2.100000000000000087e-04,1.399999999999999877e-04,6.999999999999999387e-05,2.000000000000000164e-05,5.000000000000000000e+00,9.000000000000000000e+00
2.601500000000000000e+04,1.000000000000000048e-04,1.100000000000000039e-04,-1.300000000000000157e-04,-3.699999999999999947e-04,2.100000000000000087e-04,1.399999999999999877e-04,6.999999999999999387e-05,2.000000000000000164e-05,5.000000000000000000e+00,9.000000000000000000e+00
2.601600000000000000e+04,1.000000000000000048e-04,1.100000000000000039e-04,-1.300000000000000157e-04,-3.699999999999999947e-04,2.100000000000000087e-04,1.399999999999999877e-04,6.999999999999999387e-05,2.000000000000000164e-05,5.000000000000000000e+00,9.000000000000000000e+00
2.601700000000000000e+04,2.999999999999999737e-05,-2.999999999999999737e-05,2.100000000000000087e-04,1.100000000000000039e-04,-2.999999999999999737e-05,4.000000000000000327e-05,4.000000000000000327e-05,1.000000000000000082e-05,5.000000000000000000e+00,9.000000000000000000e+00
2.601800000000000000e+04,-1.600000000000000131e-04,-4.000000000000000327e-05,-1.000000000000000082e-05,-2.000000000000000164e-05,-3.099999999999999999e-04,-4.000000000000000327e-05,-5.000000000000000240e-05,-5.999999999999999474e-05,5.000000000000000000e+00,9.000000000000000000e+00
2.601900000000000000e+04,-1.600000000000000131e-04,-4.000000000000000327e-05,-1.000000000000000082e-05,-2.000000000000000164e-05,-3.099999999999999999e-04,-4.000000000000000327e-05,-5.000000000000000240e-05,-5.999999999999999474e-05,5.000000000000000000e+00,9.000000000000000000e+00
2.602000000000000000e+04,-1.600000000000000131e-04,-4.000000000000000327e-05,-1.000000000000000082e-05,-2.000000000000000164e-05,-3.099999999999999999e-04,-4.000000000000000327e-05,-5.000000000000000240e-05,-5.999999999999999474e-05,5.000000000000000000e+00,9.000000000000000000e+00
2.602100000000000000e+04,-1.600000000000000131e-04,-4.000000000000000327e-05,-1.000000000000000082e-05,-2.000000000000000164e-05,-3.099999999999999999e-04,-4.000000000000000327e-05,-5.000000000000000240e-05,-5.999999999999999474e-05,5.000000000000000000e+00,9.000000000000000000e+00
2.602200000000000000e+04,-1.600000000000000131e-04,-4.000000000000000327e-05,-1.000000000000000082e-05,-2.000000000000000164e-05,-3.099999999999999999e-04,-4.000000000000000327e-05,-5.000000000000000240e-05,-5.999999999999999474e-05,5.000000000000000000e+00,9.000000000000000000e+00
2.602300000000000000e+04,-1.600000000000000131e-04,-4.000000000000000327e-05,-1.000000000000000082e-05,-2.000000000000000164e-05,-3.099999999999999999e-04,-4.000000000000000327e-05,-5.000000000000000240e-05,-5.999999999999999474e-05,5.000000000000000000e+00,9.000000000000000000e+00
2.602400000000000000e+04,-1.600000000000000131e-04,-4.000000000000000327e-05,-1.000000000000000082e-05,-2.000000000000000164e-05,-3.099999999999999999e-04,-4.000000000000000327e-05,-5.000000000000000240e-05,-5.999999999999999474e-05,5.000000000000000000e+00,9.000000000000000000e+00
2.602500000000000000e+04,-1.600000000000000131e-04,-4.000000000000000327e-05,-1.000000000000000082e-05,-2.000000000000000164e-05,-3.099999999999999999e-04,-4.000000000000000327e-05,-5.000000000000000240e-05,-5.999999999999999474e-05,5.000000000000000000e+00,9.000000000000000000e+00
2.602600000000000000e+04,-1.600000000000000131e-04,-4.000000000000000327e-05,-1.000000000000000082e-05,-2.000000000000000164e-05,-3.099999999999999999e-04,-4.000000000000000327e-05,-5.000000000000000240e-05,-5.999999999999999474e-05,5.000000000000000000e+00,9.000000000000000000e+00
2.602700000000000000e+04,-1.600000000000000131e-04,-4.000000000000000327e-05,-1.000000000000000082e-05,-2.000000000000000164e-05,-3.099999999999999999e-04,-4.000000000000000327e-05,-5.000000000000000240e-05,-5.999999999999999474e-05,5.000000000000000000e+00,9.000000000000000000e+00
2.602800000000000000e+04,-1.600000000000000131e-04,-4.000000000000000327e-05,-1.000000000000000082e-05,-2.000000000000000164e-05,-3.099999999999999999e-04,-4.000000000000000327e-05,-5.000000000000000240e-05,-5.999999999999999474e-05,5.000000000000000000e+00,9.000000000000000000e+00
2.602900000000000000e+04,-1.600000000000000131e-04,-4.000000000000000327e-05,-1.000000000000000082e-05,-2.000000000000000164e-05,-3.099999999999999999e-04,-4.000000000000000327e-05,-5.000000000000000240e-05,-5.999999999999999474e-05,5.000000000000000000e+00,9.000000000000000000e+00
2.603000000000000000e+04,-1.600000000000000131e-04,-4.000000000000000327e-05,-1.000000000000000082e-05,-2.000000000000000164e-05,-3.099999999999999999e-04,-4.000000000000000327e-05,-5.000000000000000240e-05,-5.999999999999999474e-05,5.000000000000000000e+00,9.000000000000000000e+00
2.603100000000000000e+04,-5.999999999999999474e-05,-2.200000000000000078e-04,-2.900000000000000017e-04,1.300000000000000157e-04,2.500000000000000052e-04,9.000000000000000567e-05,-5.000000000000000240e-05,-5.999999999999999474e-05,5.000000000000000000e+00,9.000000000000000000e+00
2.603200000000000000e+04,1.100000000000000039e-04,1.800000000000000113e-04,5.999999999999999474e-05,-5.699999999999999772e-04,-7.299999999999999632e-04,-5.000000000000000240e-05,2.000000000000000164e-05,8.000000000000000654e-05,5.000000000000000000e+00,9.000000000000000000e+00
2.603300000000000000e+04,1.100000000000000039e-04,1.800000000000000113e-04,5.999999999999999474e-05,-5.699999999999999772e-04,-7.299999999999999632e-04,-5.000000000000000240e-05,2.000000000000000164e-05,8.000000000000000654e-05,5.000000000000000000e+00,9.000000000000000000e+00
2.603400000000000000e+04,1.100000000000000039e-04,1.800000000000000113e-04,5.999999999999999474e-05,-5.699999999999999772e-04,-7.299999999999999632e-04,-5.000000000000000240e-05,2.000000000000000164e-05,8.000000000000000654e-05,5.000000000000000000e+00,9.000000000000000000e+00
2.603500000000000000e+04,1.100000000000000039e-04,1.800000000000000113e-04,5.999999999999999474e-05,-5.699999999999999772e-04,-7.299999999999999632e-04,-5.000000000000000240e-05,2.000000000000000164e-05,8.000000000000000654e-05,5.000000000000000000e+00,9.000000000000000000e+00
2.603600000000000000e+04,1.100000000000000039e-04,1.800000000000000113e-04,5.999999999999999474e-05,-5.699999999999999772e-04,-7.299999999999999632e-04,-5.000000000000000240e-05,2.000000000000000164e-05,8.000000000000000654e-05,5.000000000000000000e+00,9.000000000000000000e+00
2.603800000000000000e+04,1.100000000000000039e-04,1.800000000000000113e-04,5.999999999999999474e-05,-5.699999999999999772e-04,-7.299999999999999632e-04,-5.000000000000000240e-05,2.000000000000000164e-05,8.000000000000000654e-05,5.000000000000000000e+00,9.000000000000000000e+00
2.603900000000000000e+04,1.100000000000000039e-04,1.800000000000000113e-04,5.999999999999999474e-05,-5.699999999999999772e-04,-7.299999999999999632e-04,-5.000000000000000240e-05,2.000000000000000164e-05,8.000000000000000654e-05,5.000000000000000000e+00,9.000000000000000000e+00
2.604000000000000000e+04,1.100000000000000039e-04,1.800000000000000113e-04,5.999999999999999474e-05,-5.699999999999999772e-04,-7.299999999999999632e-04,-5.000000000000000240e-05,2.000000000000000164e-05,8.000000000000000654e-05,5.000000000000000000e+00,9.000000000000000000e+00
2.604100000000000000e+04,1.100000000000000039e-04,1.800000000000000113e-04,5.999999999999999474e-05,-5.699999999999999772e-04,-7.299999999999999632e-04,-5.000000000000000240e-05,2.000000000000000164e-05,8.000000000000000654e-05,5.000000000000000000e+00,9.000000000000000000e+00
2.604200000000000000e+04,1.100000000000000039e-04,1.800000000000000113e-04,5.999999999999999474e-05,-5.699999999999999772e-04,-7.299999999999999632e-04,-5.000000000000000240e-05,2.000000000000000164e-05,8.000000000000000654e-05,5.000000000000000000e+00,9.000000000000000000e+00
2.604300000000000000e+04,1.100000000000000039e-04,1.800000000000000113e-04,5.999999999999999474e-05,-5.699999999999999772e-04,-7.299999999999999632e-04,-5.000000000000000240e-05,2.000000000000000164e-05,8.000000000000000654e-05,5.000000000000000000e+00,9.000000000000000000e+00
2.604400000000000000e+04,1.100000000000000039e-04,1.800000000000000113e-04,5.999999999999999474e-05,-5.699999999999999772e-04,-7.299999999999999632e-04,-5.000000000000000240e-05,2.000000000000000164e-05,8.000000000000000654e-05,5.000000000000000000e+00,9.000000000000000000e+00
2.604500000000000000e+04,1.100000000000000039e-04,1.800000000000000113e-04,5.999999999999999474e-05,-5.699999999999999772e-04,-7.299999999999999632e-04,-5.000000000000000240e-05,2.000000000000000164e-05,8.000000000000000654e-05,5.000000000000000000e+00,9.000000000000000000e+00
2.604600000000000000e+04,1.100000000000000039e-04,1.800000000000000113e-04,5.999999999999999474e-05,-5.699999999999999772e-04,-7.299999999999999632e-04,-5.000000000000000240e-05,2.000000000000000164e-05,8.000000000000000654e-05,5.000000000000000000e+00,9.000000000000000000e+00
2.604700000000000000e+04,1.100000000000000039e-04,1.800000000000000113e-04,5.999999999999999474e-05,-5.699999999999999772e-04,-7.299999999999999632e-04,-5.000000000000000240e-05,2.000000000000000164e-05,8.000000000000000654e-05,5.000000000000000000e+00,9.000000000000000000e+00
2.604800000000000000e+04,1.100000000000000039e-04,1.800000000000000113e-04,5.999999999999999474e-05,-5.699999999999999772e-04,-7.299999999999999632e-04,-5.000000000000000240e-05,2.000000000000000164e-05,8.000000000000000654e-05,5.000000000000000000e+00,9.000000000000000000e+00
2.604900000000000000e+04,1.100000000000000039e-04,1.800000000000000113e-04,5.999999999999999474e-05,-5.699999999999999772e-04,-7.299999999999999632e-04,-5.000000000000000240e-05,2.000000000000000164e-05,8.000000000000000654e-05,5.000000000000000000e+00,9.000000000000000000e+00
2.605000000000000000e+04,1.100000000000000039e-04,1.800000000000000113e-04,5.999999999999999474e-05,-5.699999999999999772e-04,-7.299999999999999632e-04,-5.000000000000000240e-05,2.000000000000000164e-05,8.000000000000000654e-05,5.000000000000000000e+00,9.000000000000000000e+00
2.605100000000000000e+04,1.100000000000000039e-04,1.800000000000000113e-04,5.999999999999999474e-05,-5.699999999999999772e-04,-7.299999999999999632e-04,-5.000000000000000240e-05,2.000000000000000164e-05,8.000000000000000654e-05,5.000000000000000000e+00,9.000000000000000000e+00
2.605200000000000000e+04,1.100000000000000039e-04,1.800000000000000113e-04,5.999999999999999474e-05,-5.699999999999999772e-04,-7.299999999999999632e-04,-5.000000000000000240e-05,2.000000000000000164e-05,8.000000000000000654e-05,5.000000000000000000e+00,9.000000000000000000e+00
2.605300000000000000e+04,3.499999999999999964e-04,1.300000000000000157e-04,3.299999999999999982e-04,1.499999999999999869e-04,1.800000000000000113e-04,-2.999999999999999737e-05,-1.000000000000000082e-05,1.199999999999999895e-04,5.000000000000000000e+00,9.000000000000000000e+00
2.605400000000000000e+04,-2.000000000000000096e-04,-5.000000000000000104e-04,-4.599999999999999597e-04,6.199999999999999999e-04,3.499999999999999964e-04,1.000000000000000082e-05,-6.999999999999999387e-05,-1.600000000000000131e-04,5.000000000000000000e+00,9.000000000000000000e+00
2.605500000000000000e+04,-2.000000000000000096e-04,-5.000000000000000104e-04,-4.599999999999999597e-04,6.199999999999999999e-04,3.499999999999999964e-04,1.000000000000000082e-05,-6.999999999999999387e-05,-1.600000000000000131e-04,5.000000000000000000e+00,9.000000000000000000e+00
2.605600000000000000e+04,-2.000000000000000096e-04,-5.000000000000000104e-04,-4.599999999999999597e-04,6.199999999999999999e-04,3.499999999999999964e-04,1.000000000000000082e-05,-6.999999999999999387e-05,-1.600000000000000131e-04,5.000000000000000000e+00,9.000000000000000000e+00
2.605700000000000000e+04,-2.000000000000000096e-04,-5.000000000000000104e-04,-4.599999999999999597e-04,6.199999999999999999e-04,3.499999999999999964e-04,1.000000000000000082e-05,-6.999999999999999387e-05,-1.600000000000000131e-04,5.000000000000000000e+00,9.000000000000000000e+00
2.605800000000000000e+04,-2.000000000000000096e-04,-5.000000000000000104e-04,-4.599999999999999597e-04,6.199999999999999999e-04,3.499999999999999964e-04,1.000000000000000082e-05,-6.999999999999999387e-05,-1.600000000000000131e-04,5.000000000000000000e+00,9.000000000000000000e+00
2.605900000000000000e+04,-2.000000000000000096e-04,-5.000000000000000104e-04,-4.599999999999999597e-04,6.199999999999999999e-04,3.499999999999999964e-04,1.000000000000000082e-05,-6.999999999999999387e-05,-1.600000000000000131e-04,5.000000000000000000e+00,9.000000000000000000e+00
2.606000000000000000e+04,-2.000000000000000096e-04,-5.000000000000000104e-04,-4.599999999999999597e-04,6.199999999999999999e-04,3.499999999999999964e-04,1.000000000000000082e-05,-6.999999999999999387e-05,-1.600000000000000131e-04,5.000000000000000000e+00,9.000000000000000000e+00
2.606100000000000000e+04,-2.000000000000000096e-04,-5.000000000000000104e-04,-4.599999999999999597e-04,6.199999999999999999e-04,3.499999999999999964e-04,1.000000000000000082e-05,-6.999999999999999387e-05,-1.600000000000000131e-04,5.000000000000000000e+00,9.000000000000000000e+00
2.606200000000000000e+04,-2.000000000000000096e-04,-5.000000000000000104e-04,-4.599999999999999597e-04,6.199999999999999999e-04,3.499999999999999964e-04,1.000000000000000082e-05,-6.999999999999999387e-05,-1.600000000000000131e-04,5.000000000000000000e+00,9.000000000000000000e+00
2.606300000000000000e+04,-2.000000000000000096e-04,-5.000000000000000104e-04,-4.599999999999999597e-04,6.199999999999999999e-04,3.499999999999999964e-04,1.000000000000000082e-05,-6.999999999999999387e-05,-1.600000000000000131e-04,5.000000000000000000e+00,9.000000000000000000e+00
2.606400000000000000e+04,-2.000000000000000096e-04,-5.000000000000000104e-04,-4.599999999999999597e-04,6.199999999999999999e-04,3.499999999999999964e-04,1.000000000000000082e-05,-6.999999999999999387e-05,-1.600000000000000131e-04,5.000000000000000000e+00,9.000000000000000000e+00
2.606500000000000000e+04,-2.000000000000000096e-04,-5.000000000000000104e-04,-4.599999999999999597e-04,6.199999999999999999e-04,3.499999999999999964e-04,1.000000000000000082e-05,-6.999999999999999387e-05,-1.600000000000000131e-04,5.000000000000000000e+00,9.000000000000000000e+00
2.606600000000000000e+04,-2.000000000000000096e-04,-5.000000000000000104e-04,-4.599999999999999597e-04,6.199999999999999999e-04,3.499999999999999964e-04,1.000000000000000082e-05,-6.999999999999999387e-05,-1.600000000000000131e-04,5.000000000000000000e+00,9.000000000000000000e+00
2.606700000000000000e+04,-2.000000000000000096e-04,-5.000000000000000104e-04,-4.599999999999999597e-04,6.199999999999999999e-04,3.499999999999999964e-04,1.000000000000000082e-05,-6.999999999999999387e-05,-1.600000000000000131e-04,5.000000000000000000e+00,9.000000000000000000e+00
2.606800000000000000e+04,-2.000000000000000096e-04,-5.000000000000000104e-04,-4.599999999999999597e-04,6.199999999999999999e-04,3.499999999999999964e-04,1.000000000000000082e-05,-6.999999999999999387e-05,-1.600000000000000131e-04,5.000000000000000000e+00,9.000000000000000000e+00
2.606900000000000000e+04,-2.000000000000000096e-04,-5.000000000000000104e-04,-4.599999999999999597e-04,6.199999999999999999e-04,3.499999999999999964e-04,1.000000000000000082e-05,-6.999999999999999387e-05,-1.600000000000000131e-04,5.000000000000000000e+00,9.000000000000000000e+00
2.607000000000000000e+04,-2.000000000000000096e-04,-5.000000000000000104e-04,-4.599999999999999597e-04,6.199999999999999999e-04,3.499999999999999964e-04,1.000000000000000082e-05,-6.999999999999999387e-05,-1.600000000000000131e-04,5.000000000000000000e+00,9.000000000000000000e+00
2.607100000000000000e+04,-2.000000000000000096e-04,-5.000000000000000104e-04,-4.599999999999999597e-04,6.199999999999999999e-04,3.499999999999999964e-04,1.000000000000000082e-05,-6.999999999999999387e-05,-1.600000000000000131e-04,5.000000000000000000e+00,9.000000000000000000e+00
2.607200000000000000e+04,-2.000000000000000096e-04,-5.000000000000000104e-04,-4.599999999999999597e-04,6.199999999999999999e-04,3.499999999999999964e-04,1.000000000000000082e-05,-6.999999999999999387e-05,-1.600000000000000131e-04,5.000000000000000000e+00,9.000000000000000000e+00
2.607300000000000000e+04,-2.000000000000000096e-04,-5.000000000000000104e-04,-4.599999999999999597e-04,6.199999999999999999e-04,3.499999999999999964e-04,1.000000000000000082e-05,-6.999999999999999387e-05,-1.600000000000000131e-04,5.000000000000000000e+00,9.000000000000000000e+00
2.607400000000000000e+04,-2.000000000000000096e-04,-5.000000000000000104e-04,-4.599999999999999597e-04,6.199999999999999999e-04,3.499999999999999964e-04,1.000000000000000082e-05,-6.999999999999999387e-05,-1.600000000000000131e-04,5.000000000000000000e+00,9.000000000000000000e+00
2.607500000000000000e+04,-2.000000000000000096e-04,-5.000000000000000104e-04,-4.599999999999999597e-04,6.199999999999999999e-04,3.499999999999999964e-04,1.000000000000000082e-05,-6.999999999999999387e-05,-1.600000000000000131e-04,5.000000000000000000e+00,9.000000000000000000e+00
2.607600000000000000e+04,-1.199999999999999895e-04,-1.199999999999999895e-04,-6.900000000000000751e-04,-7.900000000000000121e-04,-3.399999999999999702e-04,-1.000000000000000048e-04,4.000000000000000327e-05,1.000000000000000082e-05,5.000000000000000000e+00,9.000000000000000000e+00
2.607700000000000000e+04,-1.000000000000000082e-05,1.100000000000000039e-04,2.999999999999999737e-04,4.499999999999999877e-04,6.599999999999999964e-04,9.000000000000000567e-05,1.100000000000000039e-04,-4.000000000000000327e-05,5.000000000000000000e+00,9.000000000000000000e+00
2.607800000000000000e+04,-1.000000000000000082e-05,1.100000000000000039e-04,2.999999999999999737e-04,4.499999999999999877e-04,6.599999999999999964e-04,9.000000000000000567e-05,1.100000000000000039e-04,-4.000000000000000327e-05,5.000000000000000000e+00,9.000000000000000000e+00
2.607900000000000000e+04,-1.000000000000000082e-05,1.100000000000000039e-04,2.999999999999999737e-04,4.499999999999999877e-04,6.599999999999999964e-04,9.000000000000000567e-05,1.100000000000000039e-04,-4.000000000000000327e-05,5.000000000000000000e+00,9.000000000000000000e+00
2.608000000000000000e+04,-1.000000000000000082e-05,1.100000000000000039e-04,2.999999999999999737e-04,4.499999999999999877e-04,6.599999999999999964e-04,9.000000000000000567e-05,1.100000000000000039e-04,-4.000000000000000327e-05,5.000000000000000000e+00,9.000000000000000000e+00
2.608100000000000000e+04,-1.000000000000000082e-05,1.100000000000000039e-04,2.999999999999999737e-04,4.499999999999999877e-04,6.599999999999999964e-04,9.000000000000000567e-05,1.100000000000000039e-04,-4.000000000000000327e-05,5.000000000000000000e+00,9.000000000000000000e+00
2.608200000000000000e+04,-1.000000000000000082e-05,1.100000000000000039e-04,2.999999999999999737e-04,4.499999999999999877e-04,6.599999999999999964e-04,9.000000000000000567e-05,1.100000000000000039e-04,-4.000000000000000327e-05,5.000000000000000000e+00,9.000000000000000000e+00
2.608300000000000000e+04,-1.000000000000000082e-05,1.100000000000000039e-04,2.999999999999999737e-04,4.499999999999999877e-04,6.599999999999999964e-04,9.000000000000000567e-05,1.100000000000000039e-04,-4.000000000000000327e-05,5.000000000000000000e+00,9.000000000000000000e+00
2.608400000000000000e+04,-1.000000000000000082e-05,1.100000000000000039e-04,2.999999999999999737e-04,4.499999999999999877e-04,6.599999999999999964e-04,9.000000000000000567e-05,1.100000000000000039e-04,-4.000000000000000327e-05,5.000000000000000000e+00,9.000000000000000000e+00
2.608500000000000000e+04,-1.000000000000000082e-05,1.100000000000000039e-04,2.999999999999999737e-04,4.499999999999999877e-04,6.599999999999999964e-04,9.000000000000000567e-05,1.100000000000000039e-04,-4.000000000000000327e-05,5.000000000000000000e+00,9.000000000000000000e+00
2.608600000000000000e+04,-1.000000000000000082e-05,1.100000000000000039e-04,2.999999999999999737e-04,4.499999999999999877e-04,6.599999999999999964e-04,9.000000000000000567e-05,1.100000000000000039e-04,-4.000000000000000327e-05,5.000000000000000000e+00,9.000000000000000000e+00
2.608800000000000000e+04,-1.000000000000000082e-05,1.100000000000000039e-04,2.999999999999999737e-04,4.499999999999999877e-04,6.599999999999999964e-04,9.000000000000000567e-05,1.100000000000000039e-04,-4.000000000000000327e-05,5.000000000000000000e+00,9.000000000000000000e+00
2.609000000000000000e+04,-1.000000000000000082e-05,1.100000000000000039e-04,2.999999999999999737e-04,4.499999999999999877e-04,6.599999999999999964e-04,9.000000000000000567e-05,1.100000000000000039e-04,-4.000000000000000327e-05,5.000000000000000000e+00,9.000000000000000000e+00
2.609100000000000000e+04,2.000000000000000164e-05,-5.999999999999999474e-05,-1.600000000000000131e-04,-1.100000000000000039e-04,3.299999999999999982e-04,-2.999999999999999737e-05,-5.000000000000000240e-05,0.000000000000000000e+00,5.000000000000000000e+00,9.000000000000000000e+00
2.609200000000000000e+04,-1.499999999999999869e-04,-3.399999999999999702e-04,-7.399999999999999894e-04,-3.399999999999999702e-04,-6.499999999999999702e-04,-2.299999999999999799e-04,-1.899999999999999834e-04,-1.000000000000000048e-04,5.000000000000000000e+00,9.000000000000000000e+00
2.609300000000000000e+04,-1.499999999999999869e-04,-3.399999999999999702e-04,-7.399999999999999894e-04,-3.399999999999999702e-04,-6.499999999999999702e-04,-2.299999999999999799e-04,-1.899999999999999834e-04,-1.000000000000000048e-04,5.000000000000000000e+00,9.000000000000000000e+00
2.609400000000000000e+04,-1.499999999999999869e-04,-3.399999999999999702e-04,-7.399999999999999894e-04,-3.399999999999999702e-04,-6.499999999999999702e-04,-2.299999999999999799e-04,-1.899999999999999834e-04,-1.000000000000000048e-04,5.000000000000000000e+00,9.000000000000000000e+00
2.609500000000000000e+04,-1.499999999999999869e-04,-3.399999999999999702e-04,-7.399999999999999894e-04,-3.399999999999999702e-04,-6.499999999999999702e-04,-2.299999999999999799e-04,-1.899999999999999834e-04,-1.000000000000000048e-04,5.000000000000000000e+00,9.000000000000000000e+00
2.609600000000000000e+04,-1.499999999999999869e-04,-3.399999999999999702e-04,-7.399999999999999894e-04,-3.399999999999999702e-04,-6.499999999999999702e-04,-2.299999999999999799e-04,-1.899999999999999834e-04,-1.000000000000000048e-04,5.000000000000000000e+00,9.000000000000000000e+00
2.609700000000000000e+04,-1.499999999999999869e-04,-3.399999999999999702e-04,-7.399999999999999894e-04,-3.399999999999999702e-04,-6.499999999999999702e-04,-2.299999999999999799e-04,-1.899999999999999834e-04,-1.000000000000000048e-04,5.000000000000000000e+00,9.000000000000000000e+00
2.609800000000000000e+04,-1.499999999999999869e-04,-3.399999999999999702e-04,-7.399999999999999894e-04,-3.399999999999999702e-04,-6.499999999999999702e-04,-2.299999999999999799e-04,-1.899999999999999834e-04,-1.000000000000000048e-04,5.000000000000000000e+00,9.000000000000000000e+00
2.609900000000000000e+04,-1.499999999999999869e-04,-3.399999999999999702e-04,-7.399999999999999894e-04,-3.399999999999999702e-04,-6.499999999999999702e-04,-2.299999999999999799e-04,-1.899999999999999834e-04,-1.000000000000000048e-04,5.000000000000000000e+00,9.000000000000000000e+00
2.610000000000000000e+04,-1.499999999999999869e-04,-3.399999999999999702e-04,-7.399999999999999894e-04,-3.399999999999999702e-04,-6.499999999999999702e-04,-2.299999999999999799e-04,-1.899999999999999834e-04,-1.000000000000000048e-04,5.000000000000000000e+00,9.000000000000000000e+00
2.610100000000000000e+04,-1.499999999999999869e-04,-3.399999999999999702e-04,-7.399999999999999894e-04,-3.399999999999999702e-04,-6.499999999999999702e-04,-2.299999999999999799e-04,-1.899999999999999834e-04,-1.000000000000000048e-04,5.000000000000000000e+00,9.000000000000000000e+00
2.610200000000000000e+04,-1.499999999999999869e-04,-3.399999999999999702e-04,-7.399999999999999894e-04,-3.399999999999999702e-04,-6.499999999999999702e-04,-2.299999999999999799e-04,-1.899999999999999834e-04,-1.000000000000000048e-04,5.000000000000000000e+00,9.000000000000000000e+00
2.610300000000000000e+04,-1.499999999999999869e-04,-3.399999999999999702e-04,-7.399999999999999894e-04,-3.399999999999999702e-04,-6.499999999999999702e-04,-2.299999999999999799e-04,-1.899999999999999834e-04,-1.000000000000000048e-04,5.000000000000000000e+00,9.000000000000000000e+00
2.610400000000000000e+04,-1.499999999999999869e-04,-3.399999999999999702e-04,-7.399999999999999894e-04,-3.399999999999999702e-04,-6.499999999999999702e-04,-2.299999999999999799e-04,-1.899999999999999834e-04,-1.000000000000000048e-04,5.000000000000000000e+00,9.000000000000000000e+00
2.610500000000000000e+04,-1.499999999999999869e-04,-3.399999999999999702e-04,-7.399999999999999894e-04,-3.399999999999999702e-04,-6.499999999999999702e-04,-2.299999999999999799e-04,-1.899999999999999834e-04,-1.000000000000000048e-04,5.000000000000000000e+00,9.000000000000000000e+00
2.610600000000000000e+04,-1.499999999999999869e-04,-3.399999999999999702e-04,-7.399999999999999894e-04,-3.399999999999999702e-04,-6.499999999999999702e-04,-2.299999999999999799e-04,-1.899999999999999834e-04,-1.000000000000000048e-04,5.000000000000000000e+00,9.000000000000000000e+00
2.610700000000000000e+04,-1.499999999999999869e-04,-3.399999999999999702e-04,-7.399999999999999894e-04,-3.399999999999999702e-04,-6.499999999999999702e-04,-2.299999999999999799e-04,-1.899999999999999834e-04,-1.000000000000000048e-04,5.000000000000000000e+00,9.000000000000000000e+00
2.610800000000000000e+04,-1.499999999999999869e-04,-3.399999999999999702e-04,-7.399999999999999894e-04,-3.399999999999999702e-04,-6.499999999999999702e-04,-2.299999999999999799e-04,-1.899999999999999834e-04,-1.000000000000000048e-04,5.000000000000000000e+00,9.000000000000000000e+00
2.610900000000000000e+04,-1.499999999999999869e-04,-3.399999999999999702e-04,-7.399999999999999894e-04,-3.399999999999999702e-04,-6.499999999999999702e-04,-2.299999999999999799e-04,-1.899999999999999834e-04,-1.000000000000000048e-04,5.000000000000000000e+00,9.000000000000000000e+00
2.611000000000000000e+04,-1.499999999999999869e-04,-3.399999999999999702e-04,-7.399999999999999894e-04,-3.399999999999999702e-04,-6.499999999999999702e-04,-2.299999999999999799e-04,-1.899999999999999834e-04,-1.000000000000000048e-04,5.000000000000000000e+00,9.000000000000000000e+00
2.611100000000000000e+04,-1.499999999999999869e-04,-3.399999999999999702e-04,-7.399999999999999894e-04,-3.399999999999999702e-04,-6.499999999999999702e-04,-2.299999999999999799e-04,-1.899999999999999834e-04,-1.000000000000000048e-04,5.000000000000000000e+00,9.000000000000000000e+00
2.611200000000000000e+04,-1.499999999999999869e-04,-3.399999999999999702e-04,-7.399999999999999894e-04,-3.399999999999999702e-04,-6.499999999999999702e-04,-2.299999999999999799e-04,-1.899999999999999834e-04,-1.000000000000000048e-04,5.000000000000000000e+00,9.000000000000000000e+00
2.611300000000000000e+04,-1.499999999999999869e-04,-3.399999999999999702e-04,-7.399999999999999894e-04,-3.399999999999999702e-04,-6.499999999999999702e-04,-2.299999999999999799e-04,-1.899999999999999834e-04,-1.000000000000000048e-04,5.000000000000000000e+00,9.000000000000000000e+00
2.611400000000000000e+04,-1.499999999999999869e-04,-3.399999999999999702e-04,-7.399999999999999894e-04,-3.399999999999999702e-04,-6.499999999999999702e-04,-2.299999999999999799e-04,-1.899999999999999834e-04,-1.000000000000000048e-04,5.000000000000000000e+00,9.000000000000000000e+00
2.611500000000000000e+04,-1.499999999999999869e-04,-3.399999999999999702e-04,-7.399999999999999894e-04,-3.399999999999999702e-04,-6.499999999999999702e-04,-2.299999999999999799e-04,-1.899999999999999834e-04,-1.000000000000000048e-04,5.000000000000000000e+00,9.000000000000000000e+00
2.611600000000000000e+04,-1.499999999999999869e-04,-3.399999999999999702e-04,-7.399999999999999894e-04,-3.399999999999999702e-04,-6.499999999999999702e-04,-2.299999999999999799e-04,-1.899999999999999834e-04,-1.000000000000000048e-04,5.000000000000000000e+00,9.000000000000000000e+00
2.611700000000000000e+04,-1.499999999999999869e-04,-3.399999999999999702e-04,-7.399999999999999894e-04,-3.399999999999999702e-04,-6.499999999999999702e-04,-2.299999999999999799e-04,-1.899999999999999834e-04,-1.000000000000000048e-04,5.000000000000000000e+00,9.000000000000000000e+00
2.611800000000000000e+04,-1.499999999999999869e-04,-3.399999999999999702e-04,-7.399999999999999894e-04,-3.399999999999999702e-04,-6.499999999999999702e-04,-2.299999999999999799e-04,-1.899999999999999834e-04,-1.000000000000000048e-04,5.000000000000000000e+00,9.000000000000000000e+00
2.611900000000000000e+04,-1.499999999999999869e-04,-3.399999999999999702e-04,-7.399999999999999894e-04,-3.399999999999999702e-04,-6.499999999999999702e-04,-2.299999999999999799e-04,-1.899999999999999834e-04,-1.000000000000000048e-04,5.000000000000000000e+00,9.000000000000000000e+00
2.612000000000000000e+04,-1.499999999999999869e-04,-3.399999999999999702e-04,-7.399999999999999894e-04,-3.399999999999999702e-04,-6.499999999999999702e-04,-2.299999999999999799e-04,-1.899999999999999834e-04,-1.000000000000000048e-04,5.000000000000000000e+00,9.000000000000000000e+00
2.612100000000000000e+04,-1.499999999999999869e-04,-3.399999999999999702e-04,-7.399999999999999894e-04,-3.399999999999999702e-04,-6.499999999999999702e-04,-2.299999999999999799e-04,-1.899999999999999834e-04,-1.000000000000000048e-04,5.000000000000000000e+00,9.000000000000000000e+00
2.612200000000000000e+04,0.000000000000000000e+00,1.800000000000000113e-04,2.200000000000000078e-04,-3.200000000000000262e-04,-5.000000000000000240e-05,2.000000000000000164e-05,-4.000000000000000327e-05,2.999999999999999737e-05,5.000000000000000000e+00,9.000000000000000000e+00
2.612300000000000000e+04,0.000000000000000000e+00,1.800000000000000113e-04,2.200000000000000078e-04,-3.200000000000000262e-04,-5.000000000000000240e-05,2.000000000000000164e-05,-4.000000000000000327e-05,2.999999999999999737e-05,5.000000000000000000e+00,9.000000000000000000e+00
2.612400000000000000e+04,0.000000000000000000e+00,1.800000000000000113e-04,2.200000000000000078e-04,-3.200000000000000262e-04,-5.000000000000000240e-05,2.000000000000000164e-05,-4.000000000000000327e-05,2.999999999999999737e-05,5.000000000000000000e+00,9.000000000000000000e+00
2.612500000000000000e+04,0.000000000000000000e+00,1.800000000000000113e-04,2.200000000000000078e-04,-3.200000000000000262e-04,-5.000000000000000240e-05,2.000000000000000164e-05,-4.000000000000000327e-05,2.999999999999999737e-05,5.000000000000000000e+00,9.000000000000000000e+00
2.612600000000000000e+04,0.000000000000000000e+00,1.800000000000000113e-04,2.200000000000000078e-04,-3.200000000000000262e-04,-5.000000000000000240e-05,2.000000000000000164e-05,-4.000000000000000327e-05,2.999999999999999737e-05,5.000000000000000000e+00,9.000000000000000000e+00
2.612700000000000000e+04,0.000000000000000000e+00,1.800000000000000113e-04,2.200000000000000078e-04,-3.200000000000000262e-04,-5.000000000000000240e-05,2.000000000000000164e-05,-4.000000000000000327e-05,2.999999999999999737e-05,5.000000000000000000e+00,9.000000000000000000e+00
2.612800000000000000e+04,0.000000000000000000e+00,1.800000000000000113e-04,2.200000000000000078e-04,-3.200000000000000262e-04,-5.000000000000000240e-05,2.000000000000000164e-05,-4.000000000000000327e-05,2.999999999999999737e-05,5.000000000000000000e+00,9.000000000000000000e+00
2.612900000000000000e+04,0.000000000000000000e+00,1.800000000000000113e-04,2.200000000000000078e-04,-3.200000000000000262e-04,-5.000000000000000240e-05,2.000000000000000164e-05,-4.000000000000000327e-05,2.999999999999999737e-05,5.000000000000000000e+00,9.000000000000000000e+00
2.613000000000000000e+04,0.000000000000000000e+00,1.800000000000000113e-04,2.200000000000000078e-04,-3.200000000000000262e-04,-5.000000000000000240e-05,2.000000000000000164e-05,-4.000000000000000327e-05,2.999999999999999737e-05,5.000000000000000000e+00,9.000000000000000000e+00
2.613100000000000000e+04,0.000000000000000000e+00,1.800000000000000113e-04,2.200000000000000078e-04,-3.200000000000000262e-04,-5.000000000000000240e-05,2.000000000000000164e-05,-4.000000000000000327e-05,2.999999999999999737e-05,5.000000000000000000e+00,9.000000000000000000e+00
2.613200000000000000e+04,0.000000000000000000e+00,1.800000000000000113e-04,2.200000000000000078e-04,-3.200000000000000262e-04,-5.000000000000000240e-05,2.000000000000000164e-05,-4.000000000000000327e-05,2.999999999999999737e-05,5.000000000000000000e+00,9.000000000000000000e+00
2.613300000000000000e+04,0.000000000000000000e+00,1.800000000000000113e-04,2.200000000000000078e-04,-3.200000000000000262e-04,-5.000000000000000240e-05,2.000000000000000164e-05,-4.000000000000000327e-05,2.999999999999999737e-05,5.000000000000000000e+00,9.000000000000000000e+00
2.613400000000000000e+04,0.000000000000000000e+00,1.800000000000000113e-04,2.200000000000000078e-04,-3.200000000000000262e-04,-5.000000000000000240e-05,2.000000000000000164e-05,-4.000000000000000327e-05,2.999999999999999737e-05,5.000000000000000000e+00,9.000000000000000000e+00
2.613500000000000000e+04,0.000000000000000000e+00,1.800000000000000113e-04,2.200000000000000078e-04,-3.200000000000000262e-04,-5.000000000000000240e-05,2.000000000000000164e-05,-4.000000000000000327e-05,2.999999999999999737e-05,5.000000000000000000e+00,9.000000000000000000e+00
2.613700000000000000e+04,4.000000000000000327e-05,4.799999999999999580e-04,9.799999999999999684e-04,-2.200000000000000078e-04,-5.900000000000000296e-04,0.000000000000000000e+00,0.000000000000000000e+00,1.100000000000000039e-04,5.000000000000000000e+00,9.000000000000000000e+00
2.613900000000000000e+04,1.199999999999999895e-04,1.000000000000000048e-04,2.900000000000000017e-04,3.399999999999999702e-04,1.800000000000000113e-04,-2.000000000000000164e-05,1.000000000000000082e-05,-1.000000000000000082e-05,5.000000000000000000e+00,9.000000000000000000e+00
2.614000000000000000e+04,1.199999999999999895e-04,1.000000000000000048e-04,2.900000000000000017e-04,3.399999999999999702e-04,1.800000000000000113e-04,-2.000000000000000164e-05,1.000000000000000082e-05,-1.000000000000000082e-05,5.000000000000000000e+00,9.000000000000000000e+00
2.614100000000000000e+04,1.199999999999999895e-04,1.000000000000000048e-04,2.900000000000000017e-04,3.399999999999999702e-04,1.800000000000000113e-04,-2.000000000000000164e-05,1.000000000000000082e-05,-1.000000000000000082e-05,5.000000000000000000e+00,9.000000000000000000e+00
2.614200000000000000e+04,1.199999999999999895e-04,1.000000000000000048e-04,2.900000000000000017e-04,3.399999999999999702e-04,1.800000000000000113e-04,-2.000000000000000164e-05,1.000000000000000082e-05,-1.000000000000000082e-05,5.000000000000000000e+00,9.000000000000000000e+00
2.614300000000000000e+04,1.199999999999999895e-04,1.000000000000000048e-04,2.900000000000000017e-04,3.399999999999999702e-04,1.800000000000000113e-04,-2.000000000000000164e-05,1.000000000000000082e-05,-1.000000000000000082e-05,5.000000000000000000e+00,9.000000000000000000e+00
2.614400000000000000e+04,1.199999999999999895e-04,1.000000000000000048e-04,2.900000000000000017e-04,3.399999999999999702e-04,1.800000000000000113e-04,-2.000000000000000164e-05,1.000000000000000082e-05,-1.000000000000000082e-05,5.000000000000000000e+00,9.000000000000000000e+00
2.614500000000000000e+04,1.199999999999999895e-04,1.000000000000000048e-04,2.900000000000000017e-04,3.399999999999999702e-04,1.800000000000000113e-04,-2.000000000000000164e-05,1.000000000000000082e-05,-1.000000000000000082e-05,5.000000000000000000e+00,9.000000000000000000e+00
2.614600000000000000e+04,1.199999999999999895e-04,1.000000000000000048e-04,2.900000000000000017e-04,3.399999999999999702e-04,1.800000000000000113e-04,-2.000000000000000164e-05,1.000000000000000082e-05,-1.000000000000000082e-05,5.000000000000000000e+00,9.000000000000000000e+00
2.614700000000000000e+04,1.199999999999999895e-04,1.000000000000000048e-04,2.900000000000000017e-04,3.399999999999999702e-04,1.800000000000000113e-04,-2.000000000000000164e-05,1.000000000000000082e-05,-1.000000000000000082e-05,5.000000000000000000e+00,9.000000000000000000e+00
2.614800000000000000e+04,1.199999999999999895e-04,1.000000000000000048e-04,2.900000000000000017e-04,3.399999999999999702e-04,1.800000000000000113e-04,-2.000000000000000164e-05,1.000000000000000082e-05,-1.000000000000000082e-05,5.000000000000000000e+00,9.000000000000000000e+00
2.614900000000000000e+04,1.199999999999999895e-04,1.000000000000000048e-04,2.900000000000000017e-04,3.399999999999999702e-04,1.800000000000000113e-04,-2.000000000000000164e-05,1.000000000000000082e-05,-1.000000000000000082e-05,5.000000000000000000e+00,9.000000000000000000e+00
2.615000000000000000e+04,1.199999999999999895e-04,1.000000000000000048e-04,2.900000000000000017e-04,3.399999999999999702e-04,1.800000000000000113e-04,-2.000000000000000164e-05,1.000000000000000082e-05,-1.000000000000000082e-05,5.000000000000000000e+00,9.000000000000000000e+00
2.615100000000000000e+04,1.199999999999999895e-04,1.000000000000000048e-04,2.900000000000000017e-04,3.399999999999999702e-04,1.800000000000000113e-04,-2.000000000000000164e-05,1.000000000000000082e-05,-1.000000000000000082e-05,5.000000000000000000e+00,9.000000000000000000e+00
2.615200000000000000e+04,2.000000000000000164e-05,9.000000000000000567e-05,2.700000000000000035e-04,2.999999999999999737e-04,1.300000000000000157e-04,-6.999999999999999387e-05,-4.000000000000000327e-05,6.999999999999999387e-05,5.000000000000000000e+00,9.000000000000000000e+00
2.615300000000000000e+04,2.000000000000000164e-05,9.000000000000000567e-05,2.700000000000000035e-04,2.999999999999999737e-04,1.300000000000000157e-04,-6.999999999999999387e-05,-4.000000000000000327e-05,6.999999999999999387e-05,5.000000000000000000e+00,9.000000000000000000e+00
2.615400000000000000e+04,2.000000000000000164e-05,9.000000000000000567e-05,2.700000000000000035e-04,2.999999999999999737e-04,1.300000000000000157e-04,-6.999999999999999387e-05,-4.000000000000000327e-05,6.999999999999999387e-05,5.000000000000000000e+00,9.000000000000000000e+00
2.615500000000000000e+04,2.000000000000000164e-05,9.000000000000000567e-05,2.700000000000000035e-04,2.999999999999999737e-04,1.300000000000000157e-04,-6.999999999999999387e-05,-4.000000000000000327e-05,6.999999999999999387e-05,5.000000000000000000e+00,9.000000000000000000e+00
2.615600000000000000e+04,2.000000000000000164e-05,9.000000000000000567e-05,2.700000000000000035e-04,2.999999999999999737e-04,1.300000000000000157e-04,-6.999999999999999387e-05,-4.000000000000000327e-05,6.999999999999999387e-05,5.000000000000000000e+00,9.000000000000000000e+00
2.615700000000000000e+04,2.000000000000000164e-05,9.000000000000000567e-05,2.700000000000000035e-04,2.999999999999999737e-04,1.300000000000000157e-04,-6.999999999999999387e-05,-4.000000000000000327e-05,6.999999999999999387e-05,5.000000000000000000e+00,9.000000000000000000e+00
2.615800000000000000e+04,2.000000000000000164e-05,9.000000000000000567e-05,2.700000000000000035e-04,2.999999999999999737e-04,1.300000000000000157e-04,-6.999999999999999387e-05,-4.000000000000000327e-05,6.999999999999999387e-05,5.000000000000000000e+00,9.000000000000000000e+00
2.615900000000000000e+04,2.000000000000000164e-05,9.000000000000000567e-05,2.700000000000000035e-04,2.999999999999999737e-04,1.300000000000000157e-04,-6.999999999999999387e-05,-4.000000000000000327e-05,6.999999999999999387e-05,5.000000000000000000e+00,9.000000000000000000e+00
2.616000000000000000e+04,2.000000000000000164e-05,9.000000000000000567e-05,2.700000000000000035e-04,2.999999999999999737e-04,1.300000000000000157e-04,-6.999999999999999387e-05,-4.000000000000000327e-05,6.999999999999999387e-05,5.000000000000000000e+00,9.000000000000000000e+00
2.616100000000000000e+04,2.000000000000000164e-05,9.000000000000000567e-05,2.700000000000000035e-04,2.999999999999999737e-04,1.300000000000000157e-04,-6.999999999999999387e-05,-4.000000000000000327e-05,6.999999999999999387e-05,5.000000000000000000e+00,9.000000000000000000e+00
2.616200000000000000e+04,2.000000000000000164e-05,9.000000000000000567e-05,2.700000000000000035e-04,2.999999999999999737e-04,1.300000000000000157e-04,-6.999999999999999387e-05,-4.000000000000000327e-05,6.999999999999999387e-05,5.000000000000000000e+00,9.000000000000000000e+00
2.616300000000000000e+04,2.000000000000000164e-05,9.000000000000000567e-05,2.700000000000000035e-04,2.999999999999999737e-04,1.300000000000000157e-04,-6.999999999999999387e-05,-4.000000000000000327e-05,6.999999999999999387e-05,5.000000000000000000e+00,9.000000000000000000e+00
2.616400000000000000e+04,2.000000000000000164e-05,9.000000000000000567e-05,2.700000000000000035e-04,2.999999999999999737e-04,1.300000000000000157e-04,-6.999999999999999387e-05,-4.000000000000000327e-05,6.999999999999999387e-05,5.000000000000000000e+00,9.000000000000000000e+00
2.616500000000000000e+04,2.000000000000000164e-05,9.000000000000000567e-05,2.700000000000000035e-04,2.999999999999999737e-04,1.300000000000000157e-04,-6.999999999999999387e-05,-4.000000000000000327e-05,6.999999999999999387e-05,5.000000000000000000e+00,9.000000000000000000e+00
2.616600000000000000e+04,2.000000000000000164e-05,9.000000000000000567e-05,2.700000000000000035e-04,2.999999999999999737e-04,1.300000000000000157e-04,-6.999999999999999387e-05,-4.000000000000000327e-05,6.999999999999999387e-05,5.000000000000000000e+00,9.000000000000000000e+00
2.616700000000000000e+04,2.000000000000000164e-05,9.000000000000000567e-05,2.700000000000000035e-04,2.999999999999999737e-04,1.300000000000000157e-04,-6.999999999999999387e-05,-4.000000000000000327e-05,6.999999999999999387e-05,5.000000000000000000e+00,9.000000000000000000e+00
2.616800000000000000e+04,2.000000000000000164e-05,9.000000000000000567e-05,2.700000000000000035e-04,2.999999999999999737e-04,1.300000000000000157e-04,-6.999999999999999387e-05,-4.000000000000000327e-05,6.999999999999999387e-05,5.000000000000000000e+00,9.000000000000000000e+00
2.616900000000000000e+04,2.000000000000000164e-05,9.000000000000000567e-05,2.700000000000000035e-04,2.999999999999999737e-04,1.300000000000000157e-04,-6.999999999999999387e-05,-4.000000000000000327e-05,6.999999999999999387e-05,5.000000000000000000e+00,9.000000000000000000e+00
2.617000000000000000e+04,2.000000000000000164e-05,9.000000000000000567e-05,2.700000000000000035e-04,2.999999999999999737e-04,1.300000000000000157e-04,-6.999999999999999387e-05,-4.000000000000000327e-05,6.999999999999999387e-05,5.000000000000000000e+00,9.000000000000000000e+00
2.617100000000000000e+04,2.000000000000000164e-05,9.000000000000000567e-05,2.700000000000000035e-04,2.999999999999999737e-04,1.300000000000000157e-04,-6.999999999999999387e-05,-4.000000000000000327e-05,6.999999999999999387e-05,5.000000000000000000e+00,9.000000000000000000e+00
2.617200000000000000e+04,2.000000000000000164e-05,9.000000000000000567e-05,2.700000000000000035e-04,2.999999999999999737e-04,1.300000000000000157e-04,-6.999999999999999387e-05,-4.000000000000000327e-05,6.999999999999999387e-05,5.000000000000000000e+00,9.000000000000000000e+00
2.617300000000000000e+04,1.300000000000000157e-04,-1.399999999999999877e-04,-1.100000000000000039e-04,4.700000000000000401e-04,1.000000000000000048e-04,1.199999999999999895e-04,-2.000000000000000164e-05,0.000000000000000000e+00,5.000000000000000000e+00,9.000000000000000000e+00
2.617400000000000000e+04,-2.000000000000000096e-04,8.000000000000000654e-05,8.000000000000000654e-05,4.499999999999999877e-04,-1.499999999999999869e-04,0.000000000000000000e+00,-1.000000000000000082e-05,5.999999999999999474e-05,5.000000000000000000e+00,9.000000000000000000e+00
2.617500000000000000e+04,-2.000000000000000096e-04,8.000000000000000654e-05,8.000000000000000654e-05,4.499999999999999877e-04,-1.499999999999999869e-04,0.000000000000000000e+00,-1.000000000000000082e-05,5.999999999999999474e-05,5.000000000000000000e+00,9.000000000000000000e+00
2.617600000000000000e+04,-2.000000000000000096e-04,8.000000000000000654e-05,8.000000000000000654e-05,4.499999999999999877e-04,-1.499999999999999869e-04,0.000000000000000000e+00,-1.000000000000000082e-05,5.999999999999999474e-05,5.000000000000000000e+00,9.000000000000000000e+00
2.617700000000000000e+04,-2.000000000000000096e-04,8.000000000000000654e-05,8.000000000000000654e-05,4.499999999999999877e-04,-1.499999999999999869e-04,0.000000000000000000e+00,-1.000000000000000082e-05,5.999999999999999474e-05,5.000000000000000000e+00,9.000000000000000000e+00
2.617800000000000000e+04,-2.000000000000000096e-04,8.000000000000000654e-05,8.000000000000000654e-05,4.499999999999999877e-04,-1.499999999999999869e-04,0.000000000000000000e+00,-1.000000000000000082e-05,5.999999999999999474e-05,5.000000000000000000e+00,9.000000000000000000e+00
2.617900000000000000e+04,-2.000000000000000096e-04,8.000000000000000654e-05,8.000000000000000654e-05,4.499999999999999877e-04,-1.499999999999999869e-04,0.000000000000000000e+00,-1.000000000000000082e-05,5.999999999999999474e-05,5.000000000000000000e+00,9.000000000000000000e+00
2.618000000000000000e+04,-2.000000000000000096e-04,8.000000000000000654e-05,8.000000000000000654e-05,4.499999999999999877e-04,-1.499999999999999869e-04,0.000000000000000000e+00,-1.000000000000000082e-05,5.999999999999999474e-05,5.000000000000000000e+00,9.000000000000000000e+00
2.618100000000000000e+04,-2.000000000000000096e-04,8.000000000000000654e-05,8.000000000000000654e-05,4.499999999999999877e-04,-1.499999999999999869e-04,0.000000000000000000e+00,-1.000000000000000082e-05,5.999999999999999474e-05,5.000000000000000000e+00,9.000000000000000000e+00
2.618200000000000000e+04,-2.000000000000000096e-04,8.000000000000000654e-05,8.000000000000000654e-05,4.499999999999999877e-04,-1.499999999999999869e-04,0.000000000000000000e+00,-1.000000000000000082e-05,5.999999999999999474e-05,5.000000000000000000e+00,9.000000000000000000e+00
2.618300000000000000e+04,-2.000000000000000096e-04,8.000000000000000654e-05,8.000000000000000654e-05,4.499999999999999877e-04,-1.499999999999999869e-04,0.000000000000000000e+00,-1.000000000000000082e-05,5.999999999999999474e-05,5.000000000000000000e+00,9.000000000000000000e+00
2.618400000000000000e+04,-2.000000000000000096e-04,8.000000000000000654e-05,8.000000000000000654e-05,4.499999999999999877e-04,-1.499999999999999869e-04,0.000000000000000000e+00,-1.000000000000000082e-05,5.999999999999999474e-05,5.000000000000000000e+00,9.000000000000000000e+00
2.618500000000000000e+04,-2.000000000000000096e-04,8.000000000000000654e-05,8.000000000000000654e-05,4.499999999999999877e-04,-1.499999999999999869e-04,0.000000000000000000e+00,-1.000000000000000082e-05,5.999999999999999474e-05,5.000000000000000000e+00,9.000000000000000000e+00
2.618600000000000000e+04,-2.000000000000000096e-04,8.000000000000000654e-05,8.000000000000000654e-05,4.499999999999999877e-04,-1.499999999999999869e-04,0.000000000000000000e+00,-1.000000000000000082e-05,5.999999999999999474e-05,5.000000000000000000e+00,9.000000000000000000e+00
2.618800000000000000e+04,-2.000000000000000096e-04,8.000000000000000654e-05,8.000000000000000654e-05,4.499999999999999877e-04,-1.499999999999999869e-04,0.000000000000000000e+00,-1.000000000000000082e-05,5.999999999999999474e-05,5.000000000000000000e+00,9.000000000000000000e+00
2.618900000000000000e+04,-2.000000000000000096e-04,8.000000000000000654e-05,8.000000000000000654e-05,4.499999999999999877e-04,-1.499999999999999869e-04,0.000000000000000000e+00,-1.000000000000000082e-05,5.999999999999999474e-05,5.000000000000000000e+00,9.000000000000000000e+00
2.619000000000000000e+04,-2.000000000000000096e-04,8.000000000000000654e-05,8.000000000000000654e-05,4.499999999999999877e-04,-1.499999999999999869e-04,0.000000000000000000e+00,-1.000000000000000082e-05,5.999999999999999474e-05,5.000000000000000000e+00,9.000000000000000000e+00
2.619100000000000000e+04,-2.000000000000000096e-04,8.000000000000000654e-05,8.000000000000000654e-05,4.499999999999999877e-04,-1.499999999999999869e-04,0.000000000000000000e+00,-1.000000000000000082e-05,5.999999999999999474e-05,5.000000000000000000e+00,9.000000000000000000e+00
2.619200000000000000e+04,-2.000000000000000096e-04,8.000000000000000654e-05,8.000000000000000654e-05,4.499999999999999877e-04,-1.499999999999999869e-04,0.000000000000000000e+00,-1.000000000000000082e-05,5.999999999999999474e-05,5.000000000000000000e+00,9.000000000000000000e+00
2.619300000000000000e+04,-2.000000000000000096e-04,8.000000000000000654e-05,8.000000000000000654e-05,4.499999999999999877e-04,-1.499999999999999869e-04,0.000000000000000000e+00,-1.000000000000000082e-05,5.999999999999999474e-05,5.000000000000000000e+00,9.000000000000000000e+00
2.619400000000000000e+04,-2.000000000000000096e-04,8.000000000000000654e-05,8.000000000000000654e-05,4.499999999999999877e-04,-1.499999999999999869e-04,0.000000000000000000e+00,-1.000000000000000082e-05,5.999999999999999474e-05,5.000000000000000000e+00,9.000000000000000000e+00
2.619500000000000000e+04,-2.000000000000000096e-04,8.000000000000000654e-05,8.000000000000000654e-05,4.499999999999999877e-04,-1.499999999999999869e-04,0.000000000000000000e+00,-1.000000000000000082e-05,5.999999999999999474e-05,5.000000000000000000e+00,9.000000000000000000e+00
2.619600000000000000e+04,3.499999999999999964e-04,4.000000000000000327e-05,1.399999999999999877e-04,-1.499999999999999869e-04,-4.700000000000000401e-04,-9.000000000000000567e-05,-2.999999999999999737e-05,-5.000000000000000240e-05,5.000000000000000000e+00,9.000000000000000000e+00
2.619700000000000000e+04,0.000000000000000000e+00,2.999999999999999737e-05,2.000000000000000096e-04,1.199999999999999895e-04,-6.999999999999999387e-05,4.000000000000000327e-05,2.999999999999999737e-05,-1.000000000000000082e-05,5.000000000000000000e+00,9.000000000000000000e+00
2.619800000000000000e+04,0.000000000000000000e+00,2.999999999999999737e-05,2.000000000000000096e-04,1.199999999999999895e-04,-6.999999999999999387e-05,4.000000000000000327e-05,2.999999999999999737e-05,-1.000000000000000082e-05,5.000000000000000000e+00,9.000000000000000000e+00
2.619900000000000000e+04,0.000000000000000000e+00,2.999999999999999737e-05,2.000000000000000096e-04,1.199999999999999895e-04,-6.999999999999999387e-05,4.000000000000000327e-05,2.999999999999999737e-05,-1.000000000000000082e-05,5.000000000000000000e+00,9.000000000000000000e+00
2.620000000000000000e+04,0.000000000000000000e+00,2.999999999999999737e-05,2.000000000000000096e-04,1.199999999999999895e-04,-6.999999999999999387e-05,4.000000000000000327e-05,2.999999999999999737e-05,-1.000000000000000082e-05,5.000000000000000000e+00,9.000000000000000000e+00
2.620100000000000000e+04,0.000000000000000000e+00,2.999999999999999737e-05,2.000000000000000096e-04,1.199999999999999895e-04,-6.999999999999999387e-05,4.000000000000000327e-05,2.999999999999999737e-05,-1.000000000000000082e-05,5.000000000000000000e+00,9.000000000000000000e+00
2.620200000000000000e+04,0.000000000000000000e+00,2.999999999999999737e-05,2.000000000000000096e-04,1.199999999999999895e-04,-6.999999999999999387e-05,4.000000000000000327e-05,2.999999999999999737e-05,-1.000000000000000082e-05,5.000000000000000000e+00,9.000000000000000000e+00
2.620300000000000000e+04,0.000000000000000000e+00,2.999999999999999737e-05,2.000000000000000096e-04,1.199999999999999895e-04,-6.999999999999999387e-05,4.000000000000000327e-05,2.999999999999999737e-05,-1.000000000000000082e-05,5.000000000000000000e+00,9.000000000000000000e+00
2.620400000000000000e+04,0.000000000000000000e+00,2.999999999999999737e-05,2.000000000000000096e-04,1.199999999999999895e-04,-6.999999999999999387e-05,4.000000000000000327e-05,2.999999999999999737e-05,-1.000000000000000082e-05,5.000000000000000000e+00,9.000000000000000000e+00
2.620500000000000000e+04,0.000000000000000000e+00,2.999999999999999737e-05,2.000000000000000096e-04,1.199999999999999895e-04,-6.999999999999999387e-05,4.000000000000000327e-05,2.999999999999999737e-05,-1.000000000000000082e-05,5.000000000000000000e+00,9.000000000000000000e+00
2.620600000000000000e+04,0.000000000000000000e+00,2.999999999999999737e-05,2.000000000000000096e-04,1.199999999999999895e-04,-6.999999999999999387e-05,4.000000000000000327e-05,2.999999999999999737e-05,-1.000000000000000082e-05,5.000000000000000000e+00,9.000000000000000000e+00
2.620700000000000000e+04,0.000000000000000000e+00,2.999999999999999737e-05,2.000000000000000096e-04,1.199999999999999895e-04,-6.999999999999999387e-05,4.000000000000000327e-05,2.999999999999999737e-05,-1.000000000000000082e-05,5.000000000000000000e+00,9.000000000000000000e+00
2.620800000000000000e+04,0.000000000000000000e+00,2.999999999999999737e-05,2.000000000000000096e-04,1.199999999999999895e-04,-6.999999999999999387e-05,4.000000000000000327e-05,2.999999999999999737e-05,-1.000000000000000082e-05,5.000000000000000000e+00,9.000000000000000000e+00
2.620900000000000000e+04,0.000000000000000000e+00,2.999999999999999737e-05,2.000000000000000096e-04,1.199999999999999895e-04,-6.999999999999999387e-05,4.000000000000000327e-05,2.999999999999999737e-05,-1.000000000000000082e-05,5.000000000000000000e+00,9.000000000000000000e+00
2.621000000000000000e+04,0.000000000000000000e+00,2.999999999999999737e-05,2.000000000000000096e-04,1.199999999999999895e-04,-6.999999999999999387e-05,4.000000000000000327e-05,2.999999999999999737e-05,-1.000000000000000082e-05,5.000000000000000000e+00,9.000000000000000000e+00
2.621100000000000000e+04,5.999999999999999474e-05,-5.000000000000000240e-05,-3.299999999999999982e-04,-3.399999999999999702e-04,-1.499999999999999869e-04,-1.300000000000000157e-04,2.000000000000000164e-05,-1.000000000000000082e-05,5.000000000000000000e+00,9.000000000000000000e+00
2.621200000000000000e+04,6.999999999999999387e-05,-4.000000000000000327e-05,-2.399999999999999790e-04,-8.000000000000000383e-04,-1.100000000000000039e-04,2.000000000000000096e-04,6.999999999999999387e-05,-4.000000000000000327e-05,5.000000000000000000e+00,9.000000000000000000e+00
2.621300000000000000e+04,6.999999999999999387e-05,-4.000000000000000327e-05,-2.399999999999999790e-04,-8.000000000000000383e-04,-1.100000000000000039e-04,2.000000000000000096e-04,6.999999999999999387e-05,-4.000000000000000327e-05,5.000000000000000000e+00,9.000000000000000000e+00
2.621400000000000000e+04,6.999999999999999387e-05,-4.000000000000000327e-05,-2.399999999999999790e-04,-8.000000000000000383e-04,-1.100000000000000039e-04,2.000000000000000096e-04,6.999999999999999387e-05,-4.000000000000000327e-05,5.000000000000000000e+00,9.000000000000000000e+00
2.621500000000000000e+04,6.999999999999999387e-05,-4.000000000000000327e-05,-2.399999999999999790e-04,-8.000000000000000383e-04,-1.100000000000000039e-04,2.000000000000000096e-04,6.999999999999999387e-05,-4.000000000000000327e-05,5.000000000000000000e+00,9.000000000000000000e+00
2.621600000000000000e+04,6.999999999999999387e-05,-4.000000000000000327e-05,-2.399999999999999790e-04,-8.000000000000000383e-04,-1.100000000000000039e-04,2.000000000000000096e-04,6.999999999999999387e-05,-4.000000000000000327e-05,5.000000000000000000e+00,9.000000000000000000e+00
2.621700000000000000e+04,6.999999999999999387e-05,-4.000000000000000327e-05,-2.399999999999999790e-04,-8.000000000000000383e-04,-1.100000000000000039e-04,2.000000000000000096e-04,6.999999999999999387e-05,-4.000000000000000327e-05,5.000000000000000000e+00,9.000000000000000000e+00
2.621800000000000000e+04,6.999999999999999387e-05,-4.000000000000000327e-05,-2.399999999999999790e-04,-8.000000000000000383e-04,-1.100000000000000039e-04,2.000000000000000096e-04,6.999999999999999387e-05,-4.000000000000000327e-05,5.000000000000000000e+00,9.000000000000000000e+00
2.621900000000000000e+04,6.999999999999999387e-05,-4.000000000000000327e-05,-2.399999999999999790e-04,-8.000000000000000383e-04,-1.100000000000000039e-04,2.000000000000000096e-04,6.999999999999999387e-05,-4.000000000000000327e-05,5.000000000000000000e+00,9.000000000000000000e+00
2.622000000000000000e+04,6.999999999999999387e-05,-4.000000000000000327e-05,-2.399999999999999790e-04,-8.000000000000000383e-04,-1.100000000000000039e-04,2.000000000000000096e-04,6.999999999999999387e-05,-4.000000000000000327e-05,5.000000000000000000e+00,9.000000000000000000e+00
2.622100000000000000e+04,6.999999999999999387e-05,-4.000000000000000327e-05,-2.399999999999999790e-04,-8.000000000000000383e-04,-1.100000000000000039e-04,2.000000000000000096e-04,6.999999999999999387e-05,-4.000000000000000327e-05,5.000000000000000000e+00,9.000000000000000000e+00
2.622200000000000000e+04,6.999999999999999387e-05,-4.000000000000000327e-05,-2.399999999999999790e-04,-8.000000000000000383e-04,-1.100000000000000039e-04,2.000000000000000096e-04,6.999999999999999387e-05,-4.000000000000000327e-05,5.000000000000000000e+00,9.000000000000000000e+00
2.622300000000000000e+04,6.999999999999999387e-05,-4.000000000000000327e-05,-2.399999999999999790e-04,-8.000000000000000383e-04,-1.100000000000000039e-04,2.000000000000000096e-04,6.999999999999999387e-05,-4.000000000000000327e-05,5.000000000000000000e+00,9.000000000000000000e+00
2.622400000000000000e+04,6.999999999999999387e-05,-4.000000000000000327e-05,-2.399999999999999790e-04,-8.000000000000000383e-04,-1.100000000000000039e-04,2.000000000000000096e-04,6.999999999999999387e-05,-4.000000000000000327e-05,5.000000000000000000e+00,9.000000000000000000e+00
2.622500000000000000e+04,6.999999999999999387e-05,-4.000000000000000327e-05,-2.399999999999999790e-04,-8.000000000000000383e-04,-1.100000000000000039e-04,2.000000000000000096e-04,6.999999999999999387e-05,-4.000000000000000327e-05,5.000000000000000000e+00,9.000000000000000000e+00
2.622600000000000000e+04,6.999999999999999387e-05,-4.000000000000000327e-05,-2.399999999999999790e-04,-8.000000000000000383e-04,-1.100000000000000039e-04,2.000000000000000096e-04,6.999999999999999387e-05,-4.000000000000000327e-05,5.000000000000000000e+00,9.000000000000000000e+00
