2.164700000000000000e+04,-1.199999999999999895e-04,-5.000000000000000240e-05,1.699999999999999851e-04,2.600000000000000314e-04,7.200000000000000453e-04,1.699999999999999851e-04,4.000000000000000327e-05,2.999999999999999737e-05,5.000000000000000000e+00,9.000000000000000000e+00
2.164800000000000000e+04,-1.199999999999999895e-04,-5.000000000000000240e-05,1.699999999999999851e-04,2.600000000000000314e-04,7.200000000000000453e-04,1.699999999999999851e-04,4.000000000000000327e-05,2.999999999999999737e-05,5.000000000000000000e+00,9.000000000000000000e+00
2.164900000000000000e+04,-1.199999999999999895e-04,-5.000000000000000240e-05,1.699999999999999851e-04,2.600000000000000314e-04,7.200000000000000453e-04,1.699999999999999851e-04,4.000000000000000327e-05,2.999999999999999737e-05,5.000000000000000000e+00,9.000000000000000000e+00
2.165000000000000000e+04,-1.199999999999999895e-04,-5.000000000000000240e-05,1.699999999999999851e-04,2.600000000000000314e-04,7.200000000000000453e-04,1.699999999999999851e-04,4.000000000000000327e-05,2.999999999999999737e-05,5.000000000000000000e+00,9.000000000000000000e+00
2.165100000000000000e+04,-1.199999999999999895e-04,-5.000000000000000240e-05,1.699999999999999851e-04,2.600000000000000314e-04,7.200000000000000453e-04,1.699999999999999851e-04,4.000000000000000327e-05,2.999999999999999737e-05,5.000000000000000000e+00,9.000000000000000000e+00
2.165200000000000000e+04,-1.199999999999999895e-04,-5.000000000000000240e-05,1.699999999999999851e-04,2.600000000000000314e-04,7.200000000000000453e-04,1.699999999999999851e-04,4.000000000000000327e-05,2.999999999999999737e-05,5.000000000000000000e+00,9.000000000000000000e+00
2.165300000000000000e+04,-1.199999999999999895e-04,-5.000000000000000240e-05,1.699999999999999851e-04,2.600000000000000314e-04,7.200000000000000453e-04,1.699999999999999851e-04,4.000000000000000327e-05,2.999999999999999737e-05,5.000000000000000000e+00,9.000000000000000000e+00
2.165400000000000000e+04,-1.199999999999999895e-04,-5.000000000000000240e-05,1.699999999999999851e-04,2.600000000000000314e-04,7.200000000000000453e-04,1.699999999999999851e-04,4.000000000000000327e-05,2.999999999999999737e-05,5.000000000000000000e+00,9.000000000000000000e+00
2.165500000000000000e+04,-1.199999999999999895e-04,-5.000000000000000240e-05,1.699999999999999851e-04,2.600000000000000314e-04,7.200000000000000453e-04,1.699999999999999851e-04,4.000000000000000327e-05,2.999999999999999737e-05,5.000000000000000000e+00,9.000000000000000000e+00
2.165600000000000000e+04,-1.199999999999999895e-04,-5.000000000000000240e-05,1.699999999999999851e-04,2.600000000000000314e-04,7.200000000000000453e-04,1.699999999999999851e-04,4.000000000000000327e-05,2.999999999999999737e-05,5.000000000000000000e+00,9.000000000000000000e+00
2.165700000000000000e+04,-1.199999999999999895e-04,-5.000000000000000240e-05,1.699999999999999851e-04,2.600000000000000314e-04,7.200000000000000453e-04,1.699999999999999851e-04,4.000000000000000327e-05,2.999999999999999737e-05,5.000000000000000000e+00,9.000000000000000000e+00
2.165800000000000000e+04,-1.199999999999999895e-04,-5.000000000000000240e-05,1.699999999999999851e-04,2.600000000000000314e-04,7.200000000000000453e-04,1.699999999999999851e-04,4.000000000000000327e-05,2.999999999999999737e-05,5.000000000000000000e+00,9.000000000000000000e+00
2.165900000000000000e+04,-1.199999999999999895e-04,-5.000000000000000240e-05,1.699999999999999851e-04,2.600000000000000314e-04,7.200000000000000453e-04,1.699999999999999851e-04,4.000000000000000327e-05,2.999999999999999737e-05,5.000000000000000000e+00,9.000000000000000000e+00
2.166000000000000000e+04,-6.999999999999999387e-05,-8.000000000000000654e-05,2.000000000000000164e-05,-3.699999999999999947e-04,-3.299999999999999982e-04,-4.000000000000000327e-05,-5.000000000000000240e-05,-6.999999999999999387e-05,5.000000000000000000e+00,9.000000000000000000e+00
2.166100000000000000e+04,-6.999999999999999387e-05,-8.000000000000000654e-05,2.000000000000000164e-05,-3.699999999999999947e-04,-3.299999999999999982e-04,-4.000000000000000327e-05,-5.000000000000000240e-05,-6.999999999999999387e-05,5.000000000000000000e+00,9.000000000000000000e+00
2.166200000000000000e+04,-6.999999999999999387e-05,-8.000000000000000654e-05,2.000000000000000164e-05,-3.699999999999999947e-04,-3.299999999999999982e-04,-4.000000000000000327e-05,-5.000000000000000240e-05,-6.999999999999999387e-05,5.000000000000000000e+00,9.000000000000000000e+00
2.166300000000000000e+04,-6.999999999999999387e-05,-8.000000000000000654e-05,2.000000000000000164e-05,-3.699999999999999947e-04,-3.299999999999999982e-04,-4.000000000000000327e-05,-5.000000000000000240e-05,-6.999999999999999387e-05,5.000000000000000000e+00,9.000000000000000000e+00
2.166400000000000000e+04,-6.999999999999999387e-05,-8.000000000000000654e-05,2.000000000000000164e-05,-3.699999999999999947e-04,-3.299999999999999982e-04,-4.000000000000000327e-05,-5.000000000000000240e-05,-6.999999999999999387e-05,5.000000000000000000e+00,9.000000000000000000e+00
2.166500000000000000e+04,-6.999999999999999387e-05,-8.000000000000000654e-05,2.000000000000000164e-05,-3.699999999999999947e-04,-3.299999999999999982e-04,-4.000000000000000327e-05,-5.000000000000000240e-05,-6.999999999999999387e-05,5.000000000000000000e+00,9.000000000000000000e+00
2.166600000000000000e+04,-6.999999999999999387e-05,-8.000000000000000654e-05,2.000000000000000164e-05,-3.699999999999999947e-04,-3.299999999999999982e-04,-4.000000000000000327e-05,-5.000000000000000240e-05,-6.999999999999999387e-05,5.000000000000000000e+00,9.000000000000000000e+00
2.166700000000000000e+04,-6.999999999999999387e-05,-8.000000000000000654e-05,2.000000000000000164e-05,-3.699999999999999947e-04,-3.299999999999999982e-04,-4.000000000000000327e-05,-5.000000000000000240e-05,-6.999999999999999387e-05,5.000000000000000000e+00,9.000000000000000000e+00
2.166800000000000000e+04,-6.999999999999999387e-05,-8.000000000000000654e-05,2.000000000000000164e-05,-3.699999999999999947e-04,-3.299999999999999982e-04,-4.000000000000000327e-05,-5.000000000000000240e-05,-6.999999999999999387e-05,5.000000000000000000e+00,9.000000000000000000e+00
2.166900000000000000e+04,-6.999999999999999387e-05,-8.000000000000000654e-05,2.000000000000000164e-05,-3.699999999999999947e-04,-3.299999999999999982e-04,-4.000000000000000327e-05,-5.000000000000000240e-05,-6.999999999999999387e-05,5.000000000000000000e+00,9.000000000000000000e+00
2.167000000000000000e+04,-6.999999999999999387e-05,-8.000000000000000654e-05,2.000000000000000164e-05,-3.699999999999999947e-04,-3.299999999999999982e-04,-4.000000000000000327e-05,-5.000000000000000240e-05,-6.999999999999999387e-05,5.000000000000000000e+00,9.000000000000000000e+00
2.167100000000000000e+04,-6.999999999999999387e-05,-8.000000000000000654e-05,2.000000000000000164e-05,-3.699999999999999947e-04,-3.299999999999999982e-04,-4.000000000000000327e-05,-5.000000000000000240e-05,-6.999999999999999387e-05,5.000000000000000000e+00,9.000000000000000000e+00
2.167200000000000000e+04,-6.999999999999999387e-05,-8.000000000000000654e-05,2.000000000000000164e-05,-3.699999999999999947e-04,-3.299999999999999982e-04,-4.000000000000000327e-05,-5.000000000000000240e-05,-6.999999999999999387e-05,5.000000000000000000e+00,9.000000000000000000e+00
2.167300000000000000e+04,-2.299999999999999799e-04,-2.600000000000000314e-04,-2.200000000000000078e-04,-1.699999999999999851e-04,-5.999999999999999474e-05,-2.900000000000000017e-04,-4.000000000000000327e-05,-5.000000000000000240e-05,5.000000000000000000e+00,9.000000000000000000e+00
2.167400000000000000e+04,-2.299999999999999799e-04,-2.600000000000000314e-04,-2.200000000000000078e-04,-1.699999999999999851e-04,-5.999999999999999474e-05,-2.900000000000000017e-04,-4.000000000000000327e-05,-5.000000000000000240e-05,5.000000000000000000e+00,9.000000000000000000e+00
2.167500000000000000e+04,-2.299999999999999799e-04,-2.600000000000000314e-04,-2.200000000000000078e-04,-1.699999999999999851e-04,-5.999999999999999474e-05,-2.900000000000000017e-04,-4.000000000000000327e-05,-5.000000000000000240e-05,5.000000000000000000e+00,9.000000000000000000e+00
2.167600000000000000e+04,-2.299999999999999799e-04,-2.600000000000000314e-04,-2.200000000000000078e-04,-1.699999999999999851e-04,-5.999999999999999474e-05,-2.900000000000000017e-04,-4.000000000000000327e-05,-5.000000000000000240e-05,5.000000000000000000e+00,9.000000000000000000e+00
2.167700000000000000e+04,-2.299999999999999799e-04,-2.600000000000000314e-04,-2.200000000000000078e-04,-1.699999999999999851e-04,-5.999999999999999474e-05,-2.900000000000000017e-04,-4.000000000000000327e-05,-5.000000000000000240e-05,5.000000000000000000e+00,9.000000000000000000e+00
2.167800000000000000e+04,-2.299999999999999799e-04,-2.600000000000000314e-04,-2.200000000000000078e-04,-1.699999999999999851e-04,-5.999999999999999474e-05,-2.900000000000000017e-04,-4.000000000000000327e-05,-5.000000000000000240e-05,5.000000000000000000e+00,9.000000000000000000e+00
2.167900000000000000e+04,-2.299999999999999799e-04,-2.600000000000000314e-04,-2.200000000000000078e-04,-1.699999999999999851e-04,-5.999999999999999474e-05,-2.900000000000000017e-04,-4.000000000000000327e-05,-5.000000000000000240e-05,5.000000000000000000e+00,9.000000000000000000e+00
2.168000000000000000e+04,-2.299999999999999799e-04,-2.600000000000000314e-04,-2.200000000000000078e-04,-1.699999999999999851e-04,-5.999999999999999474e-05,-2.900000000000000017e-04,-4.000000000000000327e-05,-5.000000000000000240e-05,5.000000000000000000e+00,9.000000000000000000e+00
2.168100000000000000e+04,-2.500000000000000052e-04,5.999999999999999474e-05,1.899999999999999834e-04,2.299999999999999799e-04,2.000000000000000164e-05,-9.000000000000000567e-05,-1.000000000000000082e-05,0.000000000000000000e+00,5.000000000000000000e+00,9.000000000000000000e+00
2.168200000000000000e+04,-2.500000000000000052e-04,5.999999999999999474e-05,1.899999999999999834e-04,2.299999999999999799e-04,2.000000000000000164e-05,-9.000000000000000567e-05,-1.000000000000000082e-05,0.000000000000000000e+00,5.000000000000000000e+00,9.000000000000000000e+00
2.168300000000000000e+04,2.200000000000000078e-04,2.999999999999999737e-05,-1.600000000000000131e-04,-2.399999999999999790e-04,-3.099999999999999999e-04,-1.399999999999999877e-04,-8.000000000000000654e-05,-1.000000000000000082e-05,5.000000000000000000e+00,9.000000000000000000e+00
2.168400000000000000e+04,2.200000000000000078e-04,2.999999999999999737e-05,-1.600000000000000131e-04,-2.399999999999999790e-04,-3.099999999999999999e-04,-1.399999999999999877e-04,-8.000000000000000654e-05,-1.000000000000000082e-05,5.000000000000000000e+00,9.000000000000000000e+00
2.168500000000000000e+04,2.200000000000000078e-04,2.999999999999999737e-05,-1.600000000000000131e-04,-2.399999999999999790e-04,-3.099999999999999999e-04,-1.399999999999999877e-04,-8.000000000000000654e-05,-1.000000000000000082e-05,5.000000000000000000e+00,9.000000000000000000e+00
2.168600000000000000e+04,2.200000000000000078e-04,2.999999999999999737e-05,-1.600000000000000131e-04,-2.399999999999999790e-04,-3.099999999999999999e-04,-1.399999999999999877e-04,-8.000000000000000654e-05,-1.000000000000000082e-05,5.000000000000000000e+00,9.000000000000000000e+00
2.168900000000000000e+04,2.200000000000000078e-04,2.999999999999999737e-05,-1.600000000000000131e-04,-2.399999999999999790e-04,-3.099999999999999999e-04,-1.399999999999999877e-04,-8.000000000000000654e-05,-1.000000000000000082e-05,5.000000000000000000e+00,9.000000000000000000e+00
2.169000000000000000e+04,2.200000000000000078e-04,2.999999999999999737e-05,-1.600000000000000131e-04,-2.399999999999999790e-04,-3.099999999999999999e-04,-1.399999999999999877e-04,-8.000000000000000654e-05,-1.000000000000000082e-05,5.000000000000000000e+00,9.000000000000000000e+00
2.169100000000000000e+04,2.200000000000000078e-04,2.999999999999999737e-05,-1.600000000000000131e-04,-2.399999999999999790e-04,-3.099999999999999999e-04,-1.399999999999999877e-04,-8.000000000000000654e-05,-1.000000000000000082e-05,5.000000000000000000e+00,9.000000000000000000e+00
2.169200000000000000e+04,2.200000000000000078e-04,2.999999999999999737e-05,-1.600000000000000131e-04,-2.399999999999999790e-04,-3.099999999999999999e-04,-1.399999999999999877e-04,-8.000000000000000654e-05,-1.000000000000000082e-05,5.000000000000000000e+00,9.000000000000000000e+00
2.169300000000000000e+04,2.200000000000000078e-04,2.999999999999999737e-05,-1.600000000000000131e-04,-2.399999999999999790e-04,-3.099999999999999999e-04,-1.399999999999999877e-04,-8.000000000000000654e-05,-1.000000000000000082e-05,5.000000000000000000e+00,9.000000000000000000e+00
2.169400000000000000e+04,2.200000000000000078e-04,2.999999999999999737e-05,-1.600000000000000131e-04,-2.399999999999999790e-04,-3.099999999999999999e-04,-1.399999999999999877e-04,-8.000000000000000654e-05,-1.000000000000000082e-05,5.000000000000000000e+00,9.000000000000000000e+00
2.169500000000000000e+04,2.200000000000000078e-04,2.999999999999999737e-05,-1.600000000000000131e-04,-2.399999999999999790e-04,-3.099999999999999999e-04,-1.399999999999999877e-04,-8.000000000000000654e-05,-1.000000000000000082e-05,5.000000000000000000e+00,9.000000000000000000e+00
2.169600000000000000e+04,2.200000000000000078e-04,2.999999999999999737e-05,-1.600000000000000131e-04,-2.399999999999999790e-04,-3.099999999999999999e-04,-1.399999999999999877e-04,-8.000000000000000654e-05,-1.000000000000000082e-05,5.000000000000000000e+00,9.000000000000000000e+00
2.169700000000000000e+04,2.200000000000000078e-04,2.999999999999999737e-05,-1.600000000000000131e-04,-2.399999999999999790e-04,-3.099999999999999999e-04,-1.399999999999999877e-04,-8.000000000000000654e-05,-1.000000000000000082e-05,5.000000000000000000e+00,9.000000000000000000e+00
2.169800000000000000e+04,2.200000000000000078e-04,2.999999999999999737e-05,-1.600000000000000131e-04,-2.399999999999999790e-04,-3.099999999999999999e-04,-1.399999999999999877e-04,-8.000000000000000654e-05,-1.000000000000000082e-05,5.000000000000000000e+00,9.000000000000000000e+00
2.169900000000000000e+04,2.200000000000000078e-04,2.999999999999999737e-05,-1.600000000000000131e-04,-2.399999999999999790e-04,-3.099999999999999999e-04,-1.399999999999999877e-04,-8.000000000000000654e-05,-1.000000000000000082e-05,5.000000000000000000e+00,9.000000000000000000e+00
2.170000000000000000e+04,2.200000000000000078e-04,2.999999999999999737e-05,-1.600000000000000131e-04,-2.399999999999999790e-04,-3.099999999999999999e-04,-1.399999999999999877e-04,-8.000000000000000654e-05,-1.000000000000000082e-05,5.000000000000000000e+00,9.000000000000000000e+00
2.170100000000000000e+04,2.200000000000000078e-04,2.999999999999999737e-05,-1.600000000000000131e-04,-2.399999999999999790e-04,-3.099999999999999999e-04,-1.399999999999999877e-04,-8.000000000000000654e-05,-1.000000000000000082e-05,5.000000000000000000e+00,9.000000000000000000e+00
2.170200000000000000e+04,2.200000000000000078e-04,2.999999999999999737e-05,-1.600000000000000131e-04,-2.399999999999999790e-04,-3.099999999999999999e-04,-1.399999999999999877e-04,-8.000000000000000654e-05,-1.000000000000000082e-05,5.000000000000000000e+00,9.000000000000000000e+00
2.170300000000000000e+04,2.200000000000000078e-04,2.999999999999999737e-05,-1.600000000000000131e-04,-2.399999999999999790e-04,-3.099999999999999999e-04,-1.399999999999999877e-04,-8.000000000000000654e-05,-1.000000000000000082e-05,5.000000000000000000e+00,9.000000000000000000e+00
2.170400000000000000e+04,2.200000000000000078e-04,2.999999999999999737e-05,-1.600000000000000131e-04,-2.399999999999999790e-04,-3.099999999999999999e-04,-1.399999999999999877e-04,-8.000000000000000654e-05,-1.000000000000000082e-05,5.000000000000000000e+00,9.000000000000000000e+00
2.170500000000000000e+04,2.200000000000000078e-04,2.999999999999999737e-05,-1.600000000000000131e-04,-2.399999999999999790e-04,-3.099999999999999999e-04,-1.399999999999999877e-04,-8.000000000000000654e-05,-1.000000000000000082e-05,5.000000000000000000e+00,9.000000000000000000e+00
2.170600000000000000e+04,2.200000000000000078e-04,2.999999999999999737e-05,-1.600000000000000131e-04,-2.399999999999999790e-04,-3.099999999999999999e-04,-1.399999999999999877e-04,-8.000000000000000654e-05,-1.000000000000000082e-05,5.000000000000000000e+00,9.000000000000000000e+00
2.170700000000000000e+04,2.200000000000000078e-04,2.999999999999999737e-05,-1.600000000000000131e-04,-2.399999999999999790e-04,-3.099999999999999999e-04,-1.399999999999999877e-04,-8.000000000000000654e-05,-1.000000000000000082e-05,5.000000000000000000e+00,9.000000000000000000e+00
2.170800000000000000e+04,2.200000000000000078e-04,2.999999999999999737e-05,-1.600000000000000131e-04,-2.399999999999999790e-04,-3.099999999999999999e-04,-1.399999999999999877e-04,-8.000000000000000654e-05,-1.000000000000000082e-05,5.000000000000000000e+00,9.000000000000000000e+00
2.170900000000000000e+04,2.200000000000000078e-04,2.999999999999999737e-05,-1.600000000000000131e-04,-2.399999999999999790e-04,-3.099999999999999999e-04,-1.399999999999999877e-04,-8.000000000000000654e-05,-1.000000000000000082e-05,5.000000000000000000e+00,9.000000000000000000e+00
2.171000000000000000e+04,2.200000000000000078e-04,2.999999999999999737e-05,-1.600000000000000131e-04,-2.399999999999999790e-04,-3.099999999999999999e-04,-1.399999999999999877e-04,-8.000000000000000654e-05,-1.000000000000000082e-05,5.000000000000000000e+00,9.000000000000000000e+00
2.171100000000000000e+04,2.200000000000000078e-04,2.999999999999999737e-05,-1.600000000000000131e-04,-2.399999999999999790e-04,-3.099999999999999999e-04,-1.399999999999999877e-04,-8.000000000000000654e-05,-1.000000000000000082e-05,5.000000000000000000e+00,9.000000000000000000e+00
2.171200000000000000e+04,1.600000000000000131e-04,-2.200000000000000078e-04,-4.000000000000000327e-05,1.100000000000000039e-04,-1.499999999999999869e-04,-5.999999999999999474e-05,0.000000000000000000e+00,1.000000000000000082e-05,5.000000000000000000e+00,9.000000000000000000e+00
2.171300000000000000e+04,2.399999999999999790e-04,8.000000000000000654e-05,4.000000000000000327e-05,2.999999999999999737e-05,-3.600000000000000227e-04,-1.100000000000000039e-04,0.000000000000000000e+00,6.999999999999999387e-05,5.000000000000000000e+00,9.000000000000000000e+00
2.171400000000000000e+04,2.399999999999999790e-04,8.000000000000000654e-05,4.000000000000000327e-05,2.999999999999999737e-05,-3.600000000000000227e-04,-1.100000000000000039e-04,0.000000000000000000e+00,6.999999999999999387e-05,5.000000000000000000e+00,9.000000000000000000e+00
2.171500000000000000e+04,2.399999999999999790e-04,8.000000000000000654e-05,4.000000000000000327e-05,2.999999999999999737e-05,-3.600000000000000227e-04,-1.100000000000000039e-04,0.000000000000000000e+00,6.999999999999999387e-05,5.000000000000000000e+00,9.000000000000000000e+00
2.171600000000000000e+04,2.399999999999999790e-04,8.000000000000000654e-05,4.000000000000000327e-05,2.999999999999999737e-05,-3.600000000000000227e-04,-1.100000000000000039e-04,0.000000000000000000e+00,6.999999999999999387e-05,5.000000000000000000e+00,9.000000000000000000e+00
2.171700000000000000e+04,2.399999999999999790e-04,8.000000000000000654e-05,4.000000000000000327e-05,2.999999999999999737e-05,-3.600000000000000227e-04,-1.100000000000000039e-04,0.000000000000000000e+00,6.999999999999999387e-05,5.000000000000000000e+00,9.000000000000000000e+00
2.171800000000000000e+04,2.399999999999999790e-04,8.000000000000000654e-05,4.000000000000000327e-05,2.999999999999999737e-05,-3.600000000000000227e-04,-1.100000000000000039e-04,0.000000000000000000e+00,6.999999999999999387e-05,5.000000000000000000e+00,9.000000000000000000e+00
2.171900000000000000e+04,2.999999999999999737e-04,2.000000000000000164e-05,5.999999999999999474e-05,6.999999999999999387e-05,-1.000000000000000048e-04,9.000000000000000567e-05,9.000000000000000567e-05,1.199999999999999895e-04,5.000000000000000000e+00,9.000000000000000000e+00
2.172000000000000000e+04,2.999999999999999737e-04,2.000000000000000164e-05,5.999999999999999474e-05,6.999999999999999387e-05,-1.000000000000000048e-04,9.000000000000000567e-05,9.000000000000000567e-05,1.199999999999999895e-04,5.000000000000000000e+00,9.000000000000000000e+00
2.172100000000000000e+04,-3.699999999999999947e-04,-1.699999999999999851e-04,0.000000000000000000e+00,0.000000000000000000e+00,-3.099999999999999999e-04,-2.999999999999999737e-04,-9.000000000000000567e-05,-9.000000000000000567e-05,5.000000000000000000e+00,9.000000000000000000e+00
2.172200000000000000e+04,-3.699999999999999947e-04,-1.699999999999999851e-04,0.000000000000000000e+00,0.000000000000000000e+00,-3.099999999999999999e-04,-2.999999999999999737e-04,-9.000000000000000567e-05,-9.000000000000000567e-05,5.000000000000000000e+00,9.000000000000000000e+00
2.172300000000000000e+04,-3.699999999999999947e-04,-1.699999999999999851e-04,0.000000000000000000e+00,0.000000000000000000e+00,-3.099999999999999999e-04,-2.999999999999999737e-04,-9.000000000000000567e-05,-9.000000000000000567e-05,5.000000000000000000e+00,9.000000000000000000e+00
2.172400000000000000e+04,-3.699999999999999947e-04,-1.699999999999999851e-04,0.000000000000000000e+00,0.000000000000000000e+00,-3.099999999999999999e-04,-2.999999999999999737e-04,-9.000000000000000567e-05,-9.000000000000000567e-05,5.000000000000000000e+00,9.000000000000000000e+00
2.172500000000000000e+04,-3.699999999999999947e-04,-1.699999999999999851e-04,0.000000000000000000e+00,0.000000000000000000e+00,-3.099999999999999999e-04,-2.999999999999999737e-04,-9.000000000000000567e-05,-9.000000000000000567e-05,5.000000000000000000e+00,9.000000000000000000e+00
2.172600000000000000e+04,-3.699999999999999947e-04,-1.699999999999999851e-04,0.000000000000000000e+00,0.000000000000000000e+00,-3.099999999999999999e-04,-2.999999999999999737e-04,-9.000000000000000567e-05,-9.000000000000000567e-05,5.000000000000000000e+00,9.000000000000000000e+00
2.172700000000000000e+04,-3.699999999999999947e-04,-1.699999999999999851e-04,0.000000000000000000e+00,0.000000000000000000e+00,-3.099999999999999999e-04,-2.999999999999999737e-04,-9.000000000000000567e-05,-9.000000000000000567e-05,5.000000000000000000e+00,9.000000000000000000e+00
2.172800000000000000e+04,-3.699999999999999947e-04,-1.699999999999999851e-04,0.000000000000000000e+00,0.000000000000000000e+00,-3.099999999999999999e-04,-2.999999999999999737e-04,-9.000000000000000567e-05,-9.000000000000000567e-05,5.000000000000000000e+00,9.000000000000000000e+00
2.172900000000000000e+04,-3.699999999999999947e-04,-1.699999999999999851e-04,0.000000000000000000e+00,0.000000000000000000e+00,-3.099999999999999999e-04,-2.999999999999999737e-04,-9.000000000000000567e-05,-9.000000000000000567e-05,5.000000000000000000e+00,9.000000000000000000e+00
2.173000000000000000e+04,-3.699999999999999947e-04,-1.699999999999999851e-04,0.000000000000000000e+00,0.000000000000000000e+00,-3.099999999999999999e-04,-2.999999999999999737e-04,-9.000000000000000567e-05,-9.000000000000000567e-05,5.000000000000000000e+00,9.000000000000000000e+00
2.173100000000000000e+04,-3.699999999999999947e-04,-1.699999999999999851e-04,0.000000000000000000e+00,0.000000000000000000e+00,-3.099999999999999999e-04,-2.999999999999999737e-04,-9.000000000000000567e-05,-9.000000000000000567e-05,5.000000000000000000e+00,9.000000000000000000e+00
2.173200000000000000e+04,-3.699999999999999947e-04,-1.699999999999999851e-04,0.000000000000000000e+00,0.000000000000000000e+00,-3.099999999999999999e-04,-2.999999999999999737e-04,-9.000000000000000567e-05,-9.000000000000000567e-05,5.000000000000000000e+00,9.000000000000000000e+00
2.173300000000000000e+04,-3.699999999999999947e-04,-1.699999999999999851e-04,0.000000000000000000e+00,0.000000000000000000e+00,-3.099999999999999999e-04,-2.999999999999999737e-04,-9.000000000000000567e-05,-9.000000000000000567e-05,5.000000000000000000e+00,9.000000000000000000e+00
2.173400000000000000e+04,-3.699999999999999947e-04,-1.699999999999999851e-04,0.000000000000000000e+00,0.000000000000000000e+00,-3.099999999999999999e-04,-2.999999999999999737e-04,-9.000000000000000567e-05,-9.000000000000000567e-05,5.000000000000000000e+00,9.000000000000000000e+00
2.173500000000000000e+04,-3.699999999999999947e-04,-1.699999999999999851e-04,0.000000000000000000e+00,0.000000000000000000e+00,-3.099999999999999999e-04,-2.999999999999999737e-04,-9.000000000000000567e-05,-9.000000000000000567e-05,5.000000000000000000e+00,9.000000000000000000e+00
2.173600000000000000e+04,-3.699999999999999947e-04,-1.699999999999999851e-04,0.000000000000000000e+00,0.000000000000000000e+00,-3.099999999999999999e-04,-2.999999999999999737e-04,-9.000000000000000567e-05,-9.000000000000000567e-05,5.000000000000000000e+00,9.000000000000000000e+00
2.173800000000000000e+04,-3.699999999999999947e-04,-1.699999999999999851e-04,0.000000000000000000e+00,0.000000000000000000e+00,-3.099999999999999999e-04,-2.999999999999999737e-04,-9.000000000000000567e-05,-9.000000000000000567e-05,5.000000000000000000e+00,9.000000000000000000e+00
2.173900000000000000e+04,-3.699999999999999947e-04,-1.699999999999999851e-04,0.000000000000000000e+00,0.000000000000000000e+00,-3.099999999999999999e-04,-2.999999999999999737e-04,-9.000000000000000567e-05,-9.000000000000000567e-05,5.000000000000000000e+00,9.000000000000000000e+00
2.174000000000000000e+04,-3.699999999999999947e-04,-1.699999999999999851e-04,0.000000000000000000e+00,0.000000000000000000e+00,-3.099999999999999999e-04,-2.999999999999999737e-04,-9.000000000000000567e-05,-9.000000000000000567e-05,5.000000000000000000e+00,9.000000000000000000e+00
2.174100000000000000e+04,-3.699999999999999947e-04,-1.699999999999999851e-04,0.000000000000000000e+00,0.000000000000000000e+00,-3.099999999999999999e-04,-2.999999999999999737e-04,-9.000000000000000567e-05,-9.000000000000000567e-05,5.000000000000000000e+00,9.000000000000000000e+00
2.174200000000000000e+04,-3.699999999999999947e-04,-1.699999999999999851e-04,0.000000000000000000e+00,0.000000000000000000e+00,-3.099999999999999999e-04,-2.999999999999999737e-04,-9.000000000000000567e-05,-9.000000000000000567e-05,5.000000000000000000e+00,9.000000000000000000e+00
2.174300000000000000e+04,-3.699999999999999947e-04,-1.699999999999999851e-04,0.000000000000000000e+00,0.000000000000000000e+00,-3.099999999999999999e-04,-2.999999999999999737e-04,-9.000000000000000567e-05,-9.000000000000000567e-05,5.000000000000000000e+00,9.000000000000000000e+00
2.174400000000000000e+04,-3.699999999999999947e-04,-1.699999999999999851e-04,0.000000000000000000e+00,0.000000000000000000e+00,-3.099999999999999999e-04,-2.999999999999999737e-04,-9.000000000000000567e-05,-9.000000000000000567e-05,5.000000000000000000e+00,9.000000000000000000e+00
2.174500000000000000e+04,-3.699999999999999947e-04,-1.699999999999999851e-04,0.000000000000000000e+00,0.000000000000000000e+00,-3.099999999999999999e-04,-2.999999999999999737e-04,-9.000000000000000567e-05,-9.000000000000000567e-05,5.000000000000000000e+00,9.000000000000000000e+00
2.174600000000000000e+04,-3.699999999999999947e-04,-1.699999999999999851e-04,0.000000000000000000e+00,0.000000000000000000e+00,-3.099999999999999999e-04,-2.999999999999999737e-04,-9.000000000000000567e-05,-9.000000000000000567e-05,5.000000000000000000e+00,9.000000000000000000e+00
2.174700000000000000e+04,-3.699999999999999947e-04,-1.699999999999999851e-04,0.000000000000000000e+00,0.000000000000000000e+00,-3.099999999999999999e-04,-2.999999999999999737e-04,-9.000000000000000567e-05,-9.000000000000000567e-05,5.000000000000000000e+00,9.000000000000000000e+00
2.174800000000000000e+04,-3.699999999999999947e-04,-1.699999999999999851e-04,0.000000000000000000e+00,0.000000000000000000e+00,-3.099999999999999999e-04,-2.999999999999999737e-04,-9.000000000000000567e-05,-9.000000000000000567e-05,5.000000000000000000e+00,9.000000000000000000e+00
2.174900000000000000e+04,-3.699999999999999947e-04,-1.699999999999999851e-04,0.000000000000000000e+00,0.000000000000000000e+00,-3.099999999999999999e-04,-2.999999999999999737e-04,-9.000000000000000567e-05,-9.000000000000000567e-05,5.000000000000000000e+00,9.000000000000000000e+00
2.175000000000000000e+04,1.499999999999999869e-04,1.899999999999999834e-04,8.000000000000000654e-05,1.600000000000000131e-04,2.600000000000000314e-04,9.000000000000000567e-05,6.999999999999999387e-05,2.999999999999999737e-05,5.000000000000000000e+00,9.000000000000000000e+00
2.175100000000000000e+04,1.499999999999999869e-04,1.899999999999999834e-04,8.000000000000000654e-05,1.600000000000000131e-04,2.600000000000000314e-04,9.000000000000000567e-05,6.999999999999999387e-05,2.999999999999999737e-05,5.000000000000000000e+00,9.000000000000000000e+00
2.175200000000000000e+04,1.499999999999999869e-04,1.899999999999999834e-04,8.000000000000000654e-05,1.600000000000000131e-04,2.600000000000000314e-04,9.000000000000000567e-05,6.999999999999999387e-05,2.999999999999999737e-05,5.000000000000000000e+00,9.000000000000000000e+00
2.175300000000000000e+04,1.499999999999999869e-04,1.899999999999999834e-04,8.000000000000000654e-05,1.600000000000000131e-04,2.600000000000000314e-04,9.000000000000000567e-05,6.999999999999999387e-05,2.999999999999999737e-05,5.000000000000000000e+00,9.000000000000000000e+00
2.175400000000000000e+04,1.499999999999999869e-04,1.899999999999999834e-04,8.000000000000000654e-05,1.600000000000000131e-04,2.600000000000000314e-04,9.000000000000000567e-05,6.999999999999999387e-05,2.999999999999999737e-05,5.000000000000000000e+00,9.000000000000000000e+00
2.175500000000000000e+04,1.499999999999999869e-04,1.899999999999999834e-04,8.000000000000000654e-05,1.600000000000000131e-04,2.600000000000000314e-04,9.000000000000000567e-05,6.999999999999999387e-05,2.999999999999999737e-05,5.000000000000000000e+00,9.000000000000000000e+00
2.175600000000000000e+04,1.499999999999999869e-04,1.899999999999999834e-04,8.000000000000000654e-05,1.600000000000000131e-04,2.600000000000000314e-04,9.000000000000000567e-05,6.999999999999999387e-05,2.999999999999999737e-05,5.000000000000000000e+00,9.000000000000000000e+00
2.175700000000000000e+04,-2.100000000000000087e-04,-1.100000000000000039e-04,1.000000000000000048e-04,2.000000000000000096e-04,9.000000000000000567e-05,4.000000000000000327e-05,0.000000000000000000e+00,0.000000000000000000e+00,5.000000000000000000e+00,9.000000000000000000e+00
2.175800000000000000e+04,-2.100000000000000087e-04,-1.100000000000000039e-04,1.000000000000000048e-04,2.000000000000000096e-04,9.000000000000000567e-05,4.000000000000000327e-05,0.000000000000000000e+00,0.000000000000000000e+00,5.000000000000000000e+00,9.000000000000000000e+00
2.175900000000000000e+04,-2.100000000000000087e-04,-1.100000000000000039e-04,1.000000000000000048e-04,2.000000000000000096e-04,9.000000000000000567e-05,4.000000000000000327e-05,0.000000000000000000e+00,0.000000000000000000e+00,5.000000000000000000e+00,9.000000000000000000e+00
2.176000000000000000e+04,-2.100000000000000087e-04,-1.100000000000000039e-04,1.000000000000000048e-04,2.000000000000000096e-04,9.000000000000000567e-05,4.000000000000000327e-05,0.000000000000000000e+00,0.000000000000000000e+00,5.000000000000000000e+00,9.000000000000000000e+00
2.176100000000000000e+04,-2.100000000000000087e-04,-1.100000000000000039e-04,1.000000000000000048e-04,2.000000000000000096e-04,9.000000000000000567e-05,4.000000000000000327e-05,0.000000000000000000e+00,0.000000000000000000e+00,5.000000000000000000e+00,9.000000000000000000e+00
2.176200000000000000e+04,-2.100000000000000087e-04,-1.100000000000000039e-04,1.000000000000000048e-04,2.000000000000000096e-04,9.000000000000000567e-05,4.000000000000000327e-05,0.000000000000000000e+00,0.000000000000000000e+00,5.000000000000000000e+00,9.000000000000000000e+00
2.176300000000000000e+04,-2.100000000000000087e-04,-1.100000000000000039e-04,1.000000000000000048e-04,2.000000000000000096e-04,9.000000000000000567e-05,4.000000000000000327e-05,0.000000000000000000e+00,0.000000000000000000e+00,5.000000000000000000e+00,9.000000000000000000e+00
2.176400000000000000e+04,-1.600000000000000131e-04,-4.000000000000000327e-05,9.000000000000000567e-05,1.000000000000000048e-04,5.999999999999999474e-04,1.000000000000000048e-04,2.000000000000000164e-05,-5.999999999999999474e-05,5.000000000000000000e+00,9.000000000000000000e+00
2.176500000000000000e+04,-1.600000000000000131e-04,-4.000000000000000327e-05,9.000000000000000567e-05,1.000000000000000048e-04,5.999999999999999474e-04,1.000000000000000048e-04,2.000000000000000164e-05,-5.999999999999999474e-05,5.000000000000000000e+00,9.000000000000000000e+00
2.176600000000000000e+04,-1.699999999999999851e-04,2.000000000000000164e-05,-6.999999999999999387e-05,-1.800000000000000113e-04,2.600000000000000314e-04,1.100000000000000039e-04,1.000000000000000082e-05,-5.000000000000000240e-05,5.000000000000000000e+00,9.000000000000000000e+00
2.176700000000000000e+04,-1.699999999999999851e-04,2.000000000000000164e-05,-6.999999999999999387e-05,-1.800000000000000113e-04,2.600000000000000314e-04,1.100000000000000039e-04,1.000000000000000082e-05,-5.000000000000000240e-05,5.000000000000000000e+00,9.000000000000000000e+00
2.176800000000000000e+04,-1.699999999999999851e-04,2.000000000000000164e-05,-6.999999999999999387e-05,-1.800000000000000113e-04,2.600000000000000314e-04,1.100000000000000039e-04,1.000000000000000082e-05,-5.000000000000000240e-05,5.000000000000000000e+00,9.000000000000000000e+00
2.176900000000000000e+04,-1.699999999999999851e-04,2.000000000000000164e-05,-6.999999999999999387e-05,-1.800000000000000113e-04,2.600000000000000314e-04,1.100000000000000039e-04,1.000000000000000082e-05,-5.000000000000000240e-05,5.000000000000000000e+00,9.000000000000000000e+00
2.177000000000000000e+04,-1.699999999999999851e-04,2.000000000000000164e-05,-6.999999999999999387e-05,-1.800000000000000113e-04,2.600000000000000314e-04,1.100000000000000039e-04,1.000000000000000082e-05,-5.000000000000000240e-05,5.000000000000000000e+00,9.000000000000000000e+00
2.177100000000000000e+04,-1.699999999999999851e-04,2.000000000000000164e-05,-6.999999999999999387e-05,-1.800000000000000113e-04,2.600000000000000314e-04,1.100000000000000039e-04,1.000000000000000082e-05,-5.000000000000000240e-05,5.000000000000000000e+00,9.000000000000000000e+00
2.177200000000000000e+04,-1.699999999999999851e-04,2.000000000000000164e-05,-6.999999999999999387e-05,-1.800000000000000113e-04,2.600000000000000314e-04,1.100000000000000039e-04,1.000000000000000082e-05,-5.000000000000000240e-05,5.000000000000000000e+00,9.000000000000000000e+00
2.177300000000000000e+04,-1.699999999999999851e-04,2.000000000000000164e-05,-6.999999999999999387e-05,-1.800000000000000113e-04,2.600000000000000314e-04,1.100000000000000039e-04,1.000000000000000082e-05,-5.000000000000000240e-05,5.000000000000000000e+00,9.000000000000000000e+00
2.177400000000000000e+04,-1.699999999999999851e-04,2.000000000000000164e-05,-6.999999999999999387e-05,-1.800000000000000113e-04,2.600000000000000314e-04,1.100000000000000039e-04,1.000000000000000082e-05,-5.000000000000000240e-05,5.000000000000000000e+00,9.000000000000000000e+00
2.177500000000000000e+04,-1.699999999999999851e-04,2.000000000000000164e-05,-6.999999999999999387e-05,-1.800000000000000113e-04,2.600000000000000314e-04,1.100000000000000039e-04,1.000000000000000082e-05,-5.000000000000000240e-05,5.000000000000000000e+00,9.000000000000000000e+00
2.177600000000000000e+04,-1.699999999999999851e-04,2.000000000000000164e-05,-6.999999999999999387e-05,-1.800000000000000113e-04,2.600000000000000314e-04,1.100000000000000039e-04,1.000000000000000082e-05,-5.000000000000000240e-05,5.000000000000000000e+00,9.000000000000000000e+00
2.177700000000000000e+04,-1.699999999999999851e-04,2.000000000000000164e-05,-6.999999999999999387e-05,-1.800000000000000113e-04,2.600000000000000314e-04,1.100000000000000039e-04,1.000000000000000082e-05,-5.000000000000000240e-05,5.000000000000000000e+00,9.000000000000000000e+00
2.177800000000000000e+04,-1.699999999999999851e-04,2.000000000000000164e-05,-6.999999999999999387e-05,-1.800000000000000113e-04,2.600000000000000314e-04,1.100000000000000039e-04,1.000000000000000082e-05,-5.000000000000000240e-05,5.000000000000000000e+00,9.000000000000000000e+00
2.177900000000000000e+04,-1.699999999999999851e-04,2.000000000000000164e-05,-6.999999999999999387e-05,-1.800000000000000113e-04,2.600000000000000314e-04,1.100000000000000039e-04,1.000000000000000082e-05,-5.000000000000000240e-05,5.000000000000000000e+00,9.000000000000000000e+00
2.178000000000000000e+04,-1.699999999999999851e-04,2.000000000000000164e-05,-6.999999999999999387e-05,-1.800000000000000113e-04,2.600000000000000314e-04,1.100000000000000039e-04,1.000000000000000082e-05,-5.000000000000000240e-05,5.000000000000000000e+00,9.000000000000000000e+00
2.178100000000000000e+04,-1.699999999999999851e-04,2.000000000000000164e-05,-6.999999999999999387e-05,-1.800000000000000113e-04,2.600000000000000314e-04,1.100000000000000039e-04,1.000000000000000082e-05,-5.000000000000000240e-05,5.000000000000000000e+00,9.000000000000000000e+00
2.178200000000000000e+04,-1.699999999999999851e-04,2.000000000000000164e-05,-6.999999999999999387e-05,-1.800000000000000113e-04,2.600000000000000314e-04,1.100000000000000039e-04,1.000000000000000082e-05,-5.000000000000000240e-05,5.000000000000000000e+00,9.000000000000000000e+00
2.178300000000000000e+04,-1.699999999999999851e-04,2.000000000000000164e-05,-6.999999999999999387e-05,-1.800000000000000113e-04,2.600000000000000314e-04,1.100000000000000039e-04,1.000000000000000082e-05,-5.000000000000000240e-05,5.000000000000000000e+00,9.000000000000000000e+00
2.178400000000000000e+04,-1.699999999999999851e-04,2.000000000000000164e-05,-6.999999999999999387e-05,-1.800000000000000113e-04,2.600000000000000314e-04,1.100000000000000039e-04,1.000000000000000082e-05,-5.000000000000000240e-05,5.000000000000000000e+00,9.000000000000000000e+00
2.178500000000000000e+04,-1.699999999999999851e-04,2.000000000000000164e-05,-6.999999999999999387e-05,-1.800000000000000113e-04,2.600000000000000314e-04,1.100000000000000039e-04,1.000000000000000082e-05,-5.000000000000000240e-05,5.000000000000000000e+00,9.000000000000000000e+00
2.178600000000000000e+04,-1.699999999999999851e-04,2.000000000000000164e-05,-6.999999999999999387e-05,-1.800000000000000113e-04,2.600000000000000314e-04,1.100000000000000039e-04,1.000000000000000082e-05,-5.000000000000000240e-05,5.000000000000000000e+00,9.000000000000000000e+00
2.178800000000000000e+04,-1.699999999999999851e-04,2.000000000000000164e-05,-6.999999999999999387e-05,-1.800000000000000113e-04,2.600000000000000314e-04,1.100000000000000039e-04,1.000000000000000082e-05,-5.000000000000000240e-05,5.000000000000000000e+00,9.000000000000000000e+00
2.178900000000000000e+04,-1.699999999999999851e-04,2.000000000000000164e-05,-6.999999999999999387e-05,-1.800000000000000113e-04,2.600000000000000314e-04,1.100000000000000039e-04,1.000000000000000082e-05,-5.000000000000000240e-05,5.000000000000000000e+00,9.000000000000000000e+00
2.179000000000000000e+04,-1.699999999999999851e-04,2.000000000000000164e-05,-6.999999999999999387e-05,-1.800000000000000113e-04,2.600000000000000314e-04,1.100000000000000039e-04,1.000000000000000082e-05,-5.000000000000000240e-05,5.000000000000000000e+00,9.000000000000000000e+00
2.179100000000000000e+04,-1.699999999999999851e-04,2.000000000000000164e-05,-6.999999999999999387e-05,-1.800000000000000113e-04,2.600000000000000314e-04,1.100000000000000039e-04,1.000000000000000082e-05,-5.000000000000000240e-05,5.000000000000000000e+00,9.000000000000000000e+00
2.179200000000000000e+04,-1.699999999999999851e-04,2.000000000000000164e-05,-6.999999999999999387e-05,-1.800000000000000113e-04,2.600000000000000314e-04,1.100000000000000039e-04,1.000000000000000082e-05,-5.000000000000000240e-05,5.000000000000000000e+00,9.000000000000000000e+00
2.179300000000000000e+04,-1.699999999999999851e-04,2.000000000000000164e-05,-6.999999999999999387e-05,-1.800000000000000113e-04,2.600000000000000314e-04,1.100000000000000039e-04,1.000000000000000082e-05,-5.000000000000000240e-05,5.000000000000000000e+00,9.000000000000000000e+00
2.179400000000000000e+04,-1.300000000000000157e-04,-2.600000000000000314e-04,4.000000000000000327e-05,1.000000000000000082e-05,-4.400000000000000157e-04,-5.999999999999999474e-05,-1.000000000000000082e-05,0.000000000000000000e+00,5.000000000000000000e+00,9.000000000000000000e+00
2.179500000000000000e+04,-1.300000000000000157e-04,-2.600000000000000314e-04,4.000000000000000327e-05,1.000000000000000082e-05,-4.400000000000000157e-04,-5.999999999999999474e-05,-1.000000000000000082e-05,0.000000000000000000e+00,5.000000000000000000e+00,9.000000000000000000e+00
2.179600000000000000e+04,-1.499999999999999869e-04,-5.999999999999999474e-05,-1.499999999999999869e-04,1.399999999999999877e-04,3.499999999999999964e-04,5.999999999999999474e-05,0.000000000000000000e+00,-2.000000000000000164e-05,5.000000000000000000e+00,9.000000000000000000e+00
2.179700000000000000e+04,-1.499999999999999869e-04,-5.999999999999999474e-05,-1.499999999999999869e-04,1.399999999999999877e-04,3.499999999999999964e-04,5.999999999999999474e-05,0.000000000000000000e+00,-2.000000000000000164e-05,5.000000000000000000e+00,9.000000000000000000e+00
2.179800000000000000e+04,-1.499999999999999869e-04,-5.999999999999999474e-05,-1.499999999999999869e-04,1.399999999999999877e-04,3.499999999999999964e-04,5.999999999999999474e-05,0.000000000000000000e+00,-2.000000000000000164e-05,5.000000000000000000e+00,9.000000000000000000e+00
2.179900000000000000e+04,-1.499999999999999869e-04,-5.999999999999999474e-05,-1.499999999999999869e-04,1.399999999999999877e-04,3.499999999999999964e-04,5.999999999999999474e-05,0.000000000000000000e+00,-2.000000000000000164e-05,5.000000000000000000e+00,9.000000000000000000e+00
2.180100000000000000e+04,1.499999999999999869e-04,2.299999999999999799e-04,-8.000000000000000654e-05,-2.200000000000000078e-04,-5.299999999999999807e-04,-2.299999999999999799e-04,0.000000000000000000e+00,5.000000000000000240e-05,5.000000000000000000e+00,9.000000000000000000e+00
2.180200000000000000e+04,-4.200000000000000174e-04,-4.000000000000000192e-04,-1.300000000000000157e-04,-1.000000000000000082e-05,3.799999999999999667e-04,1.000000000000000082e-05,-6.999999999999999387e-05,-1.499999999999999869e-04,5.000000000000000000e+00,9.000000000000000000e+00
2.180300000000000000e+04,5.000000000000000240e-05,4.000000000000000327e-05,8.000000000000000654e-05,8.000000000000000654e-05,-6.499999999999999702e-04,1.600000000000000131e-04,1.000000000000000048e-04,-1.000000000000000082e-05,5.000000000000000000e+00,9.000000000000000000e+00
2.180400000000000000e+04,5.000000000000000240e-05,4.000000000000000327e-05,8.000000000000000654e-05,8.000000000000000654e-05,-6.499999999999999702e-04,1.600000000000000131e-04,1.000000000000000048e-04,-1.000000000000000082e-05,5.000000000000000000e+00,9.000000000000000000e+00
2.180500000000000000e+04,5.000000000000000240e-05,4.000000000000000327e-05,8.000000000000000654e-05,8.000000000000000654e-05,-6.499999999999999702e-04,1.600000000000000131e-04,1.000000000000000048e-04,-1.000000000000000082e-05,5.000000000000000000e+00,9.000000000000000000e+00
2.180600000000000000e+04,5.000000000000000240e-05,4.000000000000000327e-05,8.000000000000000654e-05,8.000000000000000654e-05,-6.499999999999999702e-04,1.600000000000000131e-04,1.000000000000000048e-04,-1.000000000000000082e-05,5.000000000000000000e+00,9.000000000000000000e+00
2.180700000000000000e+04,5.000000000000000240e-05,4.000000000000000327e-05,8.000000000000000654e-05,8.000000000000000654e-05,-6.499999999999999702e-04,1.600000000000000131e-04,1.000000000000000048e-04,-1.000000000000000082e-05,5.000000000000000000e+00,9.000000000000000000e+00
2.180800000000000000e+04,5.000000000000000240e-05,4.000000000000000327e-05,8.000000000000000654e-05,8.000000000000000654e-05,-6.499999999999999702e-04,1.600000000000000131e-04,1.000000000000000048e-04,-1.000000000000000082e-05,5.000000000000000000e+00,9.000000000000000000e+00
2.180900000000000000e+04,5.000000000000000240e-05,4.000000000000000327e-05,8.000000000000000654e-05,8.000000000000000654e-05,-6.499999999999999702e-04,1.600000000000000131e-04,1.000000000000000048e-04,-1.000000000000000082e-05,5.000000000000000000e+00,9.000000000000000000e+00
2.181000000000000000e+04,5.000000000000000240e-05,4.000000000000000327e-05,8.000000000000000654e-05,8.000000000000000654e-05,-6.499999999999999702e-04,1.600000000000000131e-04,1.000000000000000048e-04,-1.000000000000000082e-05,5.000000000000000000e+00,9.000000000000000000e+00
2.181100000000000000e+04,5.000000000000000240e-05,4.000000000000000327e-05,8.000000000000000654e-05,8.000000000000000654e-05,-6.499999999999999702e-04,1.600000000000000131e-04,1.000000000000000048e-04,-1.000000000000000082e-05,5.000000000000000000e+00,9.000000000000000000e+00
2.181200000000000000e+04,5.000000000000000240e-05,4.000000000000000327e-05,8.000000000000000654e-05,8.000000000000000654e-05,-6.499999999999999702e-04,1.600000000000000131e-04,1.000000000000000048e-04,-1.000000000000000082e-05,5.000000000000000000e+00,9.000000000000000000e+00
2.181300000000000000e+04,5.000000000000000240e-05,4.000000000000000327e-05,8.000000000000000654e-05,8.000000000000000654e-05,-6.499999999999999702e-04,1.600000000000000131e-04,1.000000000000000048e-04,-1.000000000000000082e-05,5.000000000000000000e+00,9.000000000000000000e+00
2.181400000000000000e+04,5.000000000000000240e-05,4.000000000000000327e-05,8.000000000000000654e-05,8.000000000000000654e-05,-6.499999999999999702e-04,1.600000000000000131e-04,1.000000000000000048e-04,-1.000000000000000082e-05,5.000000000000000000e+00,9.000000000000000000e+00
2.181500000000000000e+04,5.000000000000000240e-05,4.000000000000000327e-05,8.000000000000000654e-05,8.000000000000000654e-05,-6.499999999999999702e-04,1.600000000000000131e-04,1.000000000000000048e-04,-1.000000000000000082e-05,5.000000000000000000e+00,9.000000000000000000e+00
2.181600000000000000e+04,5.000000000000000240e-05,4.000000000000000327e-05,8.000000000000000654e-05,8.000000000000000654e-05,-6.499999999999999702e-04,1.600000000000000131e-04,1.000000000000000048e-04,-1.000000000000000082e-05,5.000000000000000000e+00,9.000000000000000000e+00
2.181700000000000000e+04,5.000000000000000240e-05,4.000000000000000327e-05,8.000000000000000654e-05,8.000000000000000654e-05,-6.499999999999999702e-04,1.600000000000000131e-04,1.000000000000000048e-04,-1.000000000000000082e-05,5.000000000000000000e+00,9.000000000000000000e+00
2.181800000000000000e+04,5.000000000000000240e-05,4.000000000000000327e-05,8.000000000000000654e-05,8.000000000000000654e-05,-6.499999999999999702e-04,1.600000000000000131e-04,1.000000000000000048e-04,-1.000000000000000082e-05,5.000000000000000000e+00,9.000000000000000000e+00
2.181900000000000000e+04,5.000000000000000240e-05,4.000000000000000327e-05,8.000000000000000654e-05,8.000000000000000654e-05,-6.499999999999999702e-04,1.600000000000000131e-04,1.000000000000000048e-04,-1.000000000000000082e-05,5.000000000000000000e+00,9.000000000000000000e+00
2.182000000000000000e+04,5.000000000000000240e-05,4.000000000000000327e-05,8.000000000000000654e-05,8.000000000000000654e-05,-6.499999999999999702e-04,1.600000000000000131e-04,1.000000000000000048e-04,-1.000000000000000082e-05,5.000000000000000000e+00,9.000000000000000000e+00
2.182100000000000000e+04,5.000000000000000240e-05,4.000000000000000327e-05,8.000000000000000654e-05,8.000000000000000654e-05,-6.499999999999999702e-04,1.600000000000000131e-04,1.000000000000000048e-04,-1.000000000000000082e-05,5.000000000000000000e+00,9.000000000000000000e+00
2.182200000000000000e+04,5.000000000000000240e-05,4.000000000000000327e-05,8.000000000000000654e-05,8.000000000000000654e-05,-6.499999999999999702e-04,1.600000000000000131e-04,1.000000000000000048e-04,-1.000000000000000082e-05,5.000000000000000000e+00,9.000000000000000000e+00
2.182300000000000000e+04,5.000000000000000240e-05,4.000000000000000327e-05,8.000000000000000654e-05,8.000000000000000654e-05,-6.499999999999999702e-04,1.600000000000000131e-04,1.000000000000000048e-04,-1.000000000000000082e-05,5.000000000000000000e+00,9.000000000000000000e+00
2.182500000000000000e+04,5.000000000000000240e-05,4.000000000000000327e-05,8.000000000000000654e-05,8.000000000000000654e-05,-6.499999999999999702e-04,1.600000000000000131e-04,1.000000000000000048e-04,-1.000000000000000082e-05,5.000000000000000000e+00,9.000000000000000000e+00
2.182600000000000000e+04,5.000000000000000240e-05,4.000000000000000327e-05,8.000000000000000654e-05,8.000000000000000654e-05,-6.499999999999999702e-04,1.600000000000000131e-04,1.000000000000000048e-04,-1.000000000000000082e-05,5.000000000000000000e+00,9.000000000000000000e+00
2.182700000000000000e+04,5.000000000000000240e-05,4.000000000000000327e-05,8.000000000000000654e-05,8.000000000000000654e-05,-6.499999999999999702e-04,1.600000000000000131e-04,1.000000000000000048e-04,-1.000000000000000082e-05,5.000000000000000000e+00,9.000000000000000000e+00
2.182800000000000000e+04,5.000000000000000240e-05,4.000000000000000327e-05,8.000000000000000654e-05,8.000000000000000654e-05,-6.499999999999999702e-04,1.600000000000000131e-04,1.000000000000000048e-04,-1.000000000000000082e-05,5.000000000000000000e+00,9.000000000000000000e+00
2.182900000000000000e+04,5.000000000000000240e-05,4.000000000000000327e-05,8.000000000000000654e-05,8.000000000000000654e-05,-6.499999999999999702e-04,1.600000000000000131e-04,1.000000000000000048e-04,-1.000000000000000082e-05,5.000000000000000000e+00,9.000000000000000000e+00
2.183000000000000000e+04,5.000000000000000240e-05,4.000000000000000327e-05,8.000000000000000654e-05,8.000000000000000654e-05,-6.499999999999999702e-04,1.600000000000000131e-04,1.000000000000000048e-04,-1.000000000000000082e-05,5.000000000000000000e+00,9.000000000000000000e+00
2.183100000000000000e+04,5.000000000000000240e-05,4.000000000000000327e-05,8.000000000000000654e-05,8.000000000000000654e-05,-6.499999999999999702e-04,1.600000000000000131e-04,1.000000000000000048e-04,-1.000000000000000082e-05,5.000000000000000000e+00,9.000000000000000000e+00
2.183200000000000000e+04,0.000000000000000000e+00,2.000000000000000096e-04,2.000000000000000164e-05,-8.000000000000000654e-05,-7.399999999999999894e-04,2.000000000000000164e-05,1.000000000000000082e-05,2.999999999999999737e-05,5.000000000000000000e+00,9.000000000000000000e+00
2.183300000000000000e+04,-1.899999999999999834e-04,-1.499999999999999869e-04,-1.800000000000000113e-04,-3.600000000000000227e-04,-5.999999999999999474e-05,-4.000000000000000327e-05,-5.000000000000000240e-05,-2.000000000000000164e-05,5.000000000000000000e+00,9.000000000000000000e+00
2.183400000000000000e+04,-1.899999999999999834e-04,-1.499999999999999869e-04,-1.800000000000000113e-04,-3.600000000000000227e-04,-5.999999999999999474e-05,-4.000000000000000327e-05,-5.000000000000000240e-05,-2.000000000000000164e-05,5.000000000000000000e+00,9.000000000000000000e+00
2.183500000000000000e+04,-1.899999999999999834e-04,-1.499999999999999869e-04,-1.800000000000000113e-04,-3.600000000000000227e-04,-5.999999999999999474e-05,-4.000000000000000327e-05,-5.000000000000000240e-05,-2.000000000000000164e-05,5.000000000000000000e+00,9.000000000000000000e+00
2.183600000000000000e+04,-1.899999999999999834e-04,-1.499999999999999869e-04,-1.800000000000000113e-04,-3.600000000000000227e-04,-5.999999999999999474e-05,-4.000000000000000327e-05,-5.000000000000000240e-05,-2.000000000000000164e-05,5.000000000000000000e+00,9.000000000000000000e+00
2.183900000000000000e+04,1.199999999999999895e-04,1.499999999999999869e-04,-1.000000000000000082e-05,5.999999999999999474e-05,-2.000000000000000096e-04,-1.899999999999999834e-04,-6.999999999999999387e-05,2.999999999999999737e-05,5.000000000000000000e+00,9.000000000000000000e+00
2.184100000000000000e+04,1.199999999999999895e-04,1.499999999999999869e-04,-1.000000000000000082e-05,5.999999999999999474e-05,-2.000000000000000096e-04,-1.899999999999999834e-04,-6.999999999999999387e-05,2.999999999999999737e-05,5.000000000000000000e+00,9.000000000000000000e+00
2.184200000000000000e+04,1.199999999999999895e-04,1.499999999999999869e-04,-1.000000000000000082e-05,5.999999999999999474e-05,-2.000000000000000096e-04,-1.899999999999999834e-04,-6.999999999999999387e-05,2.999999999999999737e-05,5.000000000000000000e+00,9.000000000000000000e+00
2.184300000000000000e+04,1.199999999999999895e-04,1.499999999999999869e-04,-1.000000000000000082e-05,5.999999999999999474e-05,-2.000000000000000096e-04,-1.899999999999999834e-04,-6.999999999999999387e-05,2.999999999999999737e-05,5.000000000000000000e+00,9.000000000000000000e+00
2.184400000000000000e+04,1.199999999999999895e-04,1.499999999999999869e-04,-1.000000000000000082e-05,5.999999999999999474e-05,-2.000000000000000096e-04,-1.899999999999999834e-04,-6.999999999999999387e-05,2.999999999999999737e-05,5.000000000000000000e+00,9.000000000000000000e+00
2.184500000000000000e+04,3.200000000000000262e-04,9.000000000000000567e-05,-2.000000000000000164e-05,-3.299999999999999982e-04,-6.700000000000000226e-04,-2.000000000000000164e-05,0.000000000000000000e+00,6.999999999999999387e-05,5.000000000000000000e+00,9.000000000000000000e+00
2.184600000000000000e+04,3.200000000000000262e-04,9.000000000000000567e-05,-2.000000000000000164e-05,-3.299999999999999982e-04,-6.700000000000000226e-04,-2.000000000000000164e-05,0.000000000000000000e+00,6.999999999999999387e-05,5.000000000000000000e+00,9.000000000000000000e+00
2.184700000000000000e+04,3.200000000000000262e-04,9.000000000000000567e-05,-2.000000000000000164e-05,-3.299999999999999982e-04,-6.700000000000000226e-04,-2.000000000000000164e-05,0.000000000000000000e+00,6.999999999999999387e-05,5.000000000000000000e+00,9.000000000000000000e+00
2.184800000000000000e+04,3.200000000000000262e-04,9.000000000000000567e-05,-2.000000000000000164e-05,-3.299999999999999982e-04,-6.700000000000000226e-04,-2.000000000000000164e-05,0.000000000000000000e+00,6.999999999999999387e-05,5.000000000000000000e+00,9.000000000000000000e+00
2.184900000000000000e+04,3.200000000000000262e-04,9.000000000000000567e-05,-2.000000000000000164e-05,-3.299999999999999982e-04,-6.700000000000000226e-04,-2.000000000000000164e-05,0.000000000000000000e+00,6.999999999999999387e-05,5.000000000000000000e+00,9.000000000000000000e+00
2.185000000000000000e+04,3.200000000000000262e-04,9.000000000000000567e-05,-2.000000000000000164e-05,-3.299999999999999982e-04,-6.700000000000000226e-04,-2.000000000000000164e-05,0.000000000000000000e+00,6.999999999999999387e-05,5.000000000000000000e+00,9.000000000000000000e+00
2.185100000000000000e+04,3.200000000000000262e-04,9.000000000000000567e-05,-2.000000000000000164e-05,-3.299999999999999982e-04,-6.700000000000000226e-04,-2.000000000000000164e-05,0.000000000000000000e+00,6.999999999999999387e-05,5.000000000000000000e+00,9.000000000000000000e+00
2.185200000000000000e+04,3.200000000000000262e-04,9.000000000000000567e-05,-2.000000000000000164e-05,-3.299999999999999982e-04,-6.700000000000000226e-04,-2.000000000000000164e-05,0.000000000000000000e+00,6.999999999999999387e-05,5.000000000000000000e+00,9.000000000000000000e+00
2.185300000000000000e+04,3.200000000000000262e-04,9.000000000000000567e-05,-2.000000000000000164e-05,-3.299999999999999982e-04,-6.700000000000000226e-04,-2.000000000000000164e-05,0.000000000000000000e+00,6.999999999999999387e-05,5.000000000000000000e+00,9.000000000000000000e+00
2.185400000000000000e+04,3.200000000000000262e-04,9.000000000000000567e-05,-2.000000000000000164e-05,-3.299999999999999982e-04,-6.700000000000000226e-04,-2.000000000000000164e-05,0.000000000000000000e+00,6.999999999999999387e-05,5.000000000000000000e+00,9.000000000000000000e+00
2.185500000000000000e+04,3.200000000000000262e-04,9.000000000000000567e-05,-2.000000000000000164e-05,-3.299999999999999982e-04,-6.700000000000000226e-04,-2.000000000000000164e-05,0.000000000000000000e+00,6.999999999999999387e-05,5.000000000000000000e+00,9.000000000000000000e+00
2.185600000000000000e+04,3.200000000000000262e-04,9.000000000000000567e-05,-2.000000000000000164e-05,-3.299999999999999982e-04,-6.700000000000000226e-04,-2.000000000000000164e-05,0.000000000000000000e+00,6.999999999999999387e-05,5.000000000000000000e+00,9.000000000000000000e+00
2.185700000000000000e+04,3.200000000000000262e-04,9.000000000000000567e-05,-2.000000000000000164e-05,-3.299999999999999982e-04,-6.700000000000000226e-04,-2.000000000000000164e-05,0.000000000000000000e+00,6.999999999999999387e-05,5.000000000000000000e+00,9.000000000000000000e+00
2.185800000000000000e+04,3.200000000000000262e-04,9.000000000000000567e-05,-2.000000000000000164e-05,-3.299999999999999982e-04,-6.700000000000000226e-04,-2.000000000000000164e-05,0.000000000000000000e+00,6.999999999999999387e-05,5.000000000000000000e+00,9.000000000000000000e+00
2.185900000000000000e+04,3.200000000000000262e-04,9.000000000000000567e-05,-2.000000000000000164e-05,-3.299999999999999982e-04,-6.700000000000000226e-04,-2.000000000000000164e-05,0.000000000000000000e+00,6.999999999999999387e-05,5.000000000000000000e+00,9.000000000000000000e+00
2.186000000000000000e+04,3.200000000000000262e-04,9.000000000000000567e-05,-2.000000000000000164e-05,-3.299999999999999982e-04,-6.700000000000000226e-04,-2.000000000000000164e-05,0.000000000000000000e+00,6.999999999999999387e-05,5.000000000000000000e+00,9.000000000000000000e+00
2.186100000000000000e+04,-1.300000000000000157e-04,-1.300000000000000157e-04,-4.000000000000000327e-05,-2.200000000000000078e-04,-9.799999999999999684e-04,-1.300000000000000157e-04,-5.000000000000000240e-05,-5.999999999999999474e-05,5.000000000000000000e+00,9.000000000000000000e+00
2.186200000000000000e+04,-1.300000000000000157e-04,-1.300000000000000157e-04,-4.000000000000000327e-05,-2.200000000000000078e-04,-9.799999999999999684e-04,-1.300000000000000157e-04,-5.000000000000000240e-05,-5.999999999999999474e-05,5.000000000000000000e+00,9.000000000000000000e+00
2.186300000000000000e+04,-1.300000000000000157e-04,-1.300000000000000157e-04,-4.000000000000000327e-05,-2.200000000000000078e-04,-9.799999999999999684e-04,-1.300000000000000157e-04,-5.000000000000000240e-05,-5.999999999999999474e-05,5.000000000000000000e+00,9.000000000000000000e+00
2.186400000000000000e+04,-1.300000000000000157e-04,-1.300000000000000157e-04,-4.000000000000000327e-05,-2.200000000000000078e-04,-9.799999999999999684e-04,-1.300000000000000157e-04,-5.000000000000000240e-05,-5.999999999999999474e-05,5.000000000000000000e+00,9.000000000000000000e+00
2.186500000000000000e+04,-1.300000000000000157e-04,-1.300000000000000157e-04,-4.000000000000000327e-05,-2.200000000000000078e-04,-9.799999999999999684e-04,-1.300000000000000157e-04,-5.000000000000000240e-05,-5.999999999999999474e-05,5.000000000000000000e+00,9.000000000000000000e+00
2.186600000000000000e+04,-1.300000000000000157e-04,-1.300000000000000157e-04,-4.000000000000000327e-05,-2.200000000000000078e-04,-9.799999999999999684e-04,-1.300000000000000157e-04,-5.000000000000000240e-05,-5.999999999999999474e-05,5.000000000000000000e+00,9.000000000000000000e+00
2.186700000000000000e+04,-1.300000000000000157e-04,-1.300000000000000157e-04,-4.000000000000000327e-05,-2.200000000000000078e-04,-9.799999999999999684e-04,-1.300000000000000157e-04,-5.000000000000000240e-05,-5.999999999999999474e-05,5.000000000000000000e+00,9.000000000000000000e+00
2.186800000000000000e+04,-1.300000000000000157e-04,-1.300000000000000157e-04,-4.000000000000000327e-05,-2.200000000000000078e-04,-9.799999999999999684e-04,-1.300000000000000157e-04,-5.000000000000000240e-05,-5.999999999999999474e-05,5.000000000000000000e+00,9.000000000000000000e+00
2.186900000000000000e+04,-4.400000000000000157e-04,1.000000000000000082e-05,2.999999999999999737e-05,1.100000000000000039e-04,-6.999999999999999387e-05,-6.999999999999999387e-05,-2.000000000000000164e-05,-1.000000000000000082e-05,5.000000000000000000e+00,9.000000000000000000e+00
2.187100000000000000e+04,-4.400000000000000157e-04,1.000000000000000082e-05,2.999999999999999737e-05,1.100000000000000039e-04,-6.999999999999999387e-05,-6.999999999999999387e-05,-2.000000000000000164e-05,-1.000000000000000082e-05,5.000000000000000000e+00,9.000000000000000000e+00
2.187200000000000000e+04,-4.400000000000000157e-04,1.000000000000000082e-05,2.999999999999999737e-05,1.100000000000000039e-04,-6.999999999999999387e-05,-6.999999999999999387e-05,-2.000000000000000164e-05,-1.000000000000000082e-05,5.000000000000000000e+00,9.000000000000000000e+00
2.187300000000000000e+04,-4.400000000000000157e-04,1.000000000000000082e-05,2.999999999999999737e-05,1.100000000000000039e-04,-6.999999999999999387e-05,-6.999999999999999387e-05,-2.000000000000000164e-05,-1.000000000000000082e-05,5.000000000000000000e+00,9.000000000000000000e+00
2.187400000000000000e+04,-4.400000000000000157e-04,1.000000000000000082e-05,2.999999999999999737e-05,1.100000000000000039e-04,-6.999999999999999387e-05,-6.999999999999999387e-05,-2.000000000000000164e-05,-1.000000000000000082e-05,5.000000000000000000e+00,9.000000000000000000e+00
2.187500000000000000e+04,-4.400000000000000157e-04,1.000000000000000082e-05,2.999999999999999737e-05,1.100000000000000039e-04,-6.999999999999999387e-05,-6.999999999999999387e-05,-2.000000000000000164e-05,-1.000000000000000082e-05,5.000000000000000000e+00,9.000000000000000000e+00
2.187600000000000000e+04,-4.400000000000000157e-04,1.000000000000000082e-05,2.999999999999999737e-05,1.100000000000000039e-04,-6.999999999999999387e-05,-6.999999999999999387e-05,-2.000000000000000164e-05,-1.000000000000000082e-05,5.000000000000000000e+00,9.000000000000000000e+00
2.187700000000000000e+04,-4.400000000000000157e-04,1.000000000000000082e-05,2.999999999999999737e-05,1.100000000000000039e-04,-6.999999999999999387e-05,-6.999999999999999387e-05,-2.000000000000000164e-05,-1.000000000000000082e-05,5.000000000000000000e+00,9.000000000000000000e+00
2.187800000000000000e+04,-4.400000000000000157e-04,1.000000000000000082e-05,2.999999999999999737e-05,1.100000000000000039e-04,-6.999999999999999387e-05,-6.999999999999999387e-05,-2.000000000000000164e-05,-1.000000000000000082e-05,5.000000000000000000e+00,9.000000000000000000e+00
2.187900000000000000e+04,-4.400000000000000157e-04,1.000000000000000082e-05,2.999999999999999737e-05,1.100000000000000039e-04,-6.999999999999999387e-05,-6.999999999999999387e-05,-2.000000000000000164e-05,-1.000000000000000082e-05,5.000000000000000000e+00,9.000000000000000000e+00
2.188000000000000000e+04,-4.400000000000000157e-04,1.000000000000000082e-05,2.999999999999999737e-05,1.100000000000000039e-04,-6.999999999999999387e-05,-6.999999999999999387e-05,-2.000000000000000164e-05,-1.000000000000000082e-05,5.000000000000000000e+00,9.000000000000000000e+00
2.188100000000000000e+04,-4.400000000000000157e-04,1.000000000000000082e-05,2.999999999999999737e-05,1.100000000000000039e-04,-6.999999999999999387e-05,-6.999999999999999387e-05,-2.000000000000000164e-05,-1.000000000000000082e-05,5.000000000000000000e+00,9.000000000000000000e+00
2.188200000000000000e+04,-4.400000000000000157e-04,1.000000000000000082e-05,2.999999999999999737e-05,1.100000000000000039e-04,-6.999999999999999387e-05,-6.999999999999999387e-05,-2.000000000000000164e-05,-1.000000000000000082e-05,5.000000000000000000e+00,9.000000000000000000e+00
2.188300000000000000e+04,-4.400000000000000157e-04,1.000000000000000082e-05,2.999999999999999737e-05,1.100000000000000039e-04,-6.999999999999999387e-05,-6.999999999999999387e-05,-2.000000000000000164e-05,-1.000000000000000082e-05,5.000000000000000000e+00,9.000000000000000000e+00
2.188400000000000000e+04,-4.899999999999999842e-04,-6.099999999999999737e-04,2.000000000000000164e-05,-8.000000000000000654e-05,-6.599999999999999964e-04,-2.500000000000000052e-04,-9.000000000000000567e-05,-1.000000000000000082e-05,5.000000000000000000e+00,9.000000000000000000e+00
2.188500000000000000e+04,-4.299999999999999894e-04,-2.100000000000000087e-04,-1.600000000000000131e-04,-3.200000000000000262e-04,-6.599999999999999964e-04,-2.100000000000000087e-04,-1.000000000000000082e-05,-5.999999999999999474e-05,5.000000000000000000e+00,9.000000000000000000e+00
2.188600000000000000e+04,2.700000000000000035e-04,1.100000000000000039e-04,9.000000000000000567e-05,5.000000000000000240e-05,1.199999999999999895e-04,2.000000000000000164e-05,1.000000000000000082e-05,0.000000000000000000e+00,5.000000000000000000e+00,9.000000000000000000e+00
2.188800000000000000e+04,2.700000000000000035e-04,1.100000000000000039e-04,9.000000000000000567e-05,5.000000000000000240e-05,1.199999999999999895e-04,2.000000000000000164e-05,1.000000000000000082e-05,0.000000000000000000e+00,5.000000000000000000e+00,9.000000000000000000e+00
2.188900000000000000e+04,2.700000000000000035e-04,1.100000000000000039e-04,9.000000000000000567e-05,5.000000000000000240e-05,1.199999999999999895e-04,2.000000000000000164e-05,1.000000000000000082e-05,0.000000000000000000e+00,5.000000000000000000e+00,9.000000000000000000e+00
2.189000000000000000e+04,2.700000000000000035e-04,1.100000000000000039e-04,9.000000000000000567e-05,5.000000000000000240e-05,1.199999999999999895e-04,2.000000000000000164e-05,1.000000000000000082e-05,0.000000000000000000e+00,5.000000000000000000e+00,9.000000000000000000e+00
2.189100000000000000e+04,2.700000000000000035e-04,1.100000000000000039e-04,9.000000000000000567e-05,5.000000000000000240e-05,1.199999999999999895e-04,2.000000000000000164e-05,1.000000000000000082e-05,0.000000000000000000e+00,5.000000000000000000e+00,9.000000000000000000e+00
2.189200000000000000e+04,2.700000000000000035e-04,1.100000000000000039e-04,9.000000000000000567e-05,5.000000000000000240e-05,1.199999999999999895e-04,2.000000000000000164e-05,1.000000000000000082e-05,0.000000000000000000e+00,5.000000000000000000e+00,9.000000000000000000e+00
2.189300000000000000e+04,2.700000000000000035e-04,1.100000000000000039e-04,9.000000000000000567e-05,5.000000000000000240e-05,1.199999999999999895e-04,2.000000000000000164e-05,1.000000000000000082e-05,0.000000000000000000e+00,5.000000000000000000e+00,9.000000000000000000e+00
2.189400000000000000e+04,2.700000000000000035e-04,1.100000000000000039e-04,9.000000000000000567e-05,5.000000000000000240e-05,1.199999999999999895e-04,2.000000000000000164e-05,1.000000000000000082e-05,0.000000000000000000e+00,5.000000000000000000e+00,9.000000000000000000e+00
2.189500000000000000e+04,2.700000000000000035e-04,1.100000000000000039e-04,9.000000000000000567e-05,5.000000000000000240e-05,1.199999999999999895e-04,2.000000000000000164e-05,1.000000000000000082e-05,0.000000000000000000e+00,5.000000000000000000e+00,9.000000000000000000e+00
2.189600000000000000e+04,2.700000000000000035e-04,1.100000000000000039e-04,9.000000000000000567e-05,5.000000000000000240e-05,1.199999999999999895e-04,2.000000000000000164e-05,1.000000000000000082e-05,0.000000000000000000e+00,5.000000000000000000e+00,9.000000000000000000e+00
2.189700000000000000e+04,2.700000000000000035e-04,1.100000000000000039e-04,9.000000000000000567e-05,5.000000000000000240e-05,1.199999999999999895e-04,2.000000000000000164e-05,1.000000000000000082e-05,0.000000000000000000e+00,5.000000000000000000e+00,9.000000000000000000e+00
2.189800000000000000e+04,2.700000000000000035e-04,1.100000000000000039e-04,9.000000000000000567e-05,5.000000000000000240e-05,1.199999999999999895e-04,2.000000000000000164e-05,1.000000000000000082e-05,0.000000000000000000e+00,5.000000000000000000e+00,9.000000000000000000e+00
2.189900000000000000e+04,8.000000000000000654e-05,1.699999999999999851e-04,-5.000000000000000240e-05,-1.000000000000000082e-05,-5.999999999999999474e-05,-1.199999999999999895e-04,1.000000000000000082e-05,1.000000000000000082e-05,5.000000000000000000e+00,9.000000000000000000e+00
2.190000000000000000e+04,8.000000000000000654e-05,1.699999999999999851e-04,-5.000000000000000240e-05,-1.000000000000000082e-05,-5.999999999999999474e-05,-1.199999999999999895e-04,1.000000000000000082e-05,1.000000000000000082e-05,5.000000000000000000e+00,9.000000000000000000e+00
2.190100000000000000e+04,8.000000000000000654e-05,1.699999999999999851e-04,-5.000000000000000240e-05,-1.000000000000000082e-05,-5.999999999999999474e-05,-1.199999999999999895e-04,1.000000000000000082e-05,1.000000000000000082e-05,5.000000000000000000e+00,9.000000000000000000e+00
2.190200000000000000e+04,8.000000000000000654e-05,1.699999999999999851e-04,-5.000000000000000240e-05,-1.000000000000000082e-05,-5.999999999999999474e-05,-1.199999999999999895e-04,1.000000000000000082e-05,1.000000000000000082e-05,5.000000000000000000e+00,9.000000000000000000e+00
2.190300000000000000e+04,8.000000000000000654e-05,1.699999999999999851e-04,-5.000000000000000240e-05,-1.000000000000000082e-05,-5.999999999999999474e-05,-1.199999999999999895e-04,1.000000000000000082e-05,1.000000000000000082e-05,5.000000000000000000e+00,9.000000000000000000e+00
2.190400000000000000e+04,8.000000000000000654e-05,1.699999999999999851e-04,-5.000000000000000240e-05,-1.000000000000000082e-05,-5.999999999999999474e-05,-1.199999999999999895e-04,1.000000000000000082e-05,1.000000000000000082e-05,5.000000000000000000e+00,9.000000000000000000e+00
2.190500000000000000e+04,8.000000000000000654e-05,1.699999999999999851e-04,-5.000000000000000240e-05,-1.000000000000000082e-05,-5.999999999999999474e-05,-1.199999999999999895e-04,1.000000000000000082e-05,1.000000000000000082e-05,5.000000000000000000e+00,9.000000000000000000e+00
2.190600000000000000e+04,8.000000000000000654e-05,1.699999999999999851e-04,-5.000000000000000240e-05,-1.000000000000000082e-05,-5.999999999999999474e-05,-1.199999999999999895e-04,1.000000000000000082e-05,1.000000000000000082e-05,5.000000000000000000e+00,9.000000000000000000e+00
2.190700000000000000e+04,8.000000000000000654e-05,1.699999999999999851e-04,-5.000000000000000240e-05,-1.000000000000000082e-05,-5.999999999999999474e-05,-1.199999999999999895e-04,1.000000000000000082e-05,1.000000000000000082e-05,5.000000000000000000e+00,9.000000000000000000e+00
2.190800000000000000e+04,8.000000000000000654e-05,1.699999999999999851e-04,-5.000000000000000240e-05,-1.000000000000000082e-05,-5.999999999999999474e-05,-1.199999999999999895e-04,1.000000000000000082e-05,1.000000000000000082e-05,5.000000000000000000e+00,9.000000000000000000e+00
2.190900000000000000e+04,8.000000000000000654e-05,1.699999999999999851e-04,-5.000000000000000240e-05,-1.000000000000000082e-05,-5.999999999999999474e-05,-1.199999999999999895e-04,1.000000000000000082e-05,1.000000000000000082e-05,5.000000000000000000e+00,9.000000000000000000e+00
2.191000000000000000e+04,8.000000000000000654e-05,1.699999999999999851e-04,-5.000000000000000240e-05,-1.000000000000000082e-05,-5.999999999999999474e-05,-1.199999999999999895e-04,1.000000000000000082e-05,1.000000000000000082e-05,5.000000000000000000e+00,9.000000000000000000e+00
2.191100000000000000e+04,8.000000000000000654e-05,1.699999999999999851e-04,-5.000000000000000240e-05,-1.000000000000000082e-05,-5.999999999999999474e-05,-1.199999999999999895e-04,1.000000000000000082e-05,1.000000000000000082e-05,5.000000000000000000e+00,9.000000000000000000e+00
2.191200000000000000e+04,8.000000000000000654e-05,1.699999999999999851e-04,-5.000000000000000240e-05,-1.000000000000000082e-05,-5.999999999999999474e-05,-1.199999999999999895e-04,1.000000000000000082e-05,1.000000000000000082e-05,5.000000000000000000e+00,9.000000000000000000e+00
2.191300000000000000e+04,8.000000000000000654e-05,1.699999999999999851e-04,-5.000000000000000240e-05,-1.000000000000000082e-05,-5.999999999999999474e-05,-1.199999999999999895e-04,1.000000000000000082e-05,1.000000000000000082e-05,5.000000000000000000e+00,9.000000000000000000e+00
2.191400000000000000e+04,-5.000000000000000240e-05,-1.499999999999999869e-04,1.000000000000000082e-05,3.899999999999999929e-04,3.299999999999999982e-04,3.899999999999999929e-04,2.999999999999999737e-05,0.000000000000000000e+00,5.000000000000000000e+00,9.000000000000000000e+00
2.191500000000000000e+04,-5.000000000000000240e-05,-1.499999999999999869e-04,1.000000000000000082e-05,3.899999999999999929e-04,3.299999999999999982e-04,3.899999999999999929e-04,2.999999999999999737e-05,0.000000000000000000e+00,5.000000000000000000e+00,9.000000000000000000e+00
2.191600000000000000e+04,-5.000000000000000240e-05,-1.499999999999999869e-04,1.000000000000000082e-05,3.899999999999999929e-04,3.299999999999999982e-04,3.899999999999999929e-04,2.999999999999999737e-05,0.000000000000000000e+00,5.000000000000000000e+00,9.000000000000000000e+00
2.191800000000000000e+04,-5.000000000000000240e-05,-1.499999999999999869e-04,1.000000000000000082e-05,3.899999999999999929e-04,3.299999999999999982e-04,3.899999999999999929e-04,2.999999999999999737e-05,0.000000000000000000e+00,5.000000000000000000e+00,9.000000000000000000e+00
2.191900000000000000e+04,-5.000000000000000240e-05,-1.499999999999999869e-04,1.000000000000000082e-05,3.899999999999999929e-04,3.299999999999999982e-04,3.899999999999999929e-04,2.999999999999999737e-05,0.000000000000000000e+00,5.000000000000000000e+00,9.000000000000000000e+00
2.192000000000000000e+04,-5.000000000000000240e-05,-1.499999999999999869e-04,1.000000000000000082e-05,3.899999999999999929e-04,3.299999999999999982e-04,3.899999999999999929e-04,2.999999999999999737e-05,0.000000000000000000e+00,5.000000000000000000e+00,9.000000000000000000e+00
2.192100000000000000e+04,-5.000000000000000240e-05,-1.499999999999999869e-04,1.000000000000000082e-05,3.899999999999999929e-04,3.299999999999999982e-04,3.899999999999999929e-04,2.999999999999999737e-05,0.000000000000000000e+00,5.000000000000000000e+00,9.000000000000000000e+00
2.192200000000000000e+04,-2.999999999999999737e-05,1.000000000000000082e-05,-9.000000000000000567e-05,1.699999999999999851e-04,5.900000000000000296e-04,1.199999999999999895e-04,-2.000000000000000164e-05,-1.000000000000000082e-05,5.000000000000000000e+00,9.000000000000000000e+00
2.192300000000000000e+04,-2.000000000000000096e-04,-1.100000000000000039e-04,-4.000000000000000327e-05,-1.499999999999999869e-04,-1.899999999999999834e-04,-8.000000000000000654e-05,-6.999999999999999387e-05,-5.999999999999999474e-05,5.000000000000000000e+00,9.000000000000000000e+00
2.192400000000000000e+04,-2.000000000000000096e-04,-1.100000000000000039e-04,-4.000000000000000327e-05,-1.499999999999999869e-04,-1.899999999999999834e-04,-8.000000000000000654e-05,-6.999999999999999387e-05,-5.999999999999999474e-05,5.000000000000000000e+00,9.000000000000000000e+00
2.192500000000000000e+04,-2.000000000000000096e-04,-1.100000000000000039e-04,-4.000000000000000327e-05,-1.499999999999999869e-04,-1.899999999999999834e-04,-8.000000000000000654e-05,-6.999999999999999387e-05,-5.999999999999999474e-05,5.000000000000000000e+00,9.000000000000000000e+00
2.192600000000000000e+04,-2.000000000000000096e-04,-1.100000000000000039e-04,-4.000000000000000327e-05,-1.499999999999999869e-04,-1.899999999999999834e-04,-8.000000000000000654e-05,-6.999999999999999387e-05,-5.999999999999999474e-05,5.000000000000000000e+00,9.000000000000000000e+00
2.192700000000000000e+04,-2.000000000000000096e-04,-1.100000000000000039e-04,-4.000000000000000327e-05,-1.499999999999999869e-04,-1.899999999999999834e-04,-8.000000000000000654e-05,-6.999999999999999387e-05,-5.999999999999999474e-05,5.000000000000000000e+00,9.000000000000000000e+00
2.192800000000000000e+04,-2.000000000000000096e-04,-1.100000000000000039e-04,-4.000000000000000327e-05,-1.499999999999999869e-04,-1.899999999999999834e-04,-8.000000000000000654e-05,-6.999999999999999387e-05,-5.999999999999999474e-05,5.000000000000000000e+00,9.000000000000000000e+00
2.192900000000000000e+04,-2.000000000000000096e-04,-1.100000000000000039e-04,-4.000000000000000327e-05,-1.499999999999999869e-04,-1.899999999999999834e-04,-8.000000000000000654e-05,-6.999999999999999387e-05,-5.999999999999999474e-05,5.000000000000000000e+00,9.000000000000000000e+00
2.193000000000000000e+04,-2.000000000000000096e-04,-1.100000000000000039e-04,-4.000000000000000327e-05,-1.499999999999999869e-04,-1.899999999999999834e-04,-8.000000000000000654e-05,-6.999999999999999387e-05,-5.999999999999999474e-05,5.000000000000000000e+00,9.000000000000000000e+00
2.193100000000000000e+04,-2.000000000000000096e-04,-1.100000000000000039e-04,-4.000000000000000327e-05,-1.499999999999999869e-04,-1.899999999999999834e-04,-8.000000000000000654e-05,-6.999999999999999387e-05,-5.999999999999999474e-05,5.000000000000000000e+00,9.000000000000000000e+00
2.193200000000000000e+04,-2.000000000000000096e-04,-1.100000000000000039e-04,-4.000000000000000327e-05,-1.499999999999999869e-04,-1.899999999999999834e-04,-8.000000000000000654e-05,-6.999999999999999387e-05,-5.999999999999999474e-05,5.000000000000000000e+00,9.000000000000000000e+00
2.193300000000000000e+04,-2.000000000000000096e-04,-1.100000000000000039e-04,-4.000000000000000327e-05,-1.499999999999999869e-04,-1.899999999999999834e-04,-8.000000000000000654e-05,-6.999999999999999387e-05,-5.999999999999999474e-05,5.000000000000000000e+00,9.000000000000000000e+00
2.193400000000000000e+04,-2.000000000000000096e-04,-1.100000000000000039e-04,-4.000000000000000327e-05,-1.499999999999999869e-04,-1.899999999999999834e-04,-8.000000000000000654e-05,-6.999999999999999387e-05,-5.999999999999999474e-05,5.000000000000000000e+00,9.000000000000000000e+00
2.193500000000000000e+04,-2.000000000000000096e-04,-1.100000000000000039e-04,-4.000000000000000327e-05,-1.499999999999999869e-04,-1.899999999999999834e-04,-8.000000000000000654e-05,-6.999999999999999387e-05,-5.999999999999999474e-05,5.000000000000000000e+00,9.000000000000000000e+00
2.193600000000000000e+04,-2.000000000000000096e-04,-1.100000000000000039e-04,-4.000000000000000327e-05,-1.499999999999999869e-04,-1.899999999999999834e-04,-8.000000000000000654e-05,-6.999999999999999387e-05,-5.999999999999999474e-05,5.000000000000000000e+00,9.000000000000000000e+00
2.193800000000000000e+04,-2.000000000000000096e-04,-1.100000000000000039e-04,-4.000000000000000327e-05,-1.499999999999999869e-04,-1.899999999999999834e-04,-8.000000000000000654e-05,-6.999999999999999387e-05,-5.999999999999999474e-05,5.000000000000000000e+00,9.000000000000000000e+00
2.193900000000000000e+04,-2.000000000000000096e-04,-1.100000000000000039e-04,-4.000000000000000327e-05,-1.499999999999999869e-04,-1.899999999999999834e-04,-8.000000000000000654e-05,-6.999999999999999387e-05,-5.999999999999999474e-05,5.000000000000000000e+00,9.000000000000000000e+00
2.194000000000000000e+04,-2.000000000000000096e-04,-1.100000000000000039e-04,-4.000000000000000327e-05,-1.499999999999999869e-04,-1.899999999999999834e-04,-8.000000000000000654e-05,-6.999999999999999387e-05,-5.999999999999999474e-05,5.000000000000000000e+00,9.000000000000000000e+00
2.194100000000000000e+04,-2.000000000000000096e-04,-1.100000000000000039e-04,-4.000000000000000327e-05,-1.499999999999999869e-04,-1.899999999999999834e-04,-8.000000000000000654e-05,-6.999999999999999387e-05,-5.999999999999999474e-05,5.000000000000000000e+00,9.000000000000000000e+00
2.194200000000000000e+04,-2.000000000000000096e-04,-1.100000000000000039e-04,-4.000000000000000327e-05,-1.499999999999999869e-04,-1.899999999999999834e-04,-8.000000000000000654e-05,-6.999999999999999387e-05,-5.999999999999999474e-05,5.000000000000000000e+00,9.000000000000000000e+00
2.194300000000000000e+04,-2.000000000000000096e-04,-1.100000000000000039e-04,-4.000000000000000327e-05,-1.499999999999999869e-04,-1.899999999999999834e-04,-8.000000000000000654e-05,-6.999999999999999387e-05,-5.999999999999999474e-05,5.000000000000000000e+00,9.000000000000000000e+00
2.194400000000000000e+04,-2.000000000000000096e-04,-1.100000000000000039e-04,-4.000000000000000327e-05,-1.499999999999999869e-04,-1.899999999999999834e-04,-8.000000000000000654e-05,-6.999999999999999387e-05,-5.999999999999999474e-05,5.000000000000000000e+00,9.000000000000000000e+00
2.194500000000000000e+04,-2.000000000000000096e-04,-1.100000000000000039e-04,-4.000000000000000327e-05,-1.499999999999999869e-04,-1.899999999999999834e-04,-8.000000000000000654e-05,-6.999999999999999387e-05,-5.999999999999999474e-05,5.000000000000000000e+00,9.000000000000000000e+00
2.194600000000000000e+04,-2.000000000000000096e-04,-1.100000000000000039e-04,-4.000000000000000327e-05,-1.499999999999999869e-04,-1.899999999999999834e-04,-8.000000000000000654e-05,-6.999999999999999387e-05,-5.999999999999999474e-05,5.000000000000000000e+00,9.000000000000000000e+00
2.194700000000000000e+04,-2.000000000000000096e-04,-1.100000000000000039e-04,-4.000000000000000327e-05,-1.499999999999999869e-04,-1.899999999999999834e-04,-8.000000000000000654e-05,-6.999999999999999387e-05,-5.999999999999999474e-05,5.000000000000000000e+00,9.000000000000000000e+00
2.194800000000000000e+04,-2.000000000000000096e-04,-1.100000000000000039e-04,-4.000000000000000327e-05,-1.499999999999999869e-04,-1.899999999999999834e-04,-8.000000000000000654e-05,-6.999999999999999387e-05,-5.999999999999999474e-05,5.000000000000000000e+00,9.000000000000000000e+00
2.194900000000000000e+04,-2.000000000000000096e-04,-1.100000000000000039e-04,-4.000000000000000327e-05,-1.499999999999999869e-04,-1.899999999999999834e-04,-8.000000000000000654e-05,-6.999999999999999387e-05,-5.999999999999999474e-05,5.000000000000000000e+00,9.000000000000000000e+00
2.195000000000000000e+04,-2.000000000000000096e-04,-1.100000000000000039e-04,-4.000000000000000327e-05,-1.499999999999999869e-04,-1.899999999999999834e-04,-8.000000000000000654e-05,-6.999999999999999387e-05,-5.999999999999999474e-05,5.000000000000000000e+00,9.000000000000000000e+00
2.195100000000000000e+04,-2.000000000000000096e-04,-1.100000000000000039e-04,-4.000000000000000327e-05,-1.499999999999999869e-04,-1.899999999999999834e-04,-8.000000000000000654e-05,-6.999999999999999387e-05,-5.999999999999999474e-05,5.000000000000000000e+00,9.000000000000000000e+00
2.195200000000000000e+04,2.500000000000000052e-04,4.700000000000000401e-04,1.399999999999999877e-04,-2.000000000000000096e-04,-9.599999999999999159e-04,-1.600000000000000131e-04,-1.000000000000000082e-05,0.000000000000000000e+00,5.000000000000000000e+00,9.000000000000000000e+00
2.195300000000000000e+04,-2.999999999999999737e-05,5.999999999999999474e-05,-5.999999999999999474e-05,2.299999999999999799e-04,-9.000000000000000567e-05,0.000000000000000000e+00,0.000000000000000000e+00,-5.000000000000000240e-05,5.000000000000000000e+00,9.000000000000000000e+00
2.195400000000000000e+04,-2.999999999999999737e-05,5.999999999999999474e-05,-5.999999999999999474e-05,2.299999999999999799e-04,-9.000000000000000567e-05,0.000000000000000000e+00,0.000000000000000000e+00,-5.000000000000000240e-05,5.000000000000000000e+00,9.000000000000000000e+00
2.195500000000000000e+04,-2.999999999999999737e-05,5.999999999999999474e-05,-5.999999999999999474e-05,2.299999999999999799e-04,-9.000000000000000567e-05,0.000000000000000000e+00,0.000000000000000000e+00,-5.000000000000000240e-05,5.000000000000000000e+00,9.000000000000000000e+00
2.195600000000000000e+04,-2.999999999999999737e-05,5.999999999999999474e-05,-5.999999999999999474e-05,2.299999999999999799e-04,-9.000000000000000567e-05,0.000000000000000000e+00,0.000000000000000000e+00,-5.000000000000000240e-05,5.000000000000000000e+00,9.000000000000000000e+00
2.195700000000000000e+04,-2.999999999999999737e-05,5.999999999999999474e-05,-5.999999999999999474e-05,2.299999999999999799e-04,-9.000000000000000567e-05,0.000000000000000000e+00,0.000000000000000000e+00,-5.000000000000000240e-05,5.000000000000000000e+00,9.000000000000000000e+00
2.195800000000000000e+04,-2.100000000000000087e-04,-1.499999999999999869e-04,-4.000000000000000327e-05,-8.000000000000000654e-05,-2.000000000000000096e-04,-1.300000000000000157e-04,-5.000000000000000240e-05,2.000000000000000164e-05,5.000000000000000000e+00,9.000000000000000000e+00
2.195900000000000000e+04,-2.100000000000000087e-04,-1.499999999999999869e-04,-4.000000000000000327e-05,-8.000000000000000654e-05,-2.000000000000000096e-04,-1.300000000000000157e-04,-5.000000000000000240e-05,2.000000000000000164e-05,5.000000000000000000e+00,9.000000000000000000e+00
2.196000000000000000e+04,-2.100000000000000087e-04,-1.499999999999999869e-04,-4.000000000000000327e-05,-8.000000000000000654e-05,-2.000000000000000096e-04,-1.300000000000000157e-04,-5.000000000000000240e-05,2.000000000000000164e-05,5.000000000000000000e+00,9.000000000000000000e+00
2.196100000000000000e+04,-2.100000000000000087e-04,-1.499999999999999869e-04,-4.000000000000000327e-05,-8.000000000000000654e-05,-2.000000000000000096e-04,-1.300000000000000157e-04,-5.000000000000000240e-05,2.000000000000000164e-05,5.000000000000000000e+00,9.000000000000000000e+00
2.196200000000000000e+04,-2.100000000000000087e-04,-1.499999999999999869e-04,-4.000000000000000327e-05,-8.000000000000000654e-05,-2.000000000000000096e-04,-1.300000000000000157e-04,-5.000000000000000240e-05,2.000000000000000164e-05,5.000000000000000000e+00,9.000000000000000000e+00
2.196400000000000000e+04,-2.100000000000000087e-04,-1.499999999999999869e-04,-4.000000000000000327e-05,-8.000000000000000654e-05,-2.000000000000000096e-04,-1.300000000000000157e-04,-5.000000000000000240e-05,2.000000000000000164e-05,5.000000000000000000e+00,9.000000000000000000e+00
2.196500000000000000e+04,-2.100000000000000087e-04,-1.499999999999999869e-04,-4.000000000000000327e-05,-8.000000000000000654e-05,-2.000000000000000096e-04,-1.300000000000000157e-04,-5.000000000000000240e-05,2.000000000000000164e-05,5.000000000000000000e+00,9.000000000000000000e+00
2.196600000000000000e+04,-2.100000000000000087e-04,-1.499999999999999869e-04,-4.000000000000000327e-05,-8.000000000000000654e-05,-2.000000000000000096e-04,-1.300000000000000157e-04,-5.000000000000000240e-05,2.000000000000000164e-05,5.000000000000000000e+00,9.000000000000000000e+00
2.196700000000000000e+04,-1.600000000000000131e-04,2.100000000000000087e-04,4.000000000000000327e-05,-1.100000000000000039e-04,-3.699999999999999947e-04,-2.100000000000000087e-04,-5.000000000000000240e-05,-5.999999999999999474e-05,5.000000000000000000e+00,9.000000000000000000e+00
2.196800000000000000e+04,-1.600000000000000131e-04,2.100000000000000087e-04,4.000000000000000327e-05,-1.100000000000000039e-04,-3.699999999999999947e-04,-2.100000000000000087e-04,-5.000000000000000240e-05,-5.999999999999999474e-05,5.000000000000000000e+00,9.000000000000000000e+00
2.196900000000000000e+04,-1.600000000000000131e-04,2.100000000000000087e-04,4.000000000000000327e-05,-1.100000000000000039e-04,-3.699999999999999947e-04,-2.100000000000000087e-04,-5.000000000000000240e-05,-5.999999999999999474e-05,5.000000000000000000e+00,9.000000000000000000e+00
2.197000000000000000e+04,-1.600000000000000131e-04,2.100000000000000087e-04,4.000000000000000327e-05,-1.100000000000000039e-04,-3.699999999999999947e-04,-2.100000000000000087e-04,-5.000000000000000240e-05,-5.999999999999999474e-05,5.000000000000000000e+00,9.000000000000000000e+00
2.197100000000000000e+04,-1.600000000000000131e-04,2.100000000000000087e-04,4.000000000000000327e-05,-1.100000000000000039e-04,-3.699999999999999947e-04,-2.100000000000000087e-04,-5.000000000000000240e-05,-5.999999999999999474e-05,5.000000000000000000e+00,9.000000000000000000e+00
2.197200000000000000e+04,-1.600000000000000131e-04,2.100000000000000087e-04,4.000000000000000327e-05,-1.100000000000000039e-04,-3.699999999999999947e-04,-2.100000000000000087e-04,-5.000000000000000240e-05,-5.999999999999999474e-05,5.000000000000000000e+00,9.000000000000000000e+00
2.197300000000000000e+04,-1.600000000000000131e-04,2.100000000000000087e-04,4.000000000000000327e-05,-1.100000000000000039e-04,-3.699999999999999947e-04,-2.100000000000000087e-04,-5.000000000000000240e-05,-5.999999999999999474e-05,5.000000000000000000e+00,9.000000000000000000e+00
2.197400000000000000e+04,-1.600000000000000131e-04,2.100000000000000087e-04,4.000000000000000327e-05,-1.100000000000000039e-04,-3.699999999999999947e-04,-2.100000000000000087e-04,-5.000000000000000240e-05,-5.999999999999999474e-05,5.000000000000000000e+00,9.000000000000000000e+00
2.197500000000000000e+04,-1.600000000000000131e-04,2.100000000000000087e-04,4.000000000000000327e-05,-1.100000000000000039e-04,-3.699999999999999947e-04,-2.100000000000000087e-04,-5.000000000000000240e-05,-5.999999999999999474e-05,5.000000000000000000e+00,9.000000000000000000e+00
2.197600000000000000e+04,-1.600000000000000131e-04,2.100000000000000087e-04,4.000000000000000327e-05,-1.100000000000000039e-04,-3.699999999999999947e-04,-2.100000000000000087e-04,-5.000000000000000240e-05,-5.999999999999999474e-05,5.000000000000000000e+00,9.000000000000000000e+00
2.197700000000000000e+04,-1.600000000000000131e-04,2.100000000000000087e-04,4.000000000000000327e-05,-1.100000000000000039e-04,-3.699999999999999947e-04,-2.100000000000000087e-04,-5.000000000000000240e-05,-5.999999999999999474e-05,5.000000000000000000e+00,9.000000000000000000e+00
2.197800000000000000e+04,-1.600000000000000131e-04,2.100000000000000087e-04,4.000000000000000327e-05,-1.100000000000000039e-04,-3.699999999999999947e-04,-2.100000000000000087e-04,-5.000000000000000240e-05,-5.999999999999999474e-05,5.000000000000000000e+00,9.000000000000000000e+00
2.197900000000000000e+04,-1.600000000000000131e-04,2.100000000000000087e-04,4.000000000000000327e-05,-1.100000000000000039e-04,-3.699999999999999947e-04,-2.100000000000000087e-04,-5.000000000000000240e-05,-5.999999999999999474e-05,5.000000000000000000e+00,9.000000000000000000e+00
2.198000000000000000e+04,-1.600000000000000131e-04,2.100000000000000087e-04,4.000000000000000327e-05,-1.100000000000000039e-04,-3.699999999999999947e-04,-2.100000000000000087e-04,-5.000000000000000240e-05,-5.999999999999999474e-05,5.000000000000000000e+00,9.000000000000000000e+00
2.198100000000000000e+04,-1.899999999999999834e-04,-2.399999999999999790e-04,-4.000000000000000327e-05,-8.000000000000000654e-05,1.199999999999999895e-04,8.000000000000000654e-05,2.000000000000000164e-05,-2.000000000000000164e-05,5.000000000000000000e+00,9.000000000000000000e+00
2.198200000000000000e+04,-1.899999999999999834e-04,-2.399999999999999790e-04,-4.000000000000000327e-05,-8.000000000000000654e-05,1.199999999999999895e-04,8.000000000000000654e-05,2.000000000000000164e-05,-2.000000000000000164e-05,5.000000000000000000e+00,9.000000000000000000e+00
2.198300000000000000e+04,-1.899999999999999834e-04,-2.399999999999999790e-04,-4.000000000000000327e-05,-8.000000000000000654e-05,1.199999999999999895e-04,8.000000000000000654e-05,2.000000000000000164e-05,-2.000000000000000164e-05,5.000000000000000000e+00,9.000000000000000000e+00
2.198400000000000000e+04,-1.899999999999999834e-04,-2.399999999999999790e-04,-4.000000000000000327e-05,-8.000000000000000654e-05,1.199999999999999895e-04,8.000000000000000654e-05,2.000000000000000164e-05,-2.000000000000000164e-05,5.000000000000000000e+00,9.000000000000000000e+00
2.198500000000000000e+04,-1.899999999999999834e-04,-2.399999999999999790e-04,-4.000000000000000327e-05,-8.000000000000000654e-05,1.199999999999999895e-04,8.000000000000000654e-05,2.000000000000000164e-05,-2.000000000000000164e-05,5.000000000000000000e+00,9.000000000000000000e+00
2.198600000000000000e+04,-1.899999999999999834e-04,-2.399999999999999790e-04,-4.000000000000000327e-05,-8.000000000000000654e-05,1.199999999999999895e-04,8.000000000000000654e-05,2.000000000000000164e-05,-2.000000000000000164e-05,5.000000000000000000e+00,9.000000000000000000e+00
2.198900000000000000e+04,-1.600000000000000131e-04,-1.000000000000000048e-04,2.999999999999999737e-05,2.999999999999999737e-05,0.000000000000000000e+00,5.999999999999999474e-05,4.000000000000000327e-05,-2.000000000000000164e-05,5.000000000000000000e+00,9.000000000000000000e+00
2.199000000000000000e+04,-1.600000000000000131e-04,-1.000000000000000048e-04,2.999999999999999737e-05,2.999999999999999737e-05,0.000000000000000000e+00,5.999999999999999474e-05,4.000000000000000327e-05,-2.000000000000000164e-05,5.000000000000000000e+00,9.000000000000000000e+00
2.199100000000000000e+04,-1.600000000000000131e-04,-1.000000000000000048e-04,2.999999999999999737e-05,2.999999999999999737e-05,0.000000000000000000e+00,5.999999999999999474e-05,4.000000000000000327e-05,-2.000000000000000164e-05,5.000000000000000000e+00,9.000000000000000000e+00
2.199200000000000000e+04,-1.600000000000000131e-04,-1.000000000000000048e-04,2.999999999999999737e-05,2.999999999999999737e-05,0.000000000000000000e+00,5.999999999999999474e-05,4.000000000000000327e-05,-2.000000000000000164e-05,5.000000000000000000e+00,9.000000000000000000e+00
2.199300000000000000e+04,-1.600000000000000131e-04,-1.000000000000000048e-04,2.999999999999999737e-05,2.999999999999999737e-05,0.000000000000000000e+00,5.999999999999999474e-05,4.000000000000000327e-05,-2.000000000000000164e-05,5.000000000000000000e+00,9.000000000000000000e+00
2.199400000000000000e+04,-1.600000000000000131e-04,-1.000000000000000048e-04,2.999999999999999737e-05,2.999999999999999737e-05,0.000000000000000000e+00,5.999999999999999474e-05,4.000000000000000327e-05,-2.000000000000000164e-05,5.000000000000000000e+00,9.000000000000000000e+00
2.199500000000000000e+04,-1.600000000000000131e-04,-1.000000000000000048e-04,2.999999999999999737e-05,2.999999999999999737e-05,0.000000000000000000e+00,5.999999999999999474e-05,4.000000000000000327e-05,-2.000000000000000164e-05,5.000000000000000000e+00,9.000000000000000000e+00
2.199600000000000000e+04,-1.600000000000000131e-04,-1.000000000000000048e-04,2.999999999999999737e-05,2.999999999999999737e-05,0.000000000000000000e+00,5.999999999999999474e-05,4.000000000000000327e-05,-2.000000000000000164e-05,5.000000000000000000e+00,9.000000000000000000e+00
2.199700000000000000e+04,-1.600000000000000131e-04,-1.000000000000000048e-04,2.999999999999999737e-05,2.999999999999999737e-05,0.000000000000000000e+00,5.999999999999999474e-05,4.000000000000000327e-05,-2.000000000000000164e-05,5.000000000000000000e+00,9.000000000000000000e+00
2.199800000000000000e+04,-1.600000000000000131e-04,-1.000000000000000048e-04,2.999999999999999737e-05,2.999999999999999737e-05,0.000000000000000000e+00,5.999999999999999474e-05,4.000000000000000327e-05,-2.000000000000000164e-05,5.000000000000000000e+00,9.000000000000000000e+00
2.199900000000000000e+04,-1.600000000000000131e-04,-1.000000000000000048e-04,2.999999999999999737e-05,2.999999999999999737e-05,0.000000000000000000e+00,5.999999999999999474e-05,4.000000000000000327e-05,-2.000000000000000164e-05,5.000000000000000000e+00,9.000000000000000000e+00
2.200000000000000000e+04,-1.600000000000000131e-04,-1.000000000000000048e-04,2.999999999999999737e-05,2.999999999999999737e-05,0.000000000000000000e+00,5.999999999999999474e-05,4.000000000000000327e-05,-2.000000000000000164e-05,5.000000000000000000e+00,9.000000000000000000e+00
2.200100000000000000e+04,-1.600000000000000131e-04,-1.000000000000000048e-04,2.999999999999999737e-05,2.999999999999999737e-05,0.000000000000000000e+00,5.999999999999999474e-05,4.000000000000000327e-05,-2.000000000000000164e-05,5.000000000000000000e+00,9.000000000000000000e+00
2.200200000000000000e+04,-1.600000000000000131e-04,-1.000000000000000048e-04,2.999999999999999737e-05,2.999999999999999737e-05,0.000000000000000000e+00,5.999999999999999474e-05,4.000000000000000327e-05,-2.000000000000000164e-05,5.000000000000000000e+00,9.000000000000000000e+00
2.200300000000000000e+04,-1.600000000000000131e-04,-1.000000000000000048e-04,2.999999999999999737e-05,2.999999999999999737e-05,0.000000000000000000e+00,5.999999999999999474e-05,4.000000000000000327e-05,-2.000000000000000164e-05,5.000000000000000000e+00,9.000000000000000000e+00
2.200400000000000000e+04,2.100000000000000087e-04,-1.000000000000000082e-05,-1.399999999999999877e-04,-9.000000000000000567e-05,-6.799999999999999404e-04,5.000000000000000240e-05,2.000000000000000164e-05,2.000000000000000164e-05,5.000000000000000000e+00,9.000000000000000000e+00
2.200500000000000000e+04,2.100000000000000087e-04,-1.000000000000000082e-05,-1.399999999999999877e-04,-9.000000000000000567e-05,-6.799999999999999404e-04,5.000000000000000240e-05,2.000000000000000164e-05,2.000000000000000164e-05,5.000000000000000000e+00,9.000000000000000000e+00
2.200600000000000000e+04,-2.999999999999999737e-05,-1.199999999999999895e-04,-8.000000000000000654e-05,-4.299999999999999894e-04,-4.299999999999999894e-04,-2.600000000000000314e-04,-2.000000000000000164e-05,1.000000000000000082e-05,5.000000000000000000e+00,9.000000000000000000e+00
2.200700000000000000e+04,-2.999999999999999737e-05,-1.199999999999999895e-04,-8.000000000000000654e-05,-4.299999999999999894e-04,-4.299999999999999894e-04,-2.600000000000000314e-04,-2.000000000000000164e-05,1.000000000000000082e-05,5.000000000000000000e+00,9.000000000000000000e+00
2.200800000000000000e+04,-2.999999999999999737e-05,-1.199999999999999895e-04,-8.000000000000000654e-05,-4.299999999999999894e-04,-4.299999999999999894e-04,-2.600000000000000314e-04,-2.000000000000000164e-05,1.000000000000000082e-05,5.000000000000000000e+00,9.000000000000000000e+00
2.200900000000000000e+04,-2.999999999999999737e-05,-1.199999999999999895e-04,-8.000000000000000654e-05,-4.299999999999999894e-04,-4.299999999999999894e-04,-2.600000000000000314e-04,-2.000000000000000164e-05,1.000000000000000082e-05,5.000000000000000000e+00,9.000000000000000000e+00
2.201000000000000000e+04,-2.999999999999999737e-05,-1.199999999999999895e-04,-8.000000000000000654e-05,-4.299999999999999894e-04,-4.299999999999999894e-04,-2.600000000000000314e-04,-2.000000000000000164e-05,1.000000000000000082e-05,5.000000000000000000e+00,9.000000000000000000e+00
2.201100000000000000e+04,-2.999999999999999737e-05,-1.199999999999999895e-04,-8.000000000000000654e-05,-4.299999999999999894e-04,-4.299999999999999894e-04,-2.600000000000000314e-04,-2.000000000000000164e-05,1.000000000000000082e-05,5.000000000000000000e+00,9.000000000000000000e+00
2.201200000000000000e+04,-2.999999999999999737e-05,-1.199999999999999895e-04,-8.000000000000000654e-05,-4.299999999999999894e-04,-4.299999999999999894e-04,-2.600000000000000314e-04,-2.000000000000000164e-05,1.000000000000000082e-05,5.000000000000000000e+00,9.000000000000000000e+00
2.201300000000000000e+04,-2.999999999999999737e-05,-1.199999999999999895e-04,-8.000000000000000654e-05,-4.299999999999999894e-04,-4.299999999999999894e-04,-2.600000000000000314e-04,-2.000000000000000164e-05,1.000000000000000082e-05,5.000000000000000000e+00,9.000000000000000000e+00
2.201400000000000000e+04,-2.999999999999999737e-05,-1.199999999999999895e-04,-8.000000000000000654e-05,-4.299999999999999894e-04,-4.299999999999999894e-04,-2.600000000000000314e-04,-2.000000000000000164e-05,1.000000000000000082e-05,5.000000000000000000e+00,9.000000000000000000e+00
2.201500000000000000e+04,-2.999999999999999737e-05,-1.199999999999999895e-04,-8.000000000000000654e-05,-4.299999999999999894e-04,-4.299999999999999894e-04,-2.600000000000000314e-04,-2.000000000000000164e-05,1.000000000000000082e-05,5.000000000000000000e+00,9.000000000000000000e+00
2.201600000000000000e+04,-2.999999999999999737e-05,-1.199999999999999895e-04,-8.000000000000000654e-05,-4.299999999999999894e-04,-4.299999999999999894e-04,-2.600000000000000314e-04,-2.000000000000000164e-05,1.000000000000000082e-05,5.000000000000000000e+00,9.000000000000000000e+00
2.201700000000000000e+04,-2.999999999999999737e-05,-1.199999999999999895e-04,-8.000000000000000654e-05,-4.299999999999999894e-04,-4.299999999999999894e-04,-2.600000000000000314e-04,-2.000000000000000164e-05,1.000000000000000082e-05,5.000000000000000000e+00,9.000000000000000000e+00
2.201800000000000000e+04,-2.999999999999999737e-05,-1.199999999999999895e-04,-8.000000000000000654e-05,-4.299999999999999894e-04,-4.299999999999999894e-04,-2.600000000000000314e-04,-2.000000000000000164e-05,1.000000000000000082e-05,5.000000000000000000e+00,9.000000000000000000e+00
2.201900000000000000e+04,-2.999999999999999737e-05,-1.199999999999999895e-04,-8.000000000000000654e-05,-4.299999999999999894e-04,-4.299999999999999894e-04,-2.600000000000000314e-04,-2.000000000000000164e-05,1.000000000000000082e-05,5.000000000000000000e+00,9.000000000000000000e+00
2.202000000000000000e+04,-2.999999999999999737e-05,-1.199999999999999895e-04,-8.000000000000000654e-05,-4.299999999999999894e-04,-4.299999999999999894e-04,-2.600000000000000314e-04,-2.000000000000000164e-05,1.000000000000000082e-05,5.000000000000000000e+00,9.000000000000000000e+00
2.202100000000000000e+04,-2.999999999999999737e-05,-1.199999999999999895e-04,-8.000000000000000654e-05,-4.299999999999999894e-04,-4.299999999999999894e-04,-2.600000000000000314e-04,-2.000000000000000164e-05,1.000000000000000082e-05,5.000000000000000000e+00,9.000000000000000000e+00
2.202200000000000000e+04,-2.999999999999999737e-05,-1.199999999999999895e-04,-8.000000000000000654e-05,-4.299999999999999894e-04,-4.299999999999999894e-04,-2.600000000000000314e-04,-2.000000000000000164e-05,1.000000000000000082e-05,5.000000000000000000e+00,9.000000000000000000e+00
2.202300000000000000e+04,-2.999999999999999737e-05,-1.199999999999999895e-04,-8.000000000000000654e-05,-4.299999999999999894e-04,-4.299999999999999894e-04,-2.600000000000000314e-04,-2.000000000000000164e-05,1.000000000000000082e-05,5.000000000000000000e+00,9.000000000000000000e+00
2.202400000000000000e+04,-2.999999999999999737e-05,-1.199999999999999895e-04,-8.000000000000000654e-05,-4.299999999999999894e-04,-4.299999999999999894e-04,-2.600000000000000314e-04,-2.000000000000000164e-05,1.000000000000000082e-05,5.000000000000000000e+00,9.000000000000000000e+00
2.202500000000000000e+04,-2.999999999999999737e-05,-1.199999999999999895e-04,-8.000000000000000654e-05,-4.299999999999999894e-04,-4.299999999999999894e-04,-2.600000000000000314e-04,-2.000000000000000164e-05,1.000000000000000082e-05,5.000000000000000000e+00,9.000000000000000000e+00
2.202600000000000000e+04,-1.000000000000000048e-04,-1.199999999999999895e-04,-2.399999999999999790e-04,1.000000000000000048e-04,4.099999999999999912e-04,2.999999999999999737e-04,4.000000000000000327e-05,0.000000000000000000e+00,5.000000000000000000e+00,9.000000000000000000e+00
2.202700000000000000e+04,-5.999999999999999474e-05,0.000000000000000000e+00,9.000000000000000567e-05,3.099999999999999999e-04,1.699999999999999851e-04,-1.000000000000000048e-04,-5.000000000000000240e-05,-2.000000000000000164e-05,5.000000000000000000e+00,9.000000000000000000e+00
2.202800000000000000e+04,5.999999999999999474e-05,1.000000000000000048e-04,3.399999999999999702e-04,1.499999999999999869e-04,-2.000000000000000096e-04,-2.999999999999999737e-05,-2.000000000000000164e-05,2.000000000000000164e-05,5.000000000000000000e+00,9.000000000000000000e+00
2.202900000000000000e+04,5.999999999999999474e-05,1.000000000000000048e-04,3.399999999999999702e-04,1.499999999999999869e-04,-2.000000000000000096e-04,-2.999999999999999737e-05,-2.000000000000000164e-05,2.000000000000000164e-05,5.000000000000000000e+00,9.000000000000000000e+00
2.203000000000000000e+04,5.999999999999999474e-05,1.000000000000000048e-04,3.399999999999999702e-04,1.499999999999999869e-04,-2.000000000000000096e-04,-2.999999999999999737e-05,-2.000000000000000164e-05,2.000000000000000164e-05,5.000000000000000000e+00,9.000000000000000000e+00
2.203100000000000000e+04,5.999999999999999474e-05,1.000000000000000048e-04,3.399999999999999702e-04,1.499999999999999869e-04,-2.000000000000000096e-04,-2.999999999999999737e-05,-2.000000000000000164e-05,2.000000000000000164e-05,5.000000000000000000e+00,9.000000000000000000e+00
2.203200000000000000e+04,5.999999999999999474e-05,1.000000000000000048e-04,3.399999999999999702e-04,1.499999999999999869e-04,-2.000000000000000096e-04,-2.999999999999999737e-05,-2.000000000000000164e-05,2.000000000000000164e-05,5.000000000000000000e+00,9.000000000000000000e+00
2.203300000000000000e+04,5.999999999999999474e-05,1.000000000000000048e-04,3.399999999999999702e-04,1.499999999999999869e-04,-2.000000000000000096e-04,-2.999999999999999737e-05,-2.000000000000000164e-05,2.000000000000000164e-05,5.000000000000000000e+00,9.000000000000000000e+00
2.203400000000000000e+04,5.999999999999999474e-05,1.000000000000000048e-04,3.399999999999999702e-04,1.499999999999999869e-04,-2.000000000000000096e-04,-2.999999999999999737e-05,-2.000000000000000164e-05,2.000000000000000164e-05,5.000000000000000000e+00,9.000000000000000000e+00
2.203500000000000000e+04,5.999999999999999474e-05,1.000000000000000048e-04,3.399999999999999702e-04,1.499999999999999869e-04,-2.000000000000000096e-04,-2.999999999999999737e-05,-2.000000000000000164e-05,2.000000000000000164e-05,5.000000000000000000e+00,9.000000000000000000e+00
2.203600000000000000e+04,5.999999999999999474e-05,1.000000000000000048e-04,3.399999999999999702e-04,1.499999999999999869e-04,-2.000000000000000096e-04,-2.999999999999999737e-05,-2.000000000000000164e-05,2.000000000000000164e-05,5.000000000000000000e+00,9.000000000000000000e+00
2.203800000000000000e+04,5.999999999999999474e-05,1.000000000000000048e-04,3.399999999999999702e-04,1.499999999999999869e-04,-2.000000000000000096e-04,-2.999999999999999737e-05,-2.000000000000000164e-05,2.000000000000000164e-05,5.000000000000000000e+00,9.000000000000000000e+00
2.203900000000000000e+04,5.999999999999999474e-05,1.000000000000000048e-04,3.399999999999999702e-04,1.499999999999999869e-04,-2.000000000000000096e-04,-2.999999999999999737e-05,-2.000000000000000164e-05,2.000000000000000164e-05,5.000000000000000000e+00,9.000000000000000000e+00
2.204000000000000000e+04,5.999999999999999474e-05,1.000000000000000048e-04,3.399999999999999702e-04,1.499999999999999869e-04,-2.000000000000000096e-04,-2.999999999999999737e-05,-2.000000000000000164e-05,2.000000000000000164e-05,5.000000000000000000e+00,9.000000000000000000e+00
2.204100000000000000e+04,-1.199999999999999895e-04,2.000000000000000164e-05,0.000000000000000000e+00,2.600000000000000314e-04,9.599999999999999159e-04,3.299999999999999982e-04,5.000000000000000240e-05,2.999999999999999737e-05,5.000000000000000000e+00,9.000000000000000000e+00
2.204200000000000000e+04,-1.199999999999999895e-04,2.000000000000000164e-05,0.000000000000000000e+00,2.600000000000000314e-04,9.599999999999999159e-04,3.299999999999999982e-04,5.000000000000000240e-05,2.999999999999999737e-05,5.000000000000000000e+00,9.000000000000000000e+00
2.204300000000000000e+04,2.999999999999999737e-04,4.000000000000000327e-05,1.000000000000000048e-04,9.000000000000000567e-05,0.000000000000000000e+00,-9.000000000000000567e-05,-5.000000000000000240e-05,5.999999999999999474e-05,5.000000000000000000e+00,9.000000000000000000e+00
2.204400000000000000e+04,2.999999999999999737e-04,4.000000000000000327e-05,1.000000000000000048e-04,9.000000000000000567e-05,0.000000000000000000e+00,-9.000000000000000567e-05,-5.000000000000000240e-05,5.999999999999999474e-05,5.000000000000000000e+00,9.000000000000000000e+00
2.204500000000000000e+04,2.999999999999999737e-04,4.000000000000000327e-05,1.000000000000000048e-04,9.000000000000000567e-05,0.000000000000000000e+00,-9.000000000000000567e-05,-5.000000000000000240e-05,5.999999999999999474e-05,5.000000000000000000e+00,9.000000000000000000e+00
2.204600000000000000e+04,2.999999999999999737e-04,4.000000000000000327e-05,1.000000000000000048e-04,9.000000000000000567e-05,0.000000000000000000e+00,-9.000000000000000567e-05,-5.000000000000000240e-05,5.999999999999999474e-05,5.000000000000000000e+00,9.000000000000000000e+00
2.204700000000000000e+04,2.999999999999999737e-04,4.000000000000000327e-05,1.000000000000000048e-04,9.000000000000000567e-05,0.000000000000000000e+00,-9.000000000000000567e-05,-5.000000000000000240e-05,5.999999999999999474e-05,5.000000000000000000e+00,9.000000000000000000e+00
2.204800000000000000e+04,2.999999999999999737e-04,4.000000000000000327e-05,1.000000000000000048e-04,9.000000000000000567e-05,0.000000000000000000e+00,-9.000000000000000567e-05,-5.000000000000000240e-05,5.999999999999999474e-05,5.000000000000000000e+00,9.000000000000000000e+00
2.204900000000000000e+04,2.999999999999999737e-04,4.000000000000000327e-05,1.000000000000000048e-04,9.000000000000000567e-05,0.000000000000000000e+00,-9.000000000000000567e-05,-5.000000000000000240e-05,5.999999999999999474e-05,5.000000000000000000e+00,9.000000000000000000e+00
2.205000000000000000e+04,2.999999999999999737e-04,4.000000000000000327e-05,1.000000000000000048e-04,9.000000000000000567e-05,0.000000000000000000e+00,-9.000000000000000567e-05,-5.000000000000000240e-05,5.999999999999999474e-05,5.000000000000000000e+00,9.000000000000000000e+00
2.205100000000000000e+04,2.999999999999999737e-04,4.000000000000000327e-05,1.000000000000000048e-04,9.000000000000000567e-05,0.000000000000000000e+00,-9.000000000000000567e-05,-5.000000000000000240e-05,5.999999999999999474e-05,5.000000000000000000e+00,9.000000000000000000e+00
2.205200000000000000e+04,2.999999999999999737e-04,4.000000000000000327e-05,1.000000000000000048e-04,9.000000000000000567e-05,0.000000000000000000e+00,-9.000000000000000567e-05,-5.000000000000000240e-05,5.999999999999999474e-05,5.000000000000000000e+00,9.000000000000000000e+00
2.205300000000000000e+04,2.999999999999999737e-04,4.000000000000000327e-05,1.000000000000000048e-04,9.000000000000000567e-05,0.000000000000000000e+00,-9.000000000000000567e-05,-5.000000000000000240e-05,5.999999999999999474e-05,5.000000000000000000e+00,9.000000000000000000e+00
2.205400000000000000e+04,2.999999999999999737e-04,4.000000000000000327e-05,1.000000000000000048e-04,9.000000000000000567e-05,0.000000000000000000e+00,-9.000000000000000567e-05,-5.000000000000000240e-05,5.999999999999999474e-05,5.000000000000000000e+00,9.000000000000000000e+00
2.205500000000000000e+04,2.999999999999999737e-04,4.000000000000000327e-05,1.000000000000000048e-04,9.000000000000000567e-05,0.000000000000000000e+00,-9.000000000000000567e-05,-5.000000000000000240e-05,5.999999999999999474e-05,5.000000000000000000e+00,9.000000000000000000e+00
2.205600000000000000e+04,2.999999999999999737e-04,4.000000000000000327e-05,1.000000000000000048e-04,9.000000000000000567e-05,0.000000000000000000e+00,-9.000000000000000567e-05,-5.000000000000000240e-05,5.999999999999999474e-05,5.000000000000000000e+00,9.000000000000000000e+00
2.205700000000000000e+04,2.999999999999999737e-04,4.000000000000000327e-05,1.000000000000000048e-04,9.000000000000000567e-05,0.000000000000000000e+00,-9.000000000000000567e-05,-5.000000000000000240e-05,5.999999999999999474e-05,5.000000000000000000e+00,9.000000000000000000e+00
2.205800000000000000e+04,2.999999999999999737e-04,4.000000000000000327e-05,1.000000000000000048e-04,9.000000000000000567e-05,0.000000000000000000e+00,-9.000000000000000567e-05,-5.000000000000000240e-05,5.999999999999999474e-05,5.000000000000000000e+00,9.000000000000000000e+00
2.205900000000000000e+04,2.999999999999999737e-04,4.000000000000000327e-05,1.000000000000000048e-04,9.000000000000000567e-05,0.000000000000000000e+00,-9.000000000000000567e-05,-5.000000000000000240e-05,5.999999999999999474e-05,5.000000000000000000e+00,9.000000000000000000e+00
2.206000000000000000e+04,2.999999999999999737e-04,4.000000000000000327e-05,1.000000000000000048e-04,9.000000000000000567e-05,0.000000000000000000e+00,-9.000000000000000567e-05,-5.000000000000000240e-05,5.999999999999999474e-05,5.000000000000000000e+00,9.000000000000000000e+00
2.206100000000000000e+04,2.999999999999999737e-04,4.000000000000000327e-05,1.000000000000000048e-04,9.000000000000000567e-05,0.000000000000000000e+00,-9.000000000000000567e-05,-5.000000000000000240e-05,5.999999999999999474e-05,5.000000000000000000e+00,9.000000000000000000e+00
2.206200000000000000e+04,2.999999999999999737e-04,4.000000000000000327e-05,1.000000000000000048e-04,9.000000000000000567e-05,0.000000000000000000e+00,-9.000000000000000567e-05,-5.000000000000000240e-05,5.999999999999999474e-05,5.000000000000000000e+00,9.000000000000000000e+00
2.206300000000000000e+04,2.999999999999999737e-04,4.000000000000000327e-05,1.000000000000000048e-04,9.000000000000000567e-05,0.000000000000000000e+00,-9.000000000000000567e-05,-5.000000000000000240e-05,5.999999999999999474e-05,5.000000000000000000e+00,9.000000000000000000e+00
2.206400000000000000e+04,2.999999999999999737e-04,4.000000000000000327e-05,1.000000000000000048e-04,9.000000000000000567e-05,0.000000000000000000e+00,-9.000000000000000567e-05,-5.000000000000000240e-05,5.999999999999999474e-05,5.000000000000000000e+00,9.000000000000000000e+00
2.206500000000000000e+04,1.199999999999999895e-04,-2.100000000000000087e-04,-5.999999999999999474e-05,-1.199999999999999895e-04,-3.099999999999999999e-04,1.000000000000000082e-05,0.000000000000000000e+00,2.000000000000000164e-05,5.000000000000000000e+00,9.000000000000000000e+00
2.206600000000000000e+04,5.999999999999999474e-05,-1.499999999999999869e-04,-9.000000000000000567e-05,-5.000000000000000240e-05,2.299999999999999799e-04,4.000000000000000192e-04,8.000000000000000654e-05,-2.999999999999999737e-05,5.000000000000000000e+00,9.000000000000000000e+00
2.206700000000000000e+04,5.999999999999999474e-05,-1.499999999999999869e-04,-9.000000000000000567e-05,-5.000000000000000240e-05,2.299999999999999799e-04,4.000000000000000192e-04,8.000000000000000654e-05,-2.999999999999999737e-05,5.000000000000000000e+00,9.000000000000000000e+00
2.206800000000000000e+04,5.999999999999999474e-05,-1.499999999999999869e-04,-9.000000000000000567e-05,-5.000000000000000240e-05,2.299999999999999799e-04,4.000000000000000192e-04,8.000000000000000654e-05,-2.999999999999999737e-05,5.000000000000000000e+00,9.000000000000000000e+00
2.206900000000000000e+04,5.999999999999999474e-05,-1.499999999999999869e-04,-9.000000000000000567e-05,-5.000000000000000240e-05,2.299999999999999799e-04,4.000000000000000192e-04,8.000000000000000654e-05,-2.999999999999999737e-05,5.000000000000000000e+00,9.000000000000000000e+00
2.207000000000000000e+04,5.999999999999999474e-05,-1.499999999999999869e-04,-9.000000000000000567e-05,-5.000000000000000240e-05,2.299999999999999799e-04,4.000000000000000192e-04,8.000000000000000654e-05,-2.999999999999999737e-05,5.000000000000000000e+00,9.000000000000000000e+00
2.207100000000000000e+04,5.999999999999999474e-05,-1.499999999999999869e-04,-9.000000000000000567e-05,-5.000000000000000240e-05,2.299999999999999799e-04,4.000000000000000192e-04,8.000000000000000654e-05,-2.999999999999999737e-05,5.000000000000000000e+00,9.000000000000000000e+00
2.207200000000000000e+04,5.999999999999999474e-05,-1.499999999999999869e-04,-9.000000000000000567e-05,-5.000000000000000240e-05,2.299999999999999799e-04,4.000000000000000192e-04,8.000000000000000654e-05,-2.999999999999999737e-05,5.000000000000000000e+00,9.000000000000000000e+00
2.207300000000000000e+04,5.999999999999999474e-05,-1.499999999999999869e-04,-9.000000000000000567e-05,-5.000000000000000240e-05,2.299999999999999799e-04,4.000000000000000192e-04,8.000000000000000654e-05,-2.999999999999999737e-05,5.000000000000000000e+00,9.000000000000000000e+00
2.207400000000000000e+04,5.999999999999999474e-05,-1.499999999999999869e-04,-9.000000000000000567e-05,-5.000000000000000240e-05,2.299999999999999799e-04,4.000000000000000192e-04,8.000000000000000654e-05,-2.999999999999999737e-05,5.000000000000000000e+00,9.000000000000000000e+00
2.207500000000000000e+04,5.999999999999999474e-05,-1.499999999999999869e-04,-9.000000000000000567e-05,-5.000000000000000240e-05,2.299999999999999799e-04,4.000000000000000192e-04,8.000000000000000654e-05,-2.999999999999999737e-05,5.000000000000000000e+00,9.000000000000000000e+00
2.207600000000000000e+04,5.999999999999999474e-05,-1.499999999999999869e-04,-9.000000000000000567e-05,-5.000000000000000240e-05,2.299999999999999799e-04,4.000000000000000192e-04,8.000000000000000654e-05,-2.999999999999999737e-05,5.000000000000000000e+00,9.000000000000000000e+00
2.207700000000000000e+04,5.999999999999999474e-05,-1.499999999999999869e-04,-9.000000000000000567e-05,-5.000000000000000240e-05,2.299999999999999799e-04,4.000000000000000192e-04,8.000000000000000654e-05,-2.999999999999999737e-05,5.000000000000000000e+00,9.000000000000000000e+00
2.207800000000000000e+04,0.000000000000000000e+00,1.499999999999999869e-04,2.999999999999999737e-05,-2.399999999999999790e-04,-6.199999999999999999e-04,-2.200000000000000078e-04,-5.000000000000000240e-05,5.999999999999999474e-05,5.000000000000000000e+00,9.000000000000000000e+00
2.207900000000000000e+04,0.000000000000000000e+00,1.499999999999999869e-04,2.999999999999999737e-05,-2.399999999999999790e-04,-6.199999999999999999e-04,-2.200000000000000078e-04,-5.000000000000000240e-05,5.999999999999999474e-05,5.000000000000000000e+00,9.000000000000000000e+00
2.208000000000000000e+04,0.000000000000000000e+00,1.499999999999999869e-04,2.999999999999999737e-05,-2.399999999999999790e-04,-6.199999999999999999e-04,-2.200000000000000078e-04,-5.000000000000000240e-05,5.999999999999999474e-05,5.000000000000000000e+00,9.000000000000000000e+00
2.208100000000000000e+04,0.000000000000000000e+00,1.499999999999999869e-04,2.999999999999999737e-05,-2.399999999999999790e-04,-6.199999999999999999e-04,-2.200000000000000078e-04,-5.000000000000000240e-05,5.999999999999999474e-05,5.000000000000000000e+00,9.000000000000000000e+00
2.208200000000000000e+04,0.000000000000000000e+00,1.499999999999999869e-04,2.999999999999999737e-05,-2.399999999999999790e-04,-6.199999999999999999e-04,-2.200000000000000078e-04,-5.000000000000000240e-05,5.999999999999999474e-05,5.000000000000000000e+00,9.000000000000000000e+00
2.208300000000000000e+04,0.000000000000000000e+00,1.499999999999999869e-04,2.999999999999999737e-05,-2.399999999999999790e-04,-6.199999999999999999e-04,-2.200000000000000078e-04,-5.000000000000000240e-05,5.999999999999999474e-05,5.000000000000000000e+00,9.000000000000000000e+00
2.208400000000000000e+04,0.000000000000000000e+00,1.499999999999999869e-04,2.999999999999999737e-05,-2.399999999999999790e-04,-6.199999999999999999e-04,-2.200000000000000078e-04,-5.000000000000000240e-05,5.999999999999999474e-05,5.000000000000000000e+00,9.000000000000000000e+00
2.208500000000000000e+04,-6.999999999999999387e-05,-5.999999999999999474e-05,-8.000000000000000654e-05,-1.199999999999999895e-04,-8.800000000000000313e-04,-6.999999999999999387e-05,-2.999999999999999737e-05,-2.999999999999999737e-05,5.000000000000000000e+00,9.000000000000000000e+00
2.208600000000000000e+04,-6.999999999999999387e-05,-5.999999999999999474e-05,-8.000000000000000654e-05,-1.199999999999999895e-04,-8.800000000000000313e-04,-6.999999999999999387e-05,-2.999999999999999737e-05,-2.999999999999999737e-05,5.000000000000000000e+00,9.000000000000000000e+00
2.208800000000000000e+04,-6.999999999999999387e-05,-5.999999999999999474e-05,-8.000000000000000654e-05,-1.199999999999999895e-04,-8.800000000000000313e-04,-6.999999999999999387e-05,-2.999999999999999737e-05,-2.999999999999999737e-05,5.000000000000000000e+00,9.000000000000000000e+00
2.208900000000000000e+04,-6.999999999999999387e-05,-5.999999999999999474e-05,-8.000000000000000654e-05,-1.199999999999999895e-04,-8.800000000000000313e-04,-6.999999999999999387e-05,-2.999999999999999737e-05,-2.999999999999999737e-05,5.000000000000000000e+00,9.000000000000000000e+00
2.209000000000000000e+04,-6.999999999999999387e-05,-5.999999999999999474e-05,-8.000000000000000654e-05,-1.199999999999999895e-04,-8.800000000000000313e-04,-6.999999999999999387e-05,-2.999999999999999737e-05,-2.999999999999999737e-05,5.000000000000000000e+00,9.000000000000000000e+00
2.209100000000000000e+04,-6.999999999999999387e-05,-5.999999999999999474e-05,-8.000000000000000654e-05,-1.199999999999999895e-04,-8.800000000000000313e-04,-6.999999999999999387e-05,-2.999999999999999737e-05,-2.999999999999999737e-05,5.000000000000000000e+00,9.000000000000000000e+00
2.209200000000000000e+04,-6.999999999999999387e-05,-5.999999999999999474e-05,-8.000000000000000654e-05,-1.199999999999999895e-04,-8.800000000000000313e-04,-6.999999999999999387e-05,-2.999999999999999737e-05,-2.999999999999999737e-05,5.000000000000000000e+00,9.000000000000000000e+00
2.209300000000000000e+04,-6.999999999999999387e-05,-5.999999999999999474e-05,-8.000000000000000654e-05,-1.199999999999999895e-04,-8.800000000000000313e-04,-6.999999999999999387e-05,-2.999999999999999737e-05,-2.999999999999999737e-05,5.000000000000000000e+00,9.000000000000000000e+00
