4.594200000000000000e+04,1.800000000000000113e-04,3.299999999999999982e-04,6.900000000000000751e-04,1.149999999999999981e-03,1.049999999999999935e-03,-2.100000000000000087e-04,2.200000000000000078e-04,2.700000000000000035e-04,4.000000000000000000e+00,1.900000000000000000e+01
4.594300000000000000e+04,1.800000000000000113e-04,3.299999999999999982e-04,6.900000000000000751e-04,1.149999999999999981e-03,1.049999999999999935e-03,-2.100000000000000087e-04,2.200000000000000078e-04,2.700000000000000035e-04,4.000000000000000000e+00,1.900000000000000000e+01
4.594400000000000000e+04,1.800000000000000113e-04,3.299999999999999982e-04,6.900000000000000751e-04,1.149999999999999981e-03,1.049999999999999935e-03,-2.100000000000000087e-04,2.200000000000000078e-04,2.700000000000000035e-04,4.000000000000000000e+00,1.900000000000000000e+01
4.594500000000000000e+04,1.800000000000000113e-04,3.299999999999999982e-04,6.900000000000000751e-04,1.149999999999999981e-03,1.049999999999999935e-03,-2.100000000000000087e-04,2.200000000000000078e-04,2.700000000000000035e-04,4.000000000000000000e+00,1.900000000000000000e+01
4.594600000000000000e+04,1.800000000000000113e-04,3.299999999999999982e-04,6.900000000000000751e-04,1.149999999999999981e-03,1.049999999999999935e-03,-2.100000000000000087e-04,2.200000000000000078e-04,2.700000000000000035e-04,4.000000000000000000e+00,1.900000000000000000e+01
4.594700000000000000e+04,1.800000000000000113e-04,3.299999999999999982e-04,6.900000000000000751e-04,1.149999999999999981e-03,1.049999999999999935e-03,-2.100000000000000087e-04,2.200000000000000078e-04,2.700000000000000035e-04,4.000000000000000000e+00,1.900000000000000000e+01
4.594800000000000000e+04,1.800000000000000113e-04,3.299999999999999982e-04,6.900000000000000751e-04,1.149999999999999981e-03,1.049999999999999935e-03,-2.100000000000000087e-04,2.200000000000000078e-04,2.700000000000000035e-04,4.000000000000000000e+00,1.900000000000000000e+01
4.594900000000000000e+04,1.800000000000000113e-04,3.299999999999999982e-04,6.900000000000000751e-04,1.149999999999999981e-03,1.049999999999999935e-03,-2.100000000000000087e-04,2.200000000000000078e-04,2.700000000000000035e-04,4.000000000000000000e+00,1.900000000000000000e+01
4.595000000000000000e+04,1.800000000000000113e-04,3.299999999999999982e-04,6.900000000000000751e-04,1.149999999999999981e-03,1.049999999999999935e-03,-2.100000000000000087e-04,2.200000000000000078e-04,2.700000000000000035e-04,4.000000000000000000e+00,1.900000000000000000e+01
4.595100000000000000e+04,1.800000000000000113e-04,3.299999999999999982e-04,6.900000000000000751e-04,1.149999999999999981e-03,1.049999999999999935e-03,-2.100000000000000087e-04,2.200000000000000078e-04,2.700000000000000035e-04,4.000000000000000000e+00,1.900000000000000000e+01
4.595200000000000000e+04,-9.000000000000000567e-05,-4.000000000000000327e-05,2.399999999999999790e-04,6.199999999999999999e-04,9.599999999999999159e-04,-4.000000000000000327e-05,-5.000000000000000240e-05,-2.000000000000000164e-05,4.000000000000000000e+00,1.900000000000000000e+01
4.595300000000000000e+04,-2.900000000000000017e-04,-1.699999999999999851e-04,-3.099999999999999999e-04,-1.280000000000000105e-03,-5.000000000000000104e-04,-2.600000000000000314e-04,-2.700000000000000035e-04,-1.899999999999999834e-04,4.000000000000000000e+00,1.900000000000000000e+01
4.595400000000000000e+04,-2.900000000000000017e-04,-1.699999999999999851e-04,-3.099999999999999999e-04,-1.280000000000000105e-03,-5.000000000000000104e-04,-2.600000000000000314e-04,-2.700000000000000035e-04,-1.899999999999999834e-04,4.000000000000000000e+00,1.900000000000000000e+01
4.595500000000000000e+04,-2.900000000000000017e-04,-1.699999999999999851e-04,-3.099999999999999999e-04,-1.280000000000000105e-03,-5.000000000000000104e-04,-2.600000000000000314e-04,-2.700000000000000035e-04,-1.899999999999999834e-04,4.000000000000000000e+00,1.900000000000000000e+01
4.595600000000000000e+04,-2.900000000000000017e-04,-1.699999999999999851e-04,-3.099999999999999999e-04,-1.280000000000000105e-03,-5.000000000000000104e-04,-2.600000000000000314e-04,-2.700000000000000035e-04,-1.899999999999999834e-04,4.000000000000000000e+00,1.900000000000000000e+01
4.595700000000000000e+04,-2.900000000000000017e-04,-1.699999999999999851e-04,-3.099999999999999999e-04,-1.280000000000000105e-03,-5.000000000000000104e-04,-2.600000000000000314e-04,-2.700000000000000035e-04,-1.899999999999999834e-04,4.000000000000000000e+00,1.900000000000000000e+01
4.595800000000000000e+04,-2.900000000000000017e-04,-1.699999999999999851e-04,-3.099999999999999999e-04,-1.280000000000000105e-03,-5.000000000000000104e-04,-2.600000000000000314e-04,-2.700000000000000035e-04,-1.899999999999999834e-04,4.000000000000000000e+00,1.900000000000000000e+01
4.595900000000000000e+04,-2.900000000000000017e-04,-1.699999999999999851e-04,-3.099999999999999999e-04,-1.280000000000000105e-03,-5.000000000000000104e-04,-2.600000000000000314e-04,-2.700000000000000035e-04,-1.899999999999999834e-04,4.000000000000000000e+00,1.900000000000000000e+01
4.596000000000000000e+04,-2.900000000000000017e-04,-1.699999999999999851e-04,-3.099999999999999999e-04,-1.280000000000000105e-03,-5.000000000000000104e-04,-2.600000000000000314e-04,-2.700000000000000035e-04,-1.899999999999999834e-04,4.000000000000000000e+00,1.900000000000000000e+01
4.596100000000000000e+04,-2.900000000000000017e-04,-1.699999999999999851e-04,-3.099999999999999999e-04,-1.280000000000000105e-03,-5.000000000000000104e-04,-2.600000000000000314e-04,-2.700000000000000035e-04,-1.899999999999999834e-04,4.000000000000000000e+00,1.900000000000000000e+01
4.596200000000000000e+04,-2.900000000000000017e-04,-1.699999999999999851e-04,-3.099999999999999999e-04,-1.280000000000000105e-03,-5.000000000000000104e-04,-2.600000000000000314e-04,-2.700000000000000035e-04,-1.899999999999999834e-04,4.000000000000000000e+00,1.900000000000000000e+01
4.596300000000000000e+04,-2.900000000000000017e-04,-1.699999999999999851e-04,-3.099999999999999999e-04,-1.280000000000000105e-03,-5.000000000000000104e-04,-2.600000000000000314e-04,-2.700000000000000035e-04,-1.899999999999999834e-04,4.000000000000000000e+00,1.900000000000000000e+01
4.596400000000000000e+04,-2.900000000000000017e-04,-1.699999999999999851e-04,-3.099999999999999999e-04,-1.280000000000000105e-03,-5.000000000000000104e-04,-2.600000000000000314e-04,-2.700000000000000035e-04,-1.899999999999999834e-04,4.000000000000000000e+00,1.900000000000000000e+01
4.596500000000000000e+04,-2.900000000000000017e-04,-1.699999999999999851e-04,-3.099999999999999999e-04,-1.280000000000000105e-03,-5.000000000000000104e-04,-2.600000000000000314e-04,-2.700000000000000035e-04,-1.899999999999999834e-04,4.000000000000000000e+00,1.900000000000000000e+01
4.596600000000000000e+04,-2.900000000000000017e-04,-1.699999999999999851e-04,-3.099999999999999999e-04,-1.280000000000000105e-03,-5.000000000000000104e-04,-2.600000000000000314e-04,-2.700000000000000035e-04,-1.899999999999999834e-04,4.000000000000000000e+00,1.900000000000000000e+01
4.596700000000000000e+04,-2.900000000000000017e-04,-1.699999999999999851e-04,-3.099999999999999999e-04,-1.280000000000000105e-03,-5.000000000000000104e-04,-2.600000000000000314e-04,-2.700000000000000035e-04,-1.899999999999999834e-04,4.000000000000000000e+00,1.900000000000000000e+01
4.596800000000000000e+04,-1.899999999999999834e-04,-3.099999999999999999e-04,-3.299999999999999982e-04,-1.069999999999999988e-03,-1.240000000000000000e-03,-2.700000000000000035e-04,-4.899999999999999842e-04,-1.899999999999999834e-04,4.000000000000000000e+00,1.900000000000000000e+01
4.596900000000000000e+04,-1.899999999999999834e-04,-3.099999999999999999e-04,-3.299999999999999982e-04,-1.069999999999999988e-03,-1.240000000000000000e-03,-2.700000000000000035e-04,-4.899999999999999842e-04,-1.899999999999999834e-04,4.000000000000000000e+00,1.900000000000000000e+01
4.597000000000000000e+04,-1.899999999999999834e-04,-3.099999999999999999e-04,-3.299999999999999982e-04,-1.069999999999999988e-03,-1.240000000000000000e-03,-2.700000000000000035e-04,-4.899999999999999842e-04,-1.899999999999999834e-04,4.000000000000000000e+00,1.900000000000000000e+01
4.597100000000000000e+04,-1.899999999999999834e-04,-3.099999999999999999e-04,-3.299999999999999982e-04,-1.069999999999999988e-03,-1.240000000000000000e-03,-2.700000000000000035e-04,-4.899999999999999842e-04,-1.899999999999999834e-04,4.000000000000000000e+00,1.900000000000000000e+01
4.597200000000000000e+04,-1.899999999999999834e-04,-3.099999999999999999e-04,-3.299999999999999982e-04,-1.069999999999999988e-03,-1.240000000000000000e-03,-2.700000000000000035e-04,-4.899999999999999842e-04,-1.899999999999999834e-04,4.000000000000000000e+00,1.900000000000000000e+01
4.597300000000000000e+04,-1.899999999999999834e-04,-3.099999999999999999e-04,-3.299999999999999982e-04,-1.069999999999999988e-03,-1.240000000000000000e-03,-2.700000000000000035e-04,-4.899999999999999842e-04,-1.899999999999999834e-04,4.000000000000000000e+00,1.900000000000000000e+01
4.597400000000000000e+04,-1.899999999999999834e-04,-3.099999999999999999e-04,-3.299999999999999982e-04,-1.069999999999999988e-03,-1.240000000000000000e-03,-2.700000000000000035e-04,-4.899999999999999842e-04,-1.899999999999999834e-04,4.000000000000000000e+00,1.900000000000000000e+01
4.597500000000000000e+04,1.000000000000000082e-05,-5.000000000000000240e-05,2.000000000000000164e-05,-3.399999999999999702e-04,-1.139999999999999954e-03,-5.200000000000000629e-04,0.000000000000000000e+00,-5.000000000000000240e-05,4.000000000000000000e+00,1.900000000000000000e+01
4.597600000000000000e+04,1.000000000000000082e-05,-5.000000000000000240e-05,2.000000000000000164e-05,-3.399999999999999702e-04,-1.139999999999999954e-03,-5.200000000000000629e-04,0.000000000000000000e+00,-5.000000000000000240e-05,4.000000000000000000e+00,1.900000000000000000e+01
4.597700000000000000e+04,1.000000000000000082e-05,-5.000000000000000240e-05,2.000000000000000164e-05,-3.399999999999999702e-04,-1.139999999999999954e-03,-5.200000000000000629e-04,0.000000000000000000e+00,-5.000000000000000240e-05,4.000000000000000000e+00,1.900000000000000000e+01
4.597800000000000000e+04,1.000000000000000082e-05,-5.000000000000000240e-05,2.000000000000000164e-05,-3.399999999999999702e-04,-1.139999999999999954e-03,-5.200000000000000629e-04,0.000000000000000000e+00,-5.000000000000000240e-05,4.000000000000000000e+00,1.900000000000000000e+01
4.597900000000000000e+04,1.000000000000000082e-05,-5.000000000000000240e-05,2.000000000000000164e-05,-3.399999999999999702e-04,-1.139999999999999954e-03,-5.200000000000000629e-04,0.000000000000000000e+00,-5.000000000000000240e-05,4.000000000000000000e+00,1.900000000000000000e+01
4.598000000000000000e+04,1.000000000000000082e-05,-5.000000000000000240e-05,2.000000000000000164e-05,-3.399999999999999702e-04,-1.139999999999999954e-03,-5.200000000000000629e-04,0.000000000000000000e+00,-5.000000000000000240e-05,4.000000000000000000e+00,1.900000000000000000e+01
4.598100000000000000e+04,1.000000000000000082e-05,-5.000000000000000240e-05,2.000000000000000164e-05,-3.399999999999999702e-04,-1.139999999999999954e-03,-5.200000000000000629e-04,0.000000000000000000e+00,-5.000000000000000240e-05,4.000000000000000000e+00,1.900000000000000000e+01
4.598200000000000000e+04,1.000000000000000082e-05,-5.000000000000000240e-05,2.000000000000000164e-05,-3.399999999999999702e-04,-1.139999999999999954e-03,-5.200000000000000629e-04,0.000000000000000000e+00,-5.000000000000000240e-05,4.000000000000000000e+00,1.900000000000000000e+01
4.598300000000000000e+04,1.000000000000000082e-05,-5.000000000000000240e-05,2.000000000000000164e-05,-3.399999999999999702e-04,-1.139999999999999954e-03,-5.200000000000000629e-04,0.000000000000000000e+00,-5.000000000000000240e-05,4.000000000000000000e+00,1.900000000000000000e+01
4.598400000000000000e+04,1.000000000000000082e-05,-5.000000000000000240e-05,2.000000000000000164e-05,-3.399999999999999702e-04,-1.139999999999999954e-03,-5.200000000000000629e-04,0.000000000000000000e+00,-5.000000000000000240e-05,4.000000000000000000e+00,1.900000000000000000e+01
4.598500000000000000e+04,1.000000000000000082e-05,-5.000000000000000240e-05,2.000000000000000164e-05,-3.399999999999999702e-04,-1.139999999999999954e-03,-5.200000000000000629e-04,0.000000000000000000e+00,-5.000000000000000240e-05,4.000000000000000000e+00,1.900000000000000000e+01
4.598700000000000000e+04,1.000000000000000082e-05,-5.000000000000000240e-05,2.000000000000000164e-05,-3.399999999999999702e-04,-1.139999999999999954e-03,-5.200000000000000629e-04,0.000000000000000000e+00,-5.000000000000000240e-05,4.000000000000000000e+00,1.900000000000000000e+01
4.599000000000000000e+04,-1.699999999999999851e-04,-6.999999999999999387e-05,-1.600000000000000131e-04,8.000000000000000654e-05,-2.200000000000000078e-04,6.999999999999999929e-04,-3.299999999999999982e-04,-2.000000000000000096e-04,4.000000000000000000e+00,1.900000000000000000e+01
4.599100000000000000e+04,-1.699999999999999851e-04,-6.999999999999999387e-05,-1.600000000000000131e-04,8.000000000000000654e-05,-2.200000000000000078e-04,6.999999999999999929e-04,-3.299999999999999982e-04,-2.000000000000000096e-04,4.000000000000000000e+00,1.900000000000000000e+01
4.599200000000000000e+04,-1.699999999999999851e-04,-6.999999999999999387e-05,-1.600000000000000131e-04,8.000000000000000654e-05,-2.200000000000000078e-04,6.999999999999999929e-04,-3.299999999999999982e-04,-2.000000000000000096e-04,4.000000000000000000e+00,1.900000000000000000e+01
4.599300000000000000e+04,-1.699999999999999851e-04,-6.999999999999999387e-05,-1.600000000000000131e-04,8.000000000000000654e-05,-2.200000000000000078e-04,6.999999999999999929e-04,-3.299999999999999982e-04,-2.000000000000000096e-04,4.000000000000000000e+00,1.900000000000000000e+01
4.599400000000000000e+04,-1.699999999999999851e-04,-6.999999999999999387e-05,-1.600000000000000131e-04,8.000000000000000654e-05,-2.200000000000000078e-04,6.999999999999999929e-04,-3.299999999999999982e-04,-2.000000000000000096e-04,4.000000000000000000e+00,1.900000000000000000e+01
4.599500000000000000e+04,-1.699999999999999851e-04,-6.999999999999999387e-05,-1.600000000000000131e-04,8.000000000000000654e-05,-2.200000000000000078e-04,6.999999999999999929e-04,-3.299999999999999982e-04,-2.000000000000000096e-04,4.000000000000000000e+00,1.900000000000000000e+01
4.599600000000000000e+04,-1.699999999999999851e-04,-6.999999999999999387e-05,-1.600000000000000131e-04,8.000000000000000654e-05,-2.200000000000000078e-04,6.999999999999999929e-04,-3.299999999999999982e-04,-2.000000000000000096e-04,4.000000000000000000e+00,1.900000000000000000e+01
4.599700000000000000e+04,-1.699999999999999851e-04,-6.999999999999999387e-05,-1.600000000000000131e-04,8.000000000000000654e-05,-2.200000000000000078e-04,6.999999999999999929e-04,-3.299999999999999982e-04,-2.000000000000000096e-04,4.000000000000000000e+00,1.900000000000000000e+01
4.599800000000000000e+04,-1.699999999999999851e-04,-6.999999999999999387e-05,-1.600000000000000131e-04,8.000000000000000654e-05,-2.200000000000000078e-04,6.999999999999999929e-04,-3.299999999999999982e-04,-2.000000000000000096e-04,4.000000000000000000e+00,1.900000000000000000e+01
4.599900000000000000e+04,-1.699999999999999851e-04,-6.999999999999999387e-05,-1.600000000000000131e-04,8.000000000000000654e-05,-2.200000000000000078e-04,6.999999999999999929e-04,-3.299999999999999982e-04,-2.000000000000000096e-04,4.000000000000000000e+00,1.900000000000000000e+01
4.600000000000000000e+04,-1.699999999999999851e-04,-6.999999999999999387e-05,-1.600000000000000131e-04,8.000000000000000654e-05,-2.200000000000000078e-04,6.999999999999999929e-04,-3.299999999999999982e-04,-2.000000000000000096e-04,4.000000000000000000e+00,1.900000000000000000e+01
4.600100000000000000e+04,-1.699999999999999851e-04,-6.999999999999999387e-05,-1.600000000000000131e-04,8.000000000000000654e-05,-2.200000000000000078e-04,6.999999999999999929e-04,-3.299999999999999982e-04,-2.000000000000000096e-04,4.000000000000000000e+00,1.900000000000000000e+01
4.600200000000000000e+04,-1.699999999999999851e-04,-6.999999999999999387e-05,-1.600000000000000131e-04,8.000000000000000654e-05,-2.200000000000000078e-04,6.999999999999999929e-04,-3.299999999999999982e-04,-2.000000000000000096e-04,4.000000000000000000e+00,1.900000000000000000e+01
4.600300000000000000e+04,-1.699999999999999851e-04,-6.999999999999999387e-05,-1.600000000000000131e-04,8.000000000000000654e-05,-2.200000000000000078e-04,6.999999999999999929e-04,-3.299999999999999982e-04,-2.000000000000000096e-04,4.000000000000000000e+00,1.900000000000000000e+01
4.600400000000000000e+04,-1.699999999999999851e-04,-6.999999999999999387e-05,-1.600000000000000131e-04,8.000000000000000654e-05,-2.200000000000000078e-04,6.999999999999999929e-04,-3.299999999999999982e-04,-2.000000000000000096e-04,4.000000000000000000e+00,1.900000000000000000e+01
4.600500000000000000e+04,-1.699999999999999851e-04,-6.999999999999999387e-05,-1.600000000000000131e-04,8.000000000000000654e-05,-2.200000000000000078e-04,6.999999999999999929e-04,-3.299999999999999982e-04,-2.000000000000000096e-04,4.000000000000000000e+00,1.900000000000000000e+01
4.600600000000000000e+04,-1.699999999999999851e-04,-6.999999999999999387e-05,-1.600000000000000131e-04,8.000000000000000654e-05,-2.200000000000000078e-04,6.999999999999999929e-04,-3.299999999999999982e-04,-2.000000000000000096e-04,4.000000000000000000e+00,1.900000000000000000e+01
4.600700000000000000e+04,-1.699999999999999851e-04,-6.999999999999999387e-05,-1.600000000000000131e-04,8.000000000000000654e-05,-2.200000000000000078e-04,6.999999999999999929e-04,-3.299999999999999982e-04,-2.000000000000000096e-04,4.000000000000000000e+00,1.900000000000000000e+01
4.600800000000000000e+04,-1.699999999999999851e-04,-6.999999999999999387e-05,-1.600000000000000131e-04,8.000000000000000654e-05,-2.200000000000000078e-04,6.999999999999999929e-04,-3.299999999999999982e-04,-2.000000000000000096e-04,4.000000000000000000e+00,1.900000000000000000e+01
4.600900000000000000e+04,-1.699999999999999851e-04,-6.999999999999999387e-05,-1.600000000000000131e-04,8.000000000000000654e-05,-2.200000000000000078e-04,6.999999999999999929e-04,-3.299999999999999982e-04,-2.000000000000000096e-04,4.000000000000000000e+00,1.900000000000000000e+01
4.601000000000000000e+04,-1.699999999999999851e-04,-6.999999999999999387e-05,-1.600000000000000131e-04,8.000000000000000654e-05,-2.200000000000000078e-04,6.999999999999999929e-04,-3.299999999999999982e-04,-2.000000000000000096e-04,4.000000000000000000e+00,1.900000000000000000e+01
4.601100000000000000e+04,-1.699999999999999851e-04,-6.999999999999999387e-05,-1.600000000000000131e-04,8.000000000000000654e-05,-2.200000000000000078e-04,6.999999999999999929e-04,-3.299999999999999982e-04,-2.000000000000000096e-04,4.000000000000000000e+00,1.900000000000000000e+01
4.601200000000000000e+04,-1.199999999999999895e-04,-1.000000000000000048e-04,-1.000000000000000082e-05,-2.299999999999999799e-04,-8.199999999999999824e-04,-1.170000000000000033e-03,-2.299999999999999799e-04,-1.199999999999999895e-04,4.000000000000000000e+00,1.900000000000000000e+01
4.601300000000000000e+04,0.000000000000000000e+00,1.300000000000000157e-04,5.299999999999999807e-04,8.000000000000000383e-04,-5.500000000000000331e-04,-2.999999999999999737e-04,-1.800000000000000113e-04,-5.999999999999999474e-05,4.000000000000000000e+00,1.900000000000000000e+01
4.601400000000000000e+04,0.000000000000000000e+00,1.300000000000000157e-04,5.299999999999999807e-04,8.000000000000000383e-04,-5.500000000000000331e-04,-2.999999999999999737e-04,-1.800000000000000113e-04,-5.999999999999999474e-05,4.000000000000000000e+00,1.900000000000000000e+01
4.601500000000000000e+04,0.000000000000000000e+00,1.300000000000000157e-04,5.299999999999999807e-04,8.000000000000000383e-04,-5.500000000000000331e-04,-2.999999999999999737e-04,-1.800000000000000113e-04,-5.999999999999999474e-05,4.000000000000000000e+00,1.900000000000000000e+01
4.601600000000000000e+04,0.000000000000000000e+00,1.300000000000000157e-04,5.299999999999999807e-04,8.000000000000000383e-04,-5.500000000000000331e-04,-2.999999999999999737e-04,-1.800000000000000113e-04,-5.999999999999999474e-05,4.000000000000000000e+00,1.900000000000000000e+01
4.601700000000000000e+04,0.000000000000000000e+00,1.300000000000000157e-04,5.299999999999999807e-04,8.000000000000000383e-04,-5.500000000000000331e-04,-2.999999999999999737e-04,-1.800000000000000113e-04,-5.999999999999999474e-05,4.000000000000000000e+00,1.900000000000000000e+01
4.601800000000000000e+04,0.000000000000000000e+00,1.300000000000000157e-04,5.299999999999999807e-04,8.000000000000000383e-04,-5.500000000000000331e-04,-2.999999999999999737e-04,-1.800000000000000113e-04,-5.999999999999999474e-05,4.000000000000000000e+00,1.900000000000000000e+01
4.601900000000000000e+04,0.000000000000000000e+00,1.300000000000000157e-04,5.299999999999999807e-04,8.000000000000000383e-04,-5.500000000000000331e-04,-2.999999999999999737e-04,-1.800000000000000113e-04,-5.999999999999999474e-05,4.000000000000000000e+00,1.900000000000000000e+01
4.602000000000000000e+04,0.000000000000000000e+00,1.300000000000000157e-04,5.299999999999999807e-04,8.000000000000000383e-04,-5.500000000000000331e-04,-2.999999999999999737e-04,-1.800000000000000113e-04,-5.999999999999999474e-05,4.000000000000000000e+00,1.900000000000000000e+01
4.602100000000000000e+04,0.000000000000000000e+00,1.300000000000000157e-04,5.299999999999999807e-04,8.000000000000000383e-04,-5.500000000000000331e-04,-2.999999999999999737e-04,-1.800000000000000113e-04,-5.999999999999999474e-05,4.000000000000000000e+00,1.900000000000000000e+01
4.602200000000000000e+04,0.000000000000000000e+00,1.300000000000000157e-04,5.299999999999999807e-04,8.000000000000000383e-04,-5.500000000000000331e-04,-2.999999999999999737e-04,-1.800000000000000113e-04,-5.999999999999999474e-05,4.000000000000000000e+00,1.900000000000000000e+01
4.602300000000000000e+04,0.000000000000000000e+00,1.300000000000000157e-04,5.299999999999999807e-04,8.000000000000000383e-04,-5.500000000000000331e-04,-2.999999999999999737e-04,-1.800000000000000113e-04,-5.999999999999999474e-05,4.000000000000000000e+00,1.900000000000000000e+01
4.602400000000000000e+04,0.000000000000000000e+00,1.300000000000000157e-04,5.299999999999999807e-04,8.000000000000000383e-04,-5.500000000000000331e-04,-2.999999999999999737e-04,-1.800000000000000113e-04,-5.999999999999999474e-05,4.000000000000000000e+00,1.900000000000000000e+01
4.602500000000000000e+04,0.000000000000000000e+00,1.300000000000000157e-04,5.299999999999999807e-04,8.000000000000000383e-04,-5.500000000000000331e-04,-2.999999999999999737e-04,-1.800000000000000113e-04,-5.999999999999999474e-05,4.000000000000000000e+00,1.900000000000000000e+01
4.602600000000000000e+04,0.000000000000000000e+00,1.300000000000000157e-04,5.299999999999999807e-04,8.000000000000000383e-04,-5.500000000000000331e-04,-2.999999999999999737e-04,-1.800000000000000113e-04,-5.999999999999999474e-05,4.000000000000000000e+00,1.900000000000000000e+01
4.602700000000000000e+04,3.499999999999999964e-04,5.599999999999999509e-04,8.199999999999999824e-04,7.200000000000000453e-04,-3.099999999999999999e-04,1.040000000000000126e-03,5.000000000000000104e-04,2.900000000000000017e-04,4.000000000000000000e+00,1.900000000000000000e+01
4.602800000000000000e+04,-5.999999999999999474e-05,4.000000000000000327e-05,8.000000000000000654e-05,-2.999999999999999737e-04,-1.030000000000000100e-03,-7.799999999999999859e-04,-2.700000000000000035e-04,-1.399999999999999877e-04,4.000000000000000000e+00,1.900000000000000000e+01
4.602900000000000000e+04,-5.999999999999999474e-05,4.000000000000000327e-05,8.000000000000000654e-05,-2.999999999999999737e-04,-1.030000000000000100e-03,-7.799999999999999859e-04,-2.700000000000000035e-04,-1.399999999999999877e-04,4.000000000000000000e+00,1.900000000000000000e+01
4.603000000000000000e+04,-5.999999999999999474e-05,4.000000000000000327e-05,8.000000000000000654e-05,-2.999999999999999737e-04,-1.030000000000000100e-03,-7.799999999999999859e-04,-2.700000000000000035e-04,-1.399999999999999877e-04,4.000000000000000000e+00,1.900000000000000000e+01
4.603100000000000000e+04,-5.999999999999999474e-05,4.000000000000000327e-05,8.000000000000000654e-05,-2.999999999999999737e-04,-1.030000000000000100e-03,-7.799999999999999859e-04,-2.700000000000000035e-04,-1.399999999999999877e-04,4.000000000000000000e+00,1.900000000000000000e+01
4.603200000000000000e+04,-5.999999999999999474e-05,4.000000000000000327e-05,8.000000000000000654e-05,-2.999999999999999737e-04,-1.030000000000000100e-03,-7.799999999999999859e-04,-2.700000000000000035e-04,-1.399999999999999877e-04,4.000000000000000000e+00,1.900000000000000000e+01
4.603300000000000000e+04,-5.999999999999999474e-05,4.000000000000000327e-05,8.000000000000000654e-05,-2.999999999999999737e-04,-1.030000000000000100e-03,-7.799999999999999859e-04,-2.700000000000000035e-04,-1.399999999999999877e-04,4.000000000000000000e+00,1.900000000000000000e+01
4.603400000000000000e+04,-5.999999999999999474e-05,4.000000000000000327e-05,8.000000000000000654e-05,-2.999999999999999737e-04,-1.030000000000000100e-03,-7.799999999999999859e-04,-2.700000000000000035e-04,-1.399999999999999877e-04,4.000000000000000000e+00,1.900000000000000000e+01
4.603500000000000000e+04,-5.999999999999999474e-05,4.000000000000000327e-05,8.000000000000000654e-05,-2.999999999999999737e-04,-1.030000000000000100e-03,-7.799999999999999859e-04,-2.700000000000000035e-04,-1.399999999999999877e-04,4.000000000000000000e+00,1.900000000000000000e+01
4.603600000000000000e+04,-5.999999999999999474e-05,4.000000000000000327e-05,8.000000000000000654e-05,-2.999999999999999737e-04,-1.030000000000000100e-03,-7.799999999999999859e-04,-2.700000000000000035e-04,-1.399999999999999877e-04,4.000000000000000000e+00,1.900000000000000000e+01
4.603900000000000000e+04,-5.999999999999999474e-05,4.000000000000000327e-05,8.000000000000000654e-05,-2.999999999999999737e-04,-1.030000000000000100e-03,-7.799999999999999859e-04,-2.700000000000000035e-04,-1.399999999999999877e-04,4.000000000000000000e+00,1.900000000000000000e+01
4.604000000000000000e+04,-5.999999999999999474e-05,4.000000000000000327e-05,8.000000000000000654e-05,-2.999999999999999737e-04,-1.030000000000000100e-03,-7.799999999999999859e-04,-2.700000000000000035e-04,-1.399999999999999877e-04,4.000000000000000000e+00,1.900000000000000000e+01
4.604100000000000000e+04,-5.999999999999999474e-05,4.000000000000000327e-05,8.000000000000000654e-05,-2.999999999999999737e-04,-1.030000000000000100e-03,-7.799999999999999859e-04,-2.700000000000000035e-04,-1.399999999999999877e-04,4.000000000000000000e+00,1.900000000000000000e+01
4.604200000000000000e+04,-5.999999999999999474e-05,4.000000000000000327e-05,8.000000000000000654e-05,-2.999999999999999737e-04,-1.030000000000000100e-03,-7.799999999999999859e-04,-2.700000000000000035e-04,-1.399999999999999877e-04,4.000000000000000000e+00,1.900000000000000000e+01
4.604300000000000000e+04,-5.999999999999999474e-05,4.000000000000000327e-05,8.000000000000000654e-05,-2.999999999999999737e-04,-1.030000000000000100e-03,-7.799999999999999859e-04,-2.700000000000000035e-04,-1.399999999999999877e-04,4.000000000000000000e+00,1.900000000000000000e+01
4.604400000000000000e+04,-5.999999999999999474e-05,4.000000000000000327e-05,8.000000000000000654e-05,-2.999999999999999737e-04,-1.030000000000000100e-03,-7.799999999999999859e-04,-2.700000000000000035e-04,-1.399999999999999877e-04,4.000000000000000000e+00,1.900000000000000000e+01
4.604500000000000000e+04,-5.999999999999999474e-05,4.000000000000000327e-05,8.000000000000000654e-05,-2.999999999999999737e-04,-1.030000000000000100e-03,-7.799999999999999859e-04,-2.700000000000000035e-04,-1.399999999999999877e-04,4.000000000000000000e+00,1.900000000000000000e+01
4.604600000000000000e+04,-5.999999999999999474e-05,4.000000000000000327e-05,8.000000000000000654e-05,-2.999999999999999737e-04,-1.030000000000000100e-03,-7.799999999999999859e-04,-2.700000000000000035e-04,-1.399999999999999877e-04,4.000000000000000000e+00,1.900000000000000000e+01
4.604700000000000000e+04,-5.999999999999999474e-05,4.000000000000000327e-05,8.000000000000000654e-05,-2.999999999999999737e-04,-1.030000000000000100e-03,-7.799999999999999859e-04,-2.700000000000000035e-04,-1.399999999999999877e-04,4.000000000000000000e+00,1.900000000000000000e+01
4.604800000000000000e+04,-5.999999999999999474e-05,4.000000000000000327e-05,8.000000000000000654e-05,-2.999999999999999737e-04,-1.030000000000000100e-03,-7.799999999999999859e-04,-2.700000000000000035e-04,-1.399999999999999877e-04,4.000000000000000000e+00,1.900000000000000000e+01
4.604900000000000000e+04,-5.999999999999999474e-05,4.000000000000000327e-05,8.000000000000000654e-05,-2.999999999999999737e-04,-1.030000000000000100e-03,-7.799999999999999859e-04,-2.700000000000000035e-04,-1.399999999999999877e-04,4.000000000000000000e+00,1.900000000000000000e+01
4.605000000000000000e+04,-2.000000000000000164e-05,-1.600000000000000131e-04,-2.799999999999999755e-04,-5.299999999999999807e-04,-7.500000000000000156e-04,-4.400000000000000157e-04,2.000000000000000164e-05,0.000000000000000000e+00,4.000000000000000000e+00,1.900000000000000000e+01
4.605100000000000000e+04,-2.000000000000000164e-05,-1.600000000000000131e-04,-2.799999999999999755e-04,-5.299999999999999807e-04,-7.500000000000000156e-04,-4.400000000000000157e-04,2.000000000000000164e-05,0.000000000000000000e+00,4.000000000000000000e+00,1.900000000000000000e+01
4.605200000000000000e+04,-2.000000000000000164e-05,-1.600000000000000131e-04,-2.799999999999999755e-04,-5.299999999999999807e-04,-7.500000000000000156e-04,-4.400000000000000157e-04,2.000000000000000164e-05,0.000000000000000000e+00,4.000000000000000000e+00,1.900000000000000000e+01
4.605300000000000000e+04,-2.000000000000000164e-05,-1.600000000000000131e-04,-2.799999999999999755e-04,-5.299999999999999807e-04,-7.500000000000000156e-04,-4.400000000000000157e-04,2.000000000000000164e-05,0.000000000000000000e+00,4.000000000000000000e+00,1.900000000000000000e+01
4.605400000000000000e+04,-2.000000000000000164e-05,-1.600000000000000131e-04,-2.799999999999999755e-04,-5.299999999999999807e-04,-7.500000000000000156e-04,-4.400000000000000157e-04,2.000000000000000164e-05,0.000000000000000000e+00,4.000000000000000000e+00,1.900000000000000000e+01
4.605500000000000000e+04,-2.000000000000000164e-05,-1.600000000000000131e-04,-2.799999999999999755e-04,-5.299999999999999807e-04,-7.500000000000000156e-04,-4.400000000000000157e-04,2.000000000000000164e-05,0.000000000000000000e+00,4.000000000000000000e+00,1.900000000000000000e+01
4.605600000000000000e+04,-2.000000000000000164e-05,-1.600000000000000131e-04,-2.799999999999999755e-04,-5.299999999999999807e-04,-7.500000000000000156e-04,-4.400000000000000157e-04,2.000000000000000164e-05,0.000000000000000000e+00,4.000000000000000000e+00,1.900000000000000000e+01
4.605700000000000000e+04,-2.000000000000000164e-05,-1.600000000000000131e-04,-2.799999999999999755e-04,-5.299999999999999807e-04,-7.500000000000000156e-04,-4.400000000000000157e-04,2.000000000000000164e-05,0.000000000000000000e+00,4.000000000000000000e+00,1.900000000000000000e+01
4.605800000000000000e+04,-2.000000000000000164e-05,-1.600000000000000131e-04,-2.799999999999999755e-04,-5.299999999999999807e-04,-7.500000000000000156e-04,-4.400000000000000157e-04,2.000000000000000164e-05,0.000000000000000000e+00,4.000000000000000000e+00,1.900000000000000000e+01
4.605900000000000000e+04,-2.000000000000000164e-05,-1.600000000000000131e-04,-2.799999999999999755e-04,-5.299999999999999807e-04,-7.500000000000000156e-04,-4.400000000000000157e-04,2.000000000000000164e-05,0.000000000000000000e+00,4.000000000000000000e+00,1.900000000000000000e+01
4.606000000000000000e+04,-2.000000000000000164e-05,-1.600000000000000131e-04,-2.799999999999999755e-04,-5.299999999999999807e-04,-7.500000000000000156e-04,-4.400000000000000157e-04,2.000000000000000164e-05,0.000000000000000000e+00,4.000000000000000000e+00,1.900000000000000000e+01
4.606100000000000000e+04,-2.000000000000000164e-05,-1.600000000000000131e-04,-2.799999999999999755e-04,-5.299999999999999807e-04,-7.500000000000000156e-04,-4.400000000000000157e-04,2.000000000000000164e-05,0.000000000000000000e+00,4.000000000000000000e+00,1.900000000000000000e+01
4.606200000000000000e+04,-2.000000000000000164e-05,-1.600000000000000131e-04,-2.799999999999999755e-04,-5.299999999999999807e-04,-7.500000000000000156e-04,-4.400000000000000157e-04,2.000000000000000164e-05,0.000000000000000000e+00,4.000000000000000000e+00,1.900000000000000000e+01
4.606300000000000000e+04,-2.000000000000000164e-05,-1.600000000000000131e-04,-2.799999999999999755e-04,-5.299999999999999807e-04,-7.500000000000000156e-04,-4.400000000000000157e-04,2.000000000000000164e-05,0.000000000000000000e+00,4.000000000000000000e+00,1.900000000000000000e+01
4.606400000000000000e+04,-2.000000000000000164e-05,-1.600000000000000131e-04,-2.799999999999999755e-04,-5.299999999999999807e-04,-7.500000000000000156e-04,-4.400000000000000157e-04,2.000000000000000164e-05,0.000000000000000000e+00,4.000000000000000000e+00,1.900000000000000000e+01
4.606500000000000000e+04,-2.000000000000000164e-05,-1.600000000000000131e-04,-2.799999999999999755e-04,-5.299999999999999807e-04,-7.500000000000000156e-04,-4.400000000000000157e-04,2.000000000000000164e-05,0.000000000000000000e+00,4.000000000000000000e+00,1.900000000000000000e+01
4.606600000000000000e+04,-2.000000000000000164e-05,-1.600000000000000131e-04,-2.799999999999999755e-04,-5.299999999999999807e-04,-7.500000000000000156e-04,-4.400000000000000157e-04,2.000000000000000164e-05,0.000000000000000000e+00,4.000000000000000000e+00,1.900000000000000000e+01
4.606700000000000000e+04,-2.000000000000000164e-05,-1.600000000000000131e-04,-2.799999999999999755e-04,-5.299999999999999807e-04,-7.500000000000000156e-04,-4.400000000000000157e-04,2.000000000000000164e-05,0.000000000000000000e+00,4.000000000000000000e+00,1.900000000000000000e+01
4.606800000000000000e+04,-2.000000000000000164e-05,-1.600000000000000131e-04,-2.799999999999999755e-04,-5.299999999999999807e-04,-7.500000000000000156e-04,-4.400000000000000157e-04,2.000000000000000164e-05,0.000000000000000000e+00,4.000000000000000000e+00,1.900000000000000000e+01
4.606900000000000000e+04,-2.000000000000000164e-05,-1.600000000000000131e-04,-2.799999999999999755e-04,-5.299999999999999807e-04,-7.500000000000000156e-04,-4.400000000000000157e-04,2.000000000000000164e-05,0.000000000000000000e+00,4.000000000000000000e+00,1.900000000000000000e+01
4.607000000000000000e+04,-2.000000000000000164e-05,-1.600000000000000131e-04,-2.799999999999999755e-04,-5.299999999999999807e-04,-7.500000000000000156e-04,-4.400000000000000157e-04,2.000000000000000164e-05,0.000000000000000000e+00,4.000000000000000000e+00,1.900000000000000000e+01
4.607100000000000000e+04,-2.000000000000000164e-05,-1.600000000000000131e-04,-2.799999999999999755e-04,-5.299999999999999807e-04,-7.500000000000000156e-04,-4.400000000000000157e-04,2.000000000000000164e-05,0.000000000000000000e+00,4.000000000000000000e+00,1.900000000000000000e+01
4.607200000000000000e+04,-1.199999999999999895e-04,-2.000000000000000096e-04,-7.200000000000000453e-04,-7.399999999999999894e-04,-5.699999999999999772e-04,-8.000000000000000654e-05,2.999999999999999737e-05,-1.199999999999999895e-04,4.000000000000000000e+00,1.900000000000000000e+01
4.607300000000000000e+04,-1.100000000000000039e-04,-1.800000000000000113e-04,-2.799999999999999755e-04,-6.599999999999999964e-04,-5.400000000000000069e-04,1.699999999999999851e-04,-5.000000000000000240e-05,-5.000000000000000240e-05,4.000000000000000000e+00,1.900000000000000000e+01
4.607400000000000000e+04,-1.100000000000000039e-04,-1.800000000000000113e-04,-2.799999999999999755e-04,-6.599999999999999964e-04,-5.400000000000000069e-04,1.699999999999999851e-04,-5.000000000000000240e-05,-5.000000000000000240e-05,4.000000000000000000e+00,1.900000000000000000e+01
4.607500000000000000e+04,-1.100000000000000039e-04,-1.800000000000000113e-04,-2.799999999999999755e-04,-6.599999999999999964e-04,-5.400000000000000069e-04,1.699999999999999851e-04,-5.000000000000000240e-05,-5.000000000000000240e-05,4.000000000000000000e+00,1.900000000000000000e+01
4.607600000000000000e+04,-1.100000000000000039e-04,-1.800000000000000113e-04,-2.799999999999999755e-04,-6.599999999999999964e-04,-5.400000000000000069e-04,1.699999999999999851e-04,-5.000000000000000240e-05,-5.000000000000000240e-05,4.000000000000000000e+00,1.900000000000000000e+01
4.607700000000000000e+04,-1.100000000000000039e-04,-1.800000000000000113e-04,-2.799999999999999755e-04,-6.599999999999999964e-04,-5.400000000000000069e-04,1.699999999999999851e-04,-5.000000000000000240e-05,-5.000000000000000240e-05,4.000000000000000000e+00,1.900000000000000000e+01
4.607800000000000000e+04,-1.100000000000000039e-04,-1.800000000000000113e-04,-2.799999999999999755e-04,-6.599999999999999964e-04,-5.400000000000000069e-04,1.699999999999999851e-04,-5.000000000000000240e-05,-5.000000000000000240e-05,4.000000000000000000e+00,1.900000000000000000e+01
4.607900000000000000e+04,-1.100000000000000039e-04,-1.800000000000000113e-04,-2.799999999999999755e-04,-6.599999999999999964e-04,-5.400000000000000069e-04,1.699999999999999851e-04,-5.000000000000000240e-05,-5.000000000000000240e-05,4.000000000000000000e+00,1.900000000000000000e+01
4.608000000000000000e+04,-1.100000000000000039e-04,-1.800000000000000113e-04,-2.799999999999999755e-04,-6.599999999999999964e-04,-5.400000000000000069e-04,1.699999999999999851e-04,-5.000000000000000240e-05,-5.000000000000000240e-05,4.000000000000000000e+00,1.900000000000000000e+01
4.608100000000000000e+04,-1.100000000000000039e-04,-1.800000000000000113e-04,-2.799999999999999755e-04,-6.599999999999999964e-04,-5.400000000000000069e-04,1.699999999999999851e-04,-5.000000000000000240e-05,-5.000000000000000240e-05,4.000000000000000000e+00,1.900000000000000000e+01
4.608200000000000000e+04,-1.100000000000000039e-04,-1.800000000000000113e-04,-2.799999999999999755e-04,-6.599999999999999964e-04,-5.400000000000000069e-04,1.699999999999999851e-04,-5.000000000000000240e-05,-5.000000000000000240e-05,4.000000000000000000e+00,1.900000000000000000e+01
4.608300000000000000e+04,-1.100000000000000039e-04,-1.800000000000000113e-04,-2.799999999999999755e-04,-6.599999999999999964e-04,-5.400000000000000069e-04,1.699999999999999851e-04,-5.000000000000000240e-05,-5.000000000000000240e-05,4.000000000000000000e+00,1.900000000000000000e+01
4.608400000000000000e+04,-1.100000000000000039e-04,-1.800000000000000113e-04,-2.799999999999999755e-04,-6.599999999999999964e-04,-5.400000000000000069e-04,1.699999999999999851e-04,-5.000000000000000240e-05,-5.000000000000000240e-05,4.000000000000000000e+00,1.900000000000000000e+01
4.608500000000000000e+04,-1.100000000000000039e-04,-1.800000000000000113e-04,-2.799999999999999755e-04,-6.599999999999999964e-04,-5.400000000000000069e-04,1.699999999999999851e-04,-5.000000000000000240e-05,-5.000000000000000240e-05,4.000000000000000000e+00,1.900000000000000000e+01
4.608800000000000000e+04,-1.300000000000000157e-04,-1.499999999999999869e-04,-3.399999999999999702e-04,-6.799999999999999404e-04,-6.400000000000000524e-04,1.300000000000000157e-04,-2.299999999999999799e-04,-1.499999999999999869e-04,4.000000000000000000e+00,1.900000000000000000e+01
4.609100000000000000e+04,-1.300000000000000157e-04,-1.499999999999999869e-04,-3.399999999999999702e-04,-6.799999999999999404e-04,-6.400000000000000524e-04,1.300000000000000157e-04,-2.299999999999999799e-04,-1.499999999999999869e-04,4.000000000000000000e+00,1.900000000000000000e+01
4.609200000000000000e+04,-1.300000000000000157e-04,-1.499999999999999869e-04,-3.399999999999999702e-04,-6.799999999999999404e-04,-6.400000000000000524e-04,1.300000000000000157e-04,-2.299999999999999799e-04,-1.499999999999999869e-04,4.000000000000000000e+00,1.900000000000000000e+01
4.609300000000000000e+04,-1.300000000000000157e-04,-1.499999999999999869e-04,-3.399999999999999702e-04,-6.799999999999999404e-04,-6.400000000000000524e-04,1.300000000000000157e-04,-2.299999999999999799e-04,-1.499999999999999869e-04,4.000000000000000000e+00,1.900000000000000000e+01
4.609400000000000000e+04,-1.300000000000000157e-04,-1.499999999999999869e-04,-3.399999999999999702e-04,-6.799999999999999404e-04,-6.400000000000000524e-04,1.300000000000000157e-04,-2.299999999999999799e-04,-1.499999999999999869e-04,4.000000000000000000e+00,1.900000000000000000e+01
4.609500000000000000e+04,-1.300000000000000157e-04,-1.499999999999999869e-04,-3.399999999999999702e-04,-6.799999999999999404e-04,-6.400000000000000524e-04,1.300000000000000157e-04,-2.299999999999999799e-04,-1.499999999999999869e-04,4.000000000000000000e+00,1.900000000000000000e+01
4.609600000000000000e+04,-1.300000000000000157e-04,-1.499999999999999869e-04,-3.399999999999999702e-04,-6.799999999999999404e-04,-6.400000000000000524e-04,1.300000000000000157e-04,-2.299999999999999799e-04,-1.499999999999999869e-04,4.000000000000000000e+00,1.900000000000000000e+01
4.609700000000000000e+04,-1.300000000000000157e-04,-1.499999999999999869e-04,-3.399999999999999702e-04,-6.799999999999999404e-04,-6.400000000000000524e-04,1.300000000000000157e-04,-2.299999999999999799e-04,-1.499999999999999869e-04,4.000000000000000000e+00,1.900000000000000000e+01
4.609800000000000000e+04,-1.300000000000000157e-04,-1.499999999999999869e-04,-3.399999999999999702e-04,-6.799999999999999404e-04,-6.400000000000000524e-04,1.300000000000000157e-04,-2.299999999999999799e-04,-1.499999999999999869e-04,4.000000000000000000e+00,1.900000000000000000e+01
4.609900000000000000e+04,-1.300000000000000157e-04,-1.499999999999999869e-04,-3.399999999999999702e-04,-6.799999999999999404e-04,-6.400000000000000524e-04,1.300000000000000157e-04,-2.299999999999999799e-04,-1.499999999999999869e-04,4.000000000000000000e+00,1.900000000000000000e+01
4.610000000000000000e+04,-1.300000000000000157e-04,-1.499999999999999869e-04,-3.399999999999999702e-04,-6.799999999999999404e-04,-6.400000000000000524e-04,1.300000000000000157e-04,-2.299999999999999799e-04,-1.499999999999999869e-04,4.000000000000000000e+00,1.900000000000000000e+01
4.610100000000000000e+04,-1.300000000000000157e-04,-1.499999999999999869e-04,-3.399999999999999702e-04,-6.799999999999999404e-04,-6.400000000000000524e-04,1.300000000000000157e-04,-2.299999999999999799e-04,-1.499999999999999869e-04,4.000000000000000000e+00,1.900000000000000000e+01
4.610200000000000000e+04,-1.300000000000000157e-04,-1.499999999999999869e-04,-3.399999999999999702e-04,-6.799999999999999404e-04,-6.400000000000000524e-04,1.300000000000000157e-04,-2.299999999999999799e-04,-1.499999999999999869e-04,4.000000000000000000e+00,1.900000000000000000e+01
4.610300000000000000e+04,-1.300000000000000157e-04,-1.499999999999999869e-04,-3.399999999999999702e-04,-6.799999999999999404e-04,-6.400000000000000524e-04,1.300000000000000157e-04,-2.299999999999999799e-04,-1.499999999999999869e-04,4.000000000000000000e+00,1.900000000000000000e+01
4.610400000000000000e+04,-1.300000000000000157e-04,-1.499999999999999869e-04,-3.399999999999999702e-04,-6.799999999999999404e-04,-6.400000000000000524e-04,1.300000000000000157e-04,-2.299999999999999799e-04,-1.499999999999999869e-04,4.000000000000000000e+00,1.900000000000000000e+01
4.610500000000000000e+04,-1.300000000000000157e-04,-1.499999999999999869e-04,-3.399999999999999702e-04,-6.799999999999999404e-04,-6.400000000000000524e-04,1.300000000000000157e-04,-2.299999999999999799e-04,-1.499999999999999869e-04,4.000000000000000000e+00,1.900000000000000000e+01
4.610600000000000000e+04,-1.300000000000000157e-04,-1.499999999999999869e-04,-3.399999999999999702e-04,-6.799999999999999404e-04,-6.400000000000000524e-04,1.300000000000000157e-04,-2.299999999999999799e-04,-1.499999999999999869e-04,4.000000000000000000e+00,1.900000000000000000e+01
4.610700000000000000e+04,-1.300000000000000157e-04,-1.499999999999999869e-04,-3.399999999999999702e-04,-6.799999999999999404e-04,-6.400000000000000524e-04,1.300000000000000157e-04,-2.299999999999999799e-04,-1.499999999999999869e-04,4.000000000000000000e+00,1.900000000000000000e+01
4.610800000000000000e+04,-1.300000000000000157e-04,-1.499999999999999869e-04,-3.399999999999999702e-04,-6.799999999999999404e-04,-6.400000000000000524e-04,1.300000000000000157e-04,-2.299999999999999799e-04,-1.499999999999999869e-04,4.000000000000000000e+00,1.900000000000000000e+01
4.610900000000000000e+04,-1.300000000000000157e-04,-1.499999999999999869e-04,-3.399999999999999702e-04,-6.799999999999999404e-04,-6.400000000000000524e-04,1.300000000000000157e-04,-2.299999999999999799e-04,-1.499999999999999869e-04,4.000000000000000000e+00,1.900000000000000000e+01
4.611000000000000000e+04,-2.000000000000000164e-05,-3.600000000000000227e-04,-5.699999999999999772e-04,-1.899999999999999834e-04,-5.000000000000000104e-04,2.000000000000000096e-04,-5.800000000000000034e-04,-2.900000000000000017e-04,4.000000000000000000e+00,1.900000000000000000e+01
4.611100000000000000e+04,-2.000000000000000164e-05,-3.600000000000000227e-04,-5.699999999999999772e-04,-1.899999999999999834e-04,-5.000000000000000104e-04,2.000000000000000096e-04,-5.800000000000000034e-04,-2.900000000000000017e-04,4.000000000000000000e+00,1.900000000000000000e+01
4.611200000000000000e+04,-2.000000000000000164e-05,-3.600000000000000227e-04,-5.699999999999999772e-04,-1.899999999999999834e-04,-5.000000000000000104e-04,2.000000000000000096e-04,-5.800000000000000034e-04,-2.900000000000000017e-04,4.000000000000000000e+00,1.900000000000000000e+01
4.611300000000000000e+04,-2.000000000000000164e-05,-3.600000000000000227e-04,-5.699999999999999772e-04,-1.899999999999999834e-04,-5.000000000000000104e-04,2.000000000000000096e-04,-5.800000000000000034e-04,-2.900000000000000017e-04,4.000000000000000000e+00,1.900000000000000000e+01
4.611400000000000000e+04,-2.000000000000000164e-05,-3.600000000000000227e-04,-5.699999999999999772e-04,-1.899999999999999834e-04,-5.000000000000000104e-04,2.000000000000000096e-04,-5.800000000000000034e-04,-2.900000000000000017e-04,4.000000000000000000e+00,1.900000000000000000e+01
4.611500000000000000e+04,-2.000000000000000164e-05,-3.600000000000000227e-04,-5.699999999999999772e-04,-1.899999999999999834e-04,-5.000000000000000104e-04,2.000000000000000096e-04,-5.800000000000000034e-04,-2.900000000000000017e-04,4.000000000000000000e+00,1.900000000000000000e+01
4.611600000000000000e+04,-2.000000000000000164e-05,-3.600000000000000227e-04,-5.699999999999999772e-04,-1.899999999999999834e-04,-5.000000000000000104e-04,2.000000000000000096e-04,-5.800000000000000034e-04,-2.900000000000000017e-04,4.000000000000000000e+00,1.900000000000000000e+01
4.611700000000000000e+04,-2.000000000000000164e-05,-3.600000000000000227e-04,-5.699999999999999772e-04,-1.899999999999999834e-04,-5.000000000000000104e-04,2.000000000000000096e-04,-5.800000000000000034e-04,-2.900000000000000017e-04,4.000000000000000000e+00,1.900000000000000000e+01
4.611800000000000000e+04,-2.000000000000000164e-05,-3.600000000000000227e-04,-5.699999999999999772e-04,-1.899999999999999834e-04,-5.000000000000000104e-04,2.000000000000000096e-04,-5.800000000000000034e-04,-2.900000000000000017e-04,4.000000000000000000e+00,1.900000000000000000e+01
4.611900000000000000e+04,-2.000000000000000164e-05,-3.600000000000000227e-04,-5.699999999999999772e-04,-1.899999999999999834e-04,-5.000000000000000104e-04,2.000000000000000096e-04,-5.800000000000000034e-04,-2.900000000000000017e-04,4.000000000000000000e+00,1.900000000000000000e+01
4.612000000000000000e+04,-2.000000000000000164e-05,-3.600000000000000227e-04,-5.699999999999999772e-04,-1.899999999999999834e-04,-5.000000000000000104e-04,2.000000000000000096e-04,-5.800000000000000034e-04,-2.900000000000000017e-04,4.000000000000000000e+00,1.900000000000000000e+01
4.612100000000000000e+04,-2.000000000000000164e-05,-3.600000000000000227e-04,-5.699999999999999772e-04,-1.899999999999999834e-04,-5.000000000000000104e-04,2.000000000000000096e-04,-5.800000000000000034e-04,-2.900000000000000017e-04,4.000000000000000000e+00,1.900000000000000000e+01
4.612200000000000000e+04,-2.000000000000000164e-05,-3.600000000000000227e-04,-5.699999999999999772e-04,-1.899999999999999834e-04,-5.000000000000000104e-04,2.000000000000000096e-04,-5.800000000000000034e-04,-2.900000000000000017e-04,4.000000000000000000e+00,1.900000000000000000e+01
4.612300000000000000e+04,-2.000000000000000164e-05,-3.600000000000000227e-04,-5.699999999999999772e-04,-1.899999999999999834e-04,-5.000000000000000104e-04,2.000000000000000096e-04,-5.800000000000000034e-04,-2.900000000000000017e-04,4.000000000000000000e+00,1.900000000000000000e+01
4.612400000000000000e+04,-2.000000000000000164e-05,-3.600000000000000227e-04,-5.699999999999999772e-04,-1.899999999999999834e-04,-5.000000000000000104e-04,2.000000000000000096e-04,-5.800000000000000034e-04,-2.900000000000000017e-04,4.000000000000000000e+00,1.900000000000000000e+01
4.612500000000000000e+04,-2.000000000000000164e-05,-3.600000000000000227e-04,-5.699999999999999772e-04,-1.899999999999999834e-04,-5.000000000000000104e-04,2.000000000000000096e-04,-5.800000000000000034e-04,-2.900000000000000017e-04,4.000000000000000000e+00,1.900000000000000000e+01
4.612600000000000000e+04,-2.000000000000000164e-05,-3.600000000000000227e-04,-5.699999999999999772e-04,-1.899999999999999834e-04,-5.000000000000000104e-04,2.000000000000000096e-04,-5.800000000000000034e-04,-2.900000000000000017e-04,4.000000000000000000e+00,1.900000000000000000e+01
4.612700000000000000e+04,-2.000000000000000164e-05,-3.600000000000000227e-04,-5.699999999999999772e-04,-1.899999999999999834e-04,-5.000000000000000104e-04,2.000000000000000096e-04,-5.800000000000000034e-04,-2.900000000000000017e-04,4.000000000000000000e+00,1.900000000000000000e+01
4.612800000000000000e+04,-2.000000000000000164e-05,-3.600000000000000227e-04,-5.699999999999999772e-04,-1.899999999999999834e-04,-5.000000000000000104e-04,2.000000000000000096e-04,-5.800000000000000034e-04,-2.900000000000000017e-04,4.000000000000000000e+00,1.900000000000000000e+01
4.612900000000000000e+04,-2.000000000000000164e-05,-3.600000000000000227e-04,-5.699999999999999772e-04,-1.899999999999999834e-04,-5.000000000000000104e-04,2.000000000000000096e-04,-5.800000000000000034e-04,-2.900000000000000017e-04,4.000000000000000000e+00,1.900000000000000000e+01
4.613000000000000000e+04,-2.000000000000000164e-05,-3.600000000000000227e-04,-5.699999999999999772e-04,-1.899999999999999834e-04,-5.000000000000000104e-04,2.000000000000000096e-04,-5.800000000000000034e-04,-2.900000000000000017e-04,4.000000000000000000e+00,1.900000000000000000e+01
4.613100000000000000e+04,-2.000000000000000164e-05,-3.600000000000000227e-04,-5.699999999999999772e-04,-1.899999999999999834e-04,-5.000000000000000104e-04,2.000000000000000096e-04,-5.800000000000000034e-04,-2.900000000000000017e-04,4.000000000000000000e+00,1.900000000000000000e+01
4.613200000000000000e+04,0.000000000000000000e+00,-2.999999999999999737e-05,-1.499999999999999869e-04,9.000000000000000567e-05,3.399999999999999702e-04,-1.300000000000000157e-04,1.800000000000000113e-04,5.999999999999999474e-05,4.000000000000000000e+00,1.900000000000000000e+01
4.613300000000000000e+04,1.300000000000000157e-04,-1.199999999999999895e-04,-5.400000000000000069e-04,-7.200000000000000453e-04,-1.100000000000000039e-04,1.010000000000000047e-03,2.999999999999999737e-04,1.499999999999999869e-04,4.000000000000000000e+00,1.900000000000000000e+01
4.613400000000000000e+04,1.300000000000000157e-04,-1.199999999999999895e-04,-5.400000000000000069e-04,-7.200000000000000453e-04,-1.100000000000000039e-04,1.010000000000000047e-03,2.999999999999999737e-04,1.499999999999999869e-04,4.000000000000000000e+00,1.900000000000000000e+01
4.613500000000000000e+04,1.300000000000000157e-04,-1.199999999999999895e-04,-5.400000000000000069e-04,-7.200000000000000453e-04,-1.100000000000000039e-04,1.010000000000000047e-03,2.999999999999999737e-04,1.499999999999999869e-04,4.000000000000000000e+00,1.900000000000000000e+01
4.613700000000000000e+04,1.300000000000000157e-04,-1.199999999999999895e-04,-5.400000000000000069e-04,-7.200000000000000453e-04,-1.100000000000000039e-04,1.010000000000000047e-03,2.999999999999999737e-04,1.499999999999999869e-04,4.000000000000000000e+00,1.900000000000000000e+01
4.614000000000000000e+04,1.300000000000000157e-04,-1.199999999999999895e-04,-5.400000000000000069e-04,-7.200000000000000453e-04,-1.100000000000000039e-04,1.010000000000000047e-03,2.999999999999999737e-04,1.499999999999999869e-04,4.000000000000000000e+00,1.900000000000000000e+01
4.614100000000000000e+04,1.300000000000000157e-04,-1.199999999999999895e-04,-5.400000000000000069e-04,-7.200000000000000453e-04,-1.100000000000000039e-04,1.010000000000000047e-03,2.999999999999999737e-04,1.499999999999999869e-04,4.000000000000000000e+00,1.900000000000000000e+01
4.614200000000000000e+04,1.300000000000000157e-04,-1.199999999999999895e-04,-5.400000000000000069e-04,-7.200000000000000453e-04,-1.100000000000000039e-04,1.010000000000000047e-03,2.999999999999999737e-04,1.499999999999999869e-04,4.000000000000000000e+00,1.900000000000000000e+01
4.614300000000000000e+04,1.300000000000000157e-04,-1.199999999999999895e-04,-5.400000000000000069e-04,-7.200000000000000453e-04,-1.100000000000000039e-04,1.010000000000000047e-03,2.999999999999999737e-04,1.499999999999999869e-04,4.000000000000000000e+00,1.900000000000000000e+01
4.614400000000000000e+04,1.300000000000000157e-04,-1.199999999999999895e-04,-5.400000000000000069e-04,-7.200000000000000453e-04,-1.100000000000000039e-04,1.010000000000000047e-03,2.999999999999999737e-04,1.499999999999999869e-04,4.000000000000000000e+00,1.900000000000000000e+01
4.614500000000000000e+04,1.300000000000000157e-04,-1.199999999999999895e-04,-5.400000000000000069e-04,-7.200000000000000453e-04,-1.100000000000000039e-04,1.010000000000000047e-03,2.999999999999999737e-04,1.499999999999999869e-04,4.000000000000000000e+00,1.900000000000000000e+01
4.614600000000000000e+04,1.300000000000000157e-04,-1.199999999999999895e-04,-5.400000000000000069e-04,-7.200000000000000453e-04,-1.100000000000000039e-04,1.010000000000000047e-03,2.999999999999999737e-04,1.499999999999999869e-04,4.000000000000000000e+00,1.900000000000000000e+01
4.614700000000000000e+04,1.000000000000000082e-05,5.999999999999999474e-05,4.499999999999999877e-04,1.190000000000000085e-03,6.999999999999999929e-04,5.900000000000000296e-04,1.100000000000000039e-04,5.000000000000000240e-05,4.000000000000000000e+00,1.900000000000000000e+01
4.614800000000000000e+04,-1.600000000000000131e-04,-9.000000000000000567e-05,-5.400000000000000069e-04,-6.999999999999999387e-05,1.199999999999999895e-04,-6.700000000000000226e-04,6.999999999999999387e-05,-6.999999999999999387e-05,4.000000000000000000e+00,1.900000000000000000e+01
4.614900000000000000e+04,-1.600000000000000131e-04,-9.000000000000000567e-05,-5.400000000000000069e-04,-6.999999999999999387e-05,1.199999999999999895e-04,-6.700000000000000226e-04,6.999999999999999387e-05,-6.999999999999999387e-05,4.000000000000000000e+00,1.900000000000000000e+01
4.615000000000000000e+04,-1.600000000000000131e-04,-9.000000000000000567e-05,-5.400000000000000069e-04,-6.999999999999999387e-05,1.199999999999999895e-04,-6.700000000000000226e-04,6.999999999999999387e-05,-6.999999999999999387e-05,4.000000000000000000e+00,1.900000000000000000e+01
4.615100000000000000e+04,-1.600000000000000131e-04,-9.000000000000000567e-05,-5.400000000000000069e-04,-6.999999999999999387e-05,1.199999999999999895e-04,-6.700000000000000226e-04,6.999999999999999387e-05,-6.999999999999999387e-05,4.000000000000000000e+00,1.900000000000000000e+01
4.615200000000000000e+04,-1.600000000000000131e-04,-9.000000000000000567e-05,-5.400000000000000069e-04,-6.999999999999999387e-05,1.199999999999999895e-04,-6.700000000000000226e-04,6.999999999999999387e-05,-6.999999999999999387e-05,4.000000000000000000e+00,1.900000000000000000e+01
4.615300000000000000e+04,-1.600000000000000131e-04,-9.000000000000000567e-05,-5.400000000000000069e-04,-6.999999999999999387e-05,1.199999999999999895e-04,-6.700000000000000226e-04,6.999999999999999387e-05,-6.999999999999999387e-05,4.000000000000000000e+00,1.900000000000000000e+01
4.615400000000000000e+04,-1.600000000000000131e-04,-9.000000000000000567e-05,-5.400000000000000069e-04,-6.999999999999999387e-05,1.199999999999999895e-04,-6.700000000000000226e-04,6.999999999999999387e-05,-6.999999999999999387e-05,4.000000000000000000e+00,1.900000000000000000e+01
4.615500000000000000e+04,-1.600000000000000131e-04,-9.000000000000000567e-05,-5.400000000000000069e-04,-6.999999999999999387e-05,1.199999999999999895e-04,-6.700000000000000226e-04,6.999999999999999387e-05,-6.999999999999999387e-05,4.000000000000000000e+00,1.900000000000000000e+01
4.615600000000000000e+04,-1.600000000000000131e-04,-9.000000000000000567e-05,-5.400000000000000069e-04,-6.999999999999999387e-05,1.199999999999999895e-04,-6.700000000000000226e-04,6.999999999999999387e-05,-6.999999999999999387e-05,4.000000000000000000e+00,1.900000000000000000e+01
4.615700000000000000e+04,-1.600000000000000131e-04,-9.000000000000000567e-05,-5.400000000000000069e-04,-6.999999999999999387e-05,1.199999999999999895e-04,-6.700000000000000226e-04,6.999999999999999387e-05,-6.999999999999999387e-05,4.000000000000000000e+00,1.900000000000000000e+01
4.615800000000000000e+04,-1.600000000000000131e-04,-9.000000000000000567e-05,-5.400000000000000069e-04,-6.999999999999999387e-05,1.199999999999999895e-04,-6.700000000000000226e-04,6.999999999999999387e-05,-6.999999999999999387e-05,4.000000000000000000e+00,1.900000000000000000e+01
4.615900000000000000e+04,-1.600000000000000131e-04,-9.000000000000000567e-05,-5.400000000000000069e-04,-6.999999999999999387e-05,1.199999999999999895e-04,-6.700000000000000226e-04,6.999999999999999387e-05,-6.999999999999999387e-05,4.000000000000000000e+00,1.900000000000000000e+01
4.616000000000000000e+04,-1.600000000000000131e-04,-9.000000000000000567e-05,-5.400000000000000069e-04,-6.999999999999999387e-05,1.199999999999999895e-04,-6.700000000000000226e-04,6.999999999999999387e-05,-6.999999999999999387e-05,4.000000000000000000e+00,1.900000000000000000e+01
4.616100000000000000e+04,-1.600000000000000131e-04,-9.000000000000000567e-05,-5.400000000000000069e-04,-6.999999999999999387e-05,1.199999999999999895e-04,-6.700000000000000226e-04,6.999999999999999387e-05,-6.999999999999999387e-05,4.000000000000000000e+00,1.900000000000000000e+01
4.616200000000000000e+04,-1.600000000000000131e-04,-9.000000000000000567e-05,-5.400000000000000069e-04,-6.999999999999999387e-05,1.199999999999999895e-04,-6.700000000000000226e-04,6.999999999999999387e-05,-6.999999999999999387e-05,4.000000000000000000e+00,1.900000000000000000e+01
4.616300000000000000e+04,-1.600000000000000131e-04,-9.000000000000000567e-05,-5.400000000000000069e-04,-6.999999999999999387e-05,1.199999999999999895e-04,-6.700000000000000226e-04,6.999999999999999387e-05,-6.999999999999999387e-05,4.000000000000000000e+00,1.900000000000000000e+01
4.616400000000000000e+04,-1.600000000000000131e-04,-9.000000000000000567e-05,-5.400000000000000069e-04,-6.999999999999999387e-05,1.199999999999999895e-04,-6.700000000000000226e-04,6.999999999999999387e-05,-6.999999999999999387e-05,4.000000000000000000e+00,1.900000000000000000e+01
4.616500000000000000e+04,-1.600000000000000131e-04,-9.000000000000000567e-05,-5.400000000000000069e-04,-6.999999999999999387e-05,1.199999999999999895e-04,-6.700000000000000226e-04,6.999999999999999387e-05,-6.999999999999999387e-05,4.000000000000000000e+00,1.900000000000000000e+01
4.616600000000000000e+04,-1.600000000000000131e-04,-9.000000000000000567e-05,-5.400000000000000069e-04,-6.999999999999999387e-05,1.199999999999999895e-04,-6.700000000000000226e-04,6.999999999999999387e-05,-6.999999999999999387e-05,4.000000000000000000e+00,1.900000000000000000e+01
4.616700000000000000e+04,-1.600000000000000131e-04,-9.000000000000000567e-05,-5.400000000000000069e-04,-6.999999999999999387e-05,1.199999999999999895e-04,-6.700000000000000226e-04,6.999999999999999387e-05,-6.999999999999999387e-05,4.000000000000000000e+00,1.900000000000000000e+01
4.616800000000000000e+04,-1.600000000000000131e-04,-9.000000000000000567e-05,-5.400000000000000069e-04,-6.999999999999999387e-05,1.199999999999999895e-04,-6.700000000000000226e-04,6.999999999999999387e-05,-6.999999999999999387e-05,4.000000000000000000e+00,1.900000000000000000e+01
4.616900000000000000e+04,-1.600000000000000131e-04,-9.000000000000000567e-05,-5.400000000000000069e-04,-6.999999999999999387e-05,1.199999999999999895e-04,-6.700000000000000226e-04,6.999999999999999387e-05,-6.999999999999999387e-05,4.000000000000000000e+00,1.900000000000000000e+01
4.617000000000000000e+04,-1.199999999999999895e-04,-1.899999999999999834e-04,-5.000000000000000104e-04,-1.280000000000000105e-03,2.600000000000000314e-04,-3.099999999999999999e-04,-1.000000000000000082e-05,-8.000000000000000654e-05,4.000000000000000000e+00,1.900000000000000000e+01
4.617100000000000000e+04,4.799999999999999580e-04,4.499999999999999877e-04,2.700000000000000035e-04,-3.099999999999999999e-04,-5.000000000000000240e-05,1.109999999999999876e-03,5.900000000000000296e-04,4.400000000000000157e-04,4.000000000000000000e+00,1.900000000000000000e+01
4.617200000000000000e+04,4.799999999999999580e-04,4.499999999999999877e-04,2.700000000000000035e-04,-3.099999999999999999e-04,-5.000000000000000240e-05,1.109999999999999876e-03,5.900000000000000296e-04,4.400000000000000157e-04,4.000000000000000000e+00,1.900000000000000000e+01
4.617300000000000000e+04,4.799999999999999580e-04,4.499999999999999877e-04,2.700000000000000035e-04,-3.099999999999999999e-04,-5.000000000000000240e-05,1.109999999999999876e-03,5.900000000000000296e-04,4.400000000000000157e-04,4.000000000000000000e+00,1.900000000000000000e+01
4.617400000000000000e+04,4.799999999999999580e-04,4.499999999999999877e-04,2.700000000000000035e-04,-3.099999999999999999e-04,-5.000000000000000240e-05,1.109999999999999876e-03,5.900000000000000296e-04,4.400000000000000157e-04,4.000000000000000000e+00,1.900000000000000000e+01
4.617500000000000000e+04,4.799999999999999580e-04,4.499999999999999877e-04,2.700000000000000035e-04,-3.099999999999999999e-04,-5.000000000000000240e-05,1.109999999999999876e-03,5.900000000000000296e-04,4.400000000000000157e-04,4.000000000000000000e+00,1.900000000000000000e+01
4.617600000000000000e+04,4.799999999999999580e-04,4.499999999999999877e-04,2.700000000000000035e-04,-3.099999999999999999e-04,-5.000000000000000240e-05,1.109999999999999876e-03,5.900000000000000296e-04,4.400000000000000157e-04,4.000000000000000000e+00,1.900000000000000000e+01
4.617700000000000000e+04,4.799999999999999580e-04,4.499999999999999877e-04,2.700000000000000035e-04,-3.099999999999999999e-04,-5.000000000000000240e-05,1.109999999999999876e-03,5.900000000000000296e-04,4.400000000000000157e-04,4.000000000000000000e+00,1.900000000000000000e+01
4.617800000000000000e+04,4.799999999999999580e-04,4.499999999999999877e-04,2.700000000000000035e-04,-3.099999999999999999e-04,-5.000000000000000240e-05,1.109999999999999876e-03,5.900000000000000296e-04,4.400000000000000157e-04,4.000000000000000000e+00,1.900000000000000000e+01
4.617900000000000000e+04,4.799999999999999580e-04,4.499999999999999877e-04,2.700000000000000035e-04,-3.099999999999999999e-04,-5.000000000000000240e-05,1.109999999999999876e-03,5.900000000000000296e-04,4.400000000000000157e-04,4.000000000000000000e+00,1.900000000000000000e+01
4.618000000000000000e+04,4.799999999999999580e-04,4.499999999999999877e-04,2.700000000000000035e-04,-3.099999999999999999e-04,-5.000000000000000240e-05,1.109999999999999876e-03,5.900000000000000296e-04,4.400000000000000157e-04,4.000000000000000000e+00,1.900000000000000000e+01
4.618100000000000000e+04,4.799999999999999580e-04,4.499999999999999877e-04,2.700000000000000035e-04,-3.099999999999999999e-04,-5.000000000000000240e-05,1.109999999999999876e-03,5.900000000000000296e-04,4.400000000000000157e-04,4.000000000000000000e+00,1.900000000000000000e+01
4.618200000000000000e+04,4.799999999999999580e-04,4.499999999999999877e-04,2.700000000000000035e-04,-3.099999999999999999e-04,-5.000000000000000240e-05,1.109999999999999876e-03,5.900000000000000296e-04,4.400000000000000157e-04,4.000000000000000000e+00,1.900000000000000000e+01
4.618300000000000000e+04,4.799999999999999580e-04,4.499999999999999877e-04,2.700000000000000035e-04,-3.099999999999999999e-04,-5.000000000000000240e-05,1.109999999999999876e-03,5.900000000000000296e-04,4.400000000000000157e-04,4.000000000000000000e+00,1.900000000000000000e+01
4.618400000000000000e+04,4.799999999999999580e-04,4.499999999999999877e-04,2.700000000000000035e-04,-3.099999999999999999e-04,-5.000000000000000240e-05,1.109999999999999876e-03,5.900000000000000296e-04,4.400000000000000157e-04,4.000000000000000000e+00,1.900000000000000000e+01
4.618500000000000000e+04,4.799999999999999580e-04,4.499999999999999877e-04,2.700000000000000035e-04,-3.099999999999999999e-04,-5.000000000000000240e-05,1.109999999999999876e-03,5.900000000000000296e-04,4.400000000000000157e-04,4.000000000000000000e+00,1.900000000000000000e+01
4.618700000000000000e+04,4.799999999999999580e-04,4.499999999999999877e-04,2.700000000000000035e-04,-3.099999999999999999e-04,-5.000000000000000240e-05,1.109999999999999876e-03,5.900000000000000296e-04,4.400000000000000157e-04,4.000000000000000000e+00,1.900000000000000000e+01
4.619000000000000000e+04,4.799999999999999580e-04,4.499999999999999877e-04,2.700000000000000035e-04,-3.099999999999999999e-04,-5.000000000000000240e-05,1.109999999999999876e-03,5.900000000000000296e-04,4.400000000000000157e-04,4.000000000000000000e+00,1.900000000000000000e+01
4.619100000000000000e+04,4.799999999999999580e-04,4.499999999999999877e-04,2.700000000000000035e-04,-3.099999999999999999e-04,-5.000000000000000240e-05,1.109999999999999876e-03,5.900000000000000296e-04,4.400000000000000157e-04,4.000000000000000000e+00,1.900000000000000000e+01
4.619200000000000000e+04,-9.000000000000000567e-05,-2.200000000000000078e-04,-3.600000000000000227e-04,-3.899999999999999929e-04,-1.269999999999999862e-03,-9.699999999999999421e-04,-3.099999999999999999e-04,-1.899999999999999834e-04,4.000000000000000000e+00,1.900000000000000000e+01
4.619300000000000000e+04,2.900000000000000017e-04,4.400000000000000157e-04,9.300000000000000541e-04,7.700000000000000681e-04,1.269999999999999862e-03,1.030000000000000100e-03,3.699999999999999947e-04,2.700000000000000035e-04,4.000000000000000000e+00,1.900000000000000000e+01
4.619400000000000000e+04,2.900000000000000017e-04,4.400000000000000157e-04,9.300000000000000541e-04,7.700000000000000681e-04,1.269999999999999862e-03,1.030000000000000100e-03,3.699999999999999947e-04,2.700000000000000035e-04,4.000000000000000000e+00,1.900000000000000000e+01
4.619500000000000000e+04,2.900000000000000017e-04,4.400000000000000157e-04,9.300000000000000541e-04,7.700000000000000681e-04,1.269999999999999862e-03,1.030000000000000100e-03,3.699999999999999947e-04,2.700000000000000035e-04,4.000000000000000000e+00,1.900000000000000000e+01
4.619600000000000000e+04,2.900000000000000017e-04,4.400000000000000157e-04,9.300000000000000541e-04,7.700000000000000681e-04,1.269999999999999862e-03,1.030000000000000100e-03,3.699999999999999947e-04,2.700000000000000035e-04,4.000000000000000000e+00,1.900000000000000000e+01
4.619700000000000000e+04,2.900000000000000017e-04,4.400000000000000157e-04,9.300000000000000541e-04,7.700000000000000681e-04,1.269999999999999862e-03,1.030000000000000100e-03,3.699999999999999947e-04,2.700000000000000035e-04,4.000000000000000000e+00,1.900000000000000000e+01
4.619800000000000000e+04,2.900000000000000017e-04,4.400000000000000157e-04,9.300000000000000541e-04,7.700000000000000681e-04,1.269999999999999862e-03,1.030000000000000100e-03,3.699999999999999947e-04,2.700000000000000035e-04,4.000000000000000000e+00,1.900000000000000000e+01
4.619900000000000000e+04,2.900000000000000017e-04,4.400000000000000157e-04,9.300000000000000541e-04,7.700000000000000681e-04,1.269999999999999862e-03,1.030000000000000100e-03,3.699999999999999947e-04,2.700000000000000035e-04,4.000000000000000000e+00,1.900000000000000000e+01
4.620000000000000000e+04,2.900000000000000017e-04,4.400000000000000157e-04,9.300000000000000541e-04,7.700000000000000681e-04,1.269999999999999862e-03,1.030000000000000100e-03,3.699999999999999947e-04,2.700000000000000035e-04,4.000000000000000000e+00,1.900000000000000000e+01
4.620100000000000000e+04,2.900000000000000017e-04,4.400000000000000157e-04,9.300000000000000541e-04,7.700000000000000681e-04,1.269999999999999862e-03,1.030000000000000100e-03,3.699999999999999947e-04,2.700000000000000035e-04,4.000000000000000000e+00,1.900000000000000000e+01
4.620200000000000000e+04,2.900000000000000017e-04,4.400000000000000157e-04,9.300000000000000541e-04,7.700000000000000681e-04,1.269999999999999862e-03,1.030000000000000100e-03,3.699999999999999947e-04,2.700000000000000035e-04,4.000000000000000000e+00,1.900000000000000000e+01
4.620300000000000000e+04,2.900000000000000017e-04,4.400000000000000157e-04,9.300000000000000541e-04,7.700000000000000681e-04,1.269999999999999862e-03,1.030000000000000100e-03,3.699999999999999947e-04,2.700000000000000035e-04,4.000000000000000000e+00,1.900000000000000000e+01
4.620400000000000000e+04,2.900000000000000017e-04,4.400000000000000157e-04,9.300000000000000541e-04,7.700000000000000681e-04,1.269999999999999862e-03,1.030000000000000100e-03,3.699999999999999947e-04,2.700000000000000035e-04,4.000000000000000000e+00,1.900000000000000000e+01
4.620500000000000000e+04,2.900000000000000017e-04,4.400000000000000157e-04,9.300000000000000541e-04,7.700000000000000681e-04,1.269999999999999862e-03,1.030000000000000100e-03,3.699999999999999947e-04,2.700000000000000035e-04,4.000000000000000000e+00,1.900000000000000000e+01
4.620600000000000000e+04,2.299999999999999799e-04,1.899999999999999834e-04,2.299999999999999799e-04,-1.899999999999999834e-04,4.599999999999999597e-04,9.100000000000000016e-04,3.099999999999999999e-04,2.000000000000000096e-04,4.000000000000000000e+00,1.900000000000000000e+01
4.620700000000000000e+04,2.299999999999999799e-04,1.899999999999999834e-04,2.299999999999999799e-04,-1.899999999999999834e-04,4.599999999999999597e-04,9.100000000000000016e-04,3.099999999999999999e-04,2.000000000000000096e-04,4.000000000000000000e+00,1.900000000000000000e+01
4.620800000000000000e+04,2.299999999999999799e-04,1.899999999999999834e-04,2.299999999999999799e-04,-1.899999999999999834e-04,4.599999999999999597e-04,9.100000000000000016e-04,3.099999999999999999e-04,2.000000000000000096e-04,4.000000000000000000e+00,1.900000000000000000e+01
4.620900000000000000e+04,2.299999999999999799e-04,1.899999999999999834e-04,2.299999999999999799e-04,-1.899999999999999834e-04,4.599999999999999597e-04,9.100000000000000016e-04,3.099999999999999999e-04,2.000000000000000096e-04,4.000000000000000000e+00,1.900000000000000000e+01
4.621000000000000000e+04,2.299999999999999799e-04,1.899999999999999834e-04,2.299999999999999799e-04,-1.899999999999999834e-04,4.599999999999999597e-04,9.100000000000000016e-04,3.099999999999999999e-04,2.000000000000000096e-04,4.000000000000000000e+00,1.900000000000000000e+01
4.621100000000000000e+04,2.299999999999999799e-04,1.899999999999999834e-04,2.299999999999999799e-04,-1.899999999999999834e-04,4.599999999999999597e-04,9.100000000000000016e-04,3.099999999999999999e-04,2.000000000000000096e-04,4.000000000000000000e+00,1.900000000000000000e+01
4.621200000000000000e+04,2.299999999999999799e-04,1.899999999999999834e-04,2.299999999999999799e-04,-1.899999999999999834e-04,4.599999999999999597e-04,9.100000000000000016e-04,3.099999999999999999e-04,2.000000000000000096e-04,4.000000000000000000e+00,1.900000000000000000e+01
4.621300000000000000e+04,2.299999999999999799e-04,1.899999999999999834e-04,2.299999999999999799e-04,-1.899999999999999834e-04,4.599999999999999597e-04,9.100000000000000016e-04,3.099999999999999999e-04,2.000000000000000096e-04,4.000000000000000000e+00,1.900000000000000000e+01
4.621400000000000000e+04,2.299999999999999799e-04,1.899999999999999834e-04,2.299999999999999799e-04,-1.899999999999999834e-04,4.599999999999999597e-04,9.100000000000000016e-04,3.099999999999999999e-04,2.000000000000000096e-04,4.000000000000000000e+00,1.900000000000000000e+01
4.621500000000000000e+04,1.100000000000000039e-04,1.399999999999999877e-04,3.099999999999999999e-04,8.999999999999999754e-04,5.599999999999999509e-04,-4.200000000000000174e-04,1.399999999999999877e-04,1.100000000000000039e-04,4.000000000000000000e+00,1.900000000000000000e+01
4.621600000000000000e+04,1.100000000000000039e-04,1.399999999999999877e-04,3.099999999999999999e-04,8.999999999999999754e-04,5.599999999999999509e-04,-4.200000000000000174e-04,1.399999999999999877e-04,1.100000000000000039e-04,4.000000000000000000e+00,1.900000000000000000e+01
4.621700000000000000e+04,1.100000000000000039e-04,1.399999999999999877e-04,3.099999999999999999e-04,8.999999999999999754e-04,5.599999999999999509e-04,-4.200000000000000174e-04,1.399999999999999877e-04,1.100000000000000039e-04,4.000000000000000000e+00,1.900000000000000000e+01
4.621800000000000000e+04,1.100000000000000039e-04,1.399999999999999877e-04,3.099999999999999999e-04,8.999999999999999754e-04,5.599999999999999509e-04,-4.200000000000000174e-04,1.399999999999999877e-04,1.100000000000000039e-04,4.000000000000000000e+00,1.900000000000000000e+01
4.621900000000000000e+04,1.100000000000000039e-04,1.399999999999999877e-04,3.099999999999999999e-04,8.999999999999999754e-04,5.599999999999999509e-04,-4.200000000000000174e-04,1.399999999999999877e-04,1.100000000000000039e-04,4.000000000000000000e+00,1.900000000000000000e+01
4.622000000000000000e+04,1.100000000000000039e-04,1.399999999999999877e-04,3.099999999999999999e-04,8.999999999999999754e-04,5.599999999999999509e-04,-4.200000000000000174e-04,1.399999999999999877e-04,1.100000000000000039e-04,4.000000000000000000e+00,1.900000000000000000e+01
4.622100000000000000e+04,1.100000000000000039e-04,1.399999999999999877e-04,3.099999999999999999e-04,8.999999999999999754e-04,5.599999999999999509e-04,-4.200000000000000174e-04,1.399999999999999877e-04,1.100000000000000039e-04,4.000000000000000000e+00,1.900000000000000000e+01
4.622200000000000000e+04,1.100000000000000039e-04,1.399999999999999877e-04,3.099999999999999999e-04,8.999999999999999754e-04,5.599999999999999509e-04,-4.200000000000000174e-04,1.399999999999999877e-04,1.100000000000000039e-04,4.000000000000000000e+00,1.900000000000000000e+01
4.622300000000000000e+04,1.100000000000000039e-04,1.399999999999999877e-04,3.099999999999999999e-04,8.999999999999999754e-04,5.599999999999999509e-04,-4.200000000000000174e-04,1.399999999999999877e-04,1.100000000000000039e-04,4.000000000000000000e+00,1.900000000000000000e+01
4.622400000000000000e+04,1.100000000000000039e-04,1.399999999999999877e-04,3.099999999999999999e-04,8.999999999999999754e-04,5.599999999999999509e-04,-4.200000000000000174e-04,1.399999999999999877e-04,1.100000000000000039e-04,4.000000000000000000e+00,1.900000000000000000e+01
4.622500000000000000e+04,1.100000000000000039e-04,1.399999999999999877e-04,3.099999999999999999e-04,8.999999999999999754e-04,5.599999999999999509e-04,-4.200000000000000174e-04,1.399999999999999877e-04,1.100000000000000039e-04,4.000000000000000000e+00,1.900000000000000000e+01
4.622600000000000000e+04,1.100000000000000039e-04,1.399999999999999877e-04,3.099999999999999999e-04,8.999999999999999754e-04,5.599999999999999509e-04,-4.200000000000000174e-04,1.399999999999999877e-04,1.100000000000000039e-04,4.000000000000000000e+00,1.900000000000000000e+01
4.622700000000000000e+04,1.100000000000000039e-04,1.399999999999999877e-04,3.099999999999999999e-04,8.999999999999999754e-04,5.599999999999999509e-04,-4.200000000000000174e-04,1.399999999999999877e-04,1.100000000000000039e-04,4.000000000000000000e+00,1.900000000000000000e+01
4.622800000000000000e+04,1.100000000000000039e-04,1.399999999999999877e-04,3.099999999999999999e-04,8.999999999999999754e-04,5.599999999999999509e-04,-4.200000000000000174e-04,1.399999999999999877e-04,1.100000000000000039e-04,4.000000000000000000e+00,1.900000000000000000e+01
4.622900000000000000e+04,-2.000000000000000096e-04,-2.999999999999999737e-04,-5.400000000000000069e-04,-5.400000000000000069e-04,-5.999999999999999474e-05,-7.099999999999999107e-04,-1.300000000000000157e-04,-2.100000000000000087e-04,4.000000000000000000e+00,1.900000000000000000e+01
4.623000000000000000e+04,-6.999999999999999387e-05,1.000000000000000048e-04,3.499999999999999964e-04,6.400000000000000524e-04,-4.099999999999999912e-04,-4.000000000000000192e-04,-1.000000000000000048e-04,0.000000000000000000e+00,4.000000000000000000e+00,1.900000000000000000e+01
4.623100000000000000e+04,-6.999999999999999387e-05,1.000000000000000048e-04,3.499999999999999964e-04,6.400000000000000524e-04,-4.099999999999999912e-04,-4.000000000000000192e-04,-1.000000000000000048e-04,0.000000000000000000e+00,4.000000000000000000e+00,1.900000000000000000e+01
4.623200000000000000e+04,-6.999999999999999387e-05,1.000000000000000048e-04,3.499999999999999964e-04,6.400000000000000524e-04,-4.099999999999999912e-04,-4.000000000000000192e-04,-1.000000000000000048e-04,0.000000000000000000e+00,4.000000000000000000e+00,1.900000000000000000e+01
4.623300000000000000e+04,-6.999999999999999387e-05,1.000000000000000048e-04,3.499999999999999964e-04,6.400000000000000524e-04,-4.099999999999999912e-04,-4.000000000000000192e-04,-1.000000000000000048e-04,0.000000000000000000e+00,4.000000000000000000e+00,1.900000000000000000e+01
4.623400000000000000e+04,-6.999999999999999387e-05,1.000000000000000048e-04,3.499999999999999964e-04,6.400000000000000524e-04,-4.099999999999999912e-04,-4.000000000000000192e-04,-1.000000000000000048e-04,0.000000000000000000e+00,4.000000000000000000e+00,1.900000000000000000e+01
4.623500000000000000e+04,-6.999999999999999387e-05,1.000000000000000048e-04,3.499999999999999964e-04,6.400000000000000524e-04,-4.099999999999999912e-04,-4.000000000000000192e-04,-1.000000000000000048e-04,0.000000000000000000e+00,4.000000000000000000e+00,1.900000000000000000e+01
4.623700000000000000e+04,-6.999999999999999387e-05,1.000000000000000048e-04,3.499999999999999964e-04,6.400000000000000524e-04,-4.099999999999999912e-04,-4.000000000000000192e-04,-1.000000000000000048e-04,0.000000000000000000e+00,4.000000000000000000e+00,1.900000000000000000e+01
4.624000000000000000e+04,-6.999999999999999387e-05,1.000000000000000048e-04,3.499999999999999964e-04,6.400000000000000524e-04,-4.099999999999999912e-04,-4.000000000000000192e-04,-1.000000000000000048e-04,0.000000000000000000e+00,4.000000000000000000e+00,1.900000000000000000e+01
4.624100000000000000e+04,-6.999999999999999387e-05,1.000000000000000048e-04,3.499999999999999964e-04,6.400000000000000524e-04,-4.099999999999999912e-04,-4.000000000000000192e-04,-1.000000000000000048e-04,0.000000000000000000e+00,4.000000000000000000e+00,1.900000000000000000e+01
4.624200000000000000e+04,-6.999999999999999387e-05,1.000000000000000048e-04,3.499999999999999964e-04,6.400000000000000524e-04,-4.099999999999999912e-04,-4.000000000000000192e-04,-1.000000000000000048e-04,0.000000000000000000e+00,4.000000000000000000e+00,1.900000000000000000e+01
4.624300000000000000e+04,-6.999999999999999387e-05,1.000000000000000048e-04,3.499999999999999964e-04,6.400000000000000524e-04,-4.099999999999999912e-04,-4.000000000000000192e-04,-1.000000000000000048e-04,0.000000000000000000e+00,4.000000000000000000e+00,1.900000000000000000e+01
4.624400000000000000e+04,-6.999999999999999387e-05,1.000000000000000048e-04,3.499999999999999964e-04,6.400000000000000524e-04,-4.099999999999999912e-04,-4.000000000000000192e-04,-1.000000000000000048e-04,0.000000000000000000e+00,4.000000000000000000e+00,1.900000000000000000e+01
4.624500000000000000e+04,-6.999999999999999387e-05,1.000000000000000048e-04,3.499999999999999964e-04,6.400000000000000524e-04,-4.099999999999999912e-04,-4.000000000000000192e-04,-1.000000000000000048e-04,0.000000000000000000e+00,4.000000000000000000e+00,1.900000000000000000e+01
4.624600000000000000e+04,-6.999999999999999387e-05,1.000000000000000048e-04,3.499999999999999964e-04,6.400000000000000524e-04,-4.099999999999999912e-04,-4.000000000000000192e-04,-1.000000000000000048e-04,0.000000000000000000e+00,4.000000000000000000e+00,1.900000000000000000e+01
4.624700000000000000e+04,-6.999999999999999387e-05,1.000000000000000048e-04,3.499999999999999964e-04,6.400000000000000524e-04,-4.099999999999999912e-04,-4.000000000000000192e-04,-1.000000000000000048e-04,0.000000000000000000e+00,4.000000000000000000e+00,1.900000000000000000e+01
4.624800000000000000e+04,-6.999999999999999387e-05,1.000000000000000048e-04,3.499999999999999964e-04,6.400000000000000524e-04,-4.099999999999999912e-04,-4.000000000000000192e-04,-1.000000000000000048e-04,0.000000000000000000e+00,4.000000000000000000e+00,1.900000000000000000e+01
4.624900000000000000e+04,-6.999999999999999387e-05,1.000000000000000048e-04,3.499999999999999964e-04,6.400000000000000524e-04,-4.099999999999999912e-04,-4.000000000000000192e-04,-1.000000000000000048e-04,0.000000000000000000e+00,4.000000000000000000e+00,1.900000000000000000e+01
4.625000000000000000e+04,-6.999999999999999387e-05,1.000000000000000048e-04,3.499999999999999964e-04,6.400000000000000524e-04,-4.099999999999999912e-04,-4.000000000000000192e-04,-1.000000000000000048e-04,0.000000000000000000e+00,4.000000000000000000e+00,1.900000000000000000e+01
4.625100000000000000e+04,-6.999999999999999387e-05,1.000000000000000048e-04,3.499999999999999964e-04,6.400000000000000524e-04,-4.099999999999999912e-04,-4.000000000000000192e-04,-1.000000000000000048e-04,0.000000000000000000e+00,4.000000000000000000e+00,1.900000000000000000e+01
4.625200000000000000e+04,-6.999999999999999387e-05,1.000000000000000048e-04,3.499999999999999964e-04,6.400000000000000524e-04,-4.099999999999999912e-04,-4.000000000000000192e-04,-1.000000000000000048e-04,0.000000000000000000e+00,4.000000000000000000e+00,1.900000000000000000e+01
4.625300000000000000e+04,-5.999999999999999474e-05,-6.999999999999999387e-05,-1.100000000000000039e-04,2.000000000000000164e-05,-5.999999999999999474e-05,8.499999999999999526e-04,1.000000000000000048e-04,2.000000000000000164e-05,4.000000000000000000e+00,1.900000000000000000e+01
4.625400000000000000e+04,-2.799999999999999755e-04,-4.099999999999999912e-04,-3.699999999999999947e-04,-7.599999999999999334e-04,-1.000000000000000021e-03,-7.900000000000000121e-04,-3.099999999999999999e-04,-2.500000000000000052e-04,4.000000000000000000e+00,1.900000000000000000e+01
4.625500000000000000e+04,-2.799999999999999755e-04,-4.099999999999999912e-04,-3.699999999999999947e-04,-7.599999999999999334e-04,-1.000000000000000021e-03,-7.900000000000000121e-04,-3.099999999999999999e-04,-2.500000000000000052e-04,4.000000000000000000e+00,1.900000000000000000e+01
4.625600000000000000e+04,-2.799999999999999755e-04,-4.099999999999999912e-04,-3.699999999999999947e-04,-7.599999999999999334e-04,-1.000000000000000021e-03,-7.900000000000000121e-04,-3.099999999999999999e-04,-2.500000000000000052e-04,4.000000000000000000e+00,1.900000000000000000e+01
4.625700000000000000e+04,-2.799999999999999755e-04,-4.099999999999999912e-04,-3.699999999999999947e-04,-7.599999999999999334e-04,-1.000000000000000021e-03,-7.900000000000000121e-04,-3.099999999999999999e-04,-2.500000000000000052e-04,4.000000000000000000e+00,1.900000000000000000e+01
4.625800000000000000e+04,-2.799999999999999755e-04,-4.099999999999999912e-04,-3.699999999999999947e-04,-7.599999999999999334e-04,-1.000000000000000021e-03,-7.900000000000000121e-04,-3.099999999999999999e-04,-2.500000000000000052e-04,4.000000000000000000e+00,1.900000000000000000e+01
4.625900000000000000e+04,-2.799999999999999755e-04,-4.099999999999999912e-04,-3.699999999999999947e-04,-7.599999999999999334e-04,-1.000000000000000021e-03,-7.900000000000000121e-04,-3.099999999999999999e-04,-2.500000000000000052e-04,4.000000000000000000e+00,1.900000000000000000e+01
4.626000000000000000e+04,-2.799999999999999755e-04,-4.099999999999999912e-04,-3.699999999999999947e-04,-7.599999999999999334e-04,-1.000000000000000021e-03,-7.900000000000000121e-04,-3.099999999999999999e-04,-2.500000000000000052e-04,4.000000000000000000e+00,1.900000000000000000e+01
4.626100000000000000e+04,-2.799999999999999755e-04,-4.099999999999999912e-04,-3.699999999999999947e-04,-7.599999999999999334e-04,-1.000000000000000021e-03,-7.900000000000000121e-04,-3.099999999999999999e-04,-2.500000000000000052e-04,4.000000000000000000e+00,1.900000000000000000e+01
4.626200000000000000e+04,-2.799999999999999755e-04,-4.099999999999999912e-04,-3.699999999999999947e-04,-7.599999999999999334e-04,-1.000000000000000021e-03,-7.900000000000000121e-04,-3.099999999999999999e-04,-2.500000000000000052e-04,4.000000000000000000e+00,1.900000000000000000e+01
4.626300000000000000e+04,-2.799999999999999755e-04,-4.099999999999999912e-04,-3.699999999999999947e-04,-7.599999999999999334e-04,-1.000000000000000021e-03,-7.900000000000000121e-04,-3.099999999999999999e-04,-2.500000000000000052e-04,4.000000000000000000e+00,1.900000000000000000e+01
4.626400000000000000e+04,-2.799999999999999755e-04,-4.099999999999999912e-04,-3.699999999999999947e-04,-7.599999999999999334e-04,-1.000000000000000021e-03,-7.900000000000000121e-04,-3.099999999999999999e-04,-2.500000000000000052e-04,4.000000000000000000e+00,1.900000000000000000e+01
4.626500000000000000e+04,-2.799999999999999755e-04,-4.099999999999999912e-04,-3.699999999999999947e-04,-7.599999999999999334e-04,-1.000000000000000021e-03,-7.900000000000000121e-04,-3.099999999999999999e-04,-2.500000000000000052e-04,4.000000000000000000e+00,1.900000000000000000e+01
4.626600000000000000e+04,2.999999999999999737e-05,5.999999999999999474e-05,3.399999999999999702e-04,3.200000000000000262e-04,-1.000000000000000021e-03,-1.040000000000000126e-03,-4.499999999999999877e-04,-1.199999999999999895e-04,4.000000000000000000e+00,1.900000000000000000e+01
4.626700000000000000e+04,2.999999999999999737e-05,5.999999999999999474e-05,3.399999999999999702e-04,3.200000000000000262e-04,-1.000000000000000021e-03,-1.040000000000000126e-03,-4.499999999999999877e-04,-1.199999999999999895e-04,4.000000000000000000e+00,1.900000000000000000e+01
4.626800000000000000e+04,2.999999999999999737e-05,5.999999999999999474e-05,3.399999999999999702e-04,3.200000000000000262e-04,-1.000000000000000021e-03,-1.040000000000000126e-03,-4.499999999999999877e-04,-1.199999999999999895e-04,4.000000000000000000e+00,1.900000000000000000e+01
4.626900000000000000e+04,2.999999999999999737e-05,5.999999999999999474e-05,3.399999999999999702e-04,3.200000000000000262e-04,-1.000000000000000021e-03,-1.040000000000000126e-03,-4.499999999999999877e-04,-1.199999999999999895e-04,4.000000000000000000e+00,1.900000000000000000e+01
4.627000000000000000e+04,2.999999999999999737e-05,5.999999999999999474e-05,3.399999999999999702e-04,3.200000000000000262e-04,-1.000000000000000021e-03,-1.040000000000000126e-03,-4.499999999999999877e-04,-1.199999999999999895e-04,4.000000000000000000e+00,1.900000000000000000e+01
4.627100000000000000e+04,2.999999999999999737e-05,5.999999999999999474e-05,3.399999999999999702e-04,3.200000000000000262e-04,-1.000000000000000021e-03,-1.040000000000000126e-03,-4.499999999999999877e-04,-1.199999999999999895e-04,4.000000000000000000e+00,1.900000000000000000e+01
4.627200000000000000e+04,2.999999999999999737e-05,5.999999999999999474e-05,3.399999999999999702e-04,3.200000000000000262e-04,-1.000000000000000021e-03,-1.040000000000000126e-03,-4.499999999999999877e-04,-1.199999999999999895e-04,4.000000000000000000e+00,1.900000000000000000e+01
4.627300000000000000e+04,2.999999999999999737e-05,5.999999999999999474e-05,3.399999999999999702e-04,3.200000000000000262e-04,-1.000000000000000021e-03,-1.040000000000000126e-03,-4.499999999999999877e-04,-1.199999999999999895e-04,4.000000000000000000e+00,1.900000000000000000e+01
4.627400000000000000e+04,5.999999999999999474e-05,2.600000000000000314e-04,5.900000000000000296e-04,7.599999999999999334e-04,9.400000000000000803e-04,1.090000000000000040e-03,2.200000000000000078e-04,1.100000000000000039e-04,4.000000000000000000e+00,1.900000000000000000e+01
4.627500000000000000e+04,5.999999999999999474e-05,2.600000000000000314e-04,5.900000000000000296e-04,7.599999999999999334e-04,9.400000000000000803e-04,1.090000000000000040e-03,2.200000000000000078e-04,1.100000000000000039e-04,4.000000000000000000e+00,1.900000000000000000e+01
4.627600000000000000e+04,5.999999999999999474e-05,2.600000000000000314e-04,5.900000000000000296e-04,7.599999999999999334e-04,9.400000000000000803e-04,1.090000000000000040e-03,2.200000000000000078e-04,1.100000000000000039e-04,4.000000000000000000e+00,1.900000000000000000e+01
4.627700000000000000e+04,5.999999999999999474e-05,2.600000000000000314e-04,5.900000000000000296e-04,7.599999999999999334e-04,9.400000000000000803e-04,1.090000000000000040e-03,2.200000000000000078e-04,1.100000000000000039e-04,4.000000000000000000e+00,1.900000000000000000e+01
4.627800000000000000e+04,5.999999999999999474e-05,2.600000000000000314e-04,5.900000000000000296e-04,7.599999999999999334e-04,9.400000000000000803e-04,1.090000000000000040e-03,2.200000000000000078e-04,1.100000000000000039e-04,4.000000000000000000e+00,1.900000000000000000e+01
4.627900000000000000e+04,5.999999999999999474e-05,2.600000000000000314e-04,5.900000000000000296e-04,7.599999999999999334e-04,9.400000000000000803e-04,1.090000000000000040e-03,2.200000000000000078e-04,1.100000000000000039e-04,4.000000000000000000e+00,1.900000000000000000e+01
4.628000000000000000e+04,5.999999999999999474e-05,2.600000000000000314e-04,5.900000000000000296e-04,7.599999999999999334e-04,9.400000000000000803e-04,1.090000000000000040e-03,2.200000000000000078e-04,1.100000000000000039e-04,4.000000000000000000e+00,1.900000000000000000e+01
4.628100000000000000e+04,5.999999999999999474e-05,2.600000000000000314e-04,5.900000000000000296e-04,7.599999999999999334e-04,9.400000000000000803e-04,1.090000000000000040e-03,2.200000000000000078e-04,1.100000000000000039e-04,4.000000000000000000e+00,1.900000000000000000e+01
4.628200000000000000e+04,5.999999999999999474e-05,2.600000000000000314e-04,5.900000000000000296e-04,7.599999999999999334e-04,9.400000000000000803e-04,1.090000000000000040e-03,2.200000000000000078e-04,1.100000000000000039e-04,4.000000000000000000e+00,1.900000000000000000e+01
4.628300000000000000e+04,5.999999999999999474e-05,2.600000000000000314e-04,5.900000000000000296e-04,7.599999999999999334e-04,9.400000000000000803e-04,1.090000000000000040e-03,2.200000000000000078e-04,1.100000000000000039e-04,4.000000000000000000e+00,1.900000000000000000e+01
4.628400000000000000e+04,5.999999999999999474e-05,2.600000000000000314e-04,5.900000000000000296e-04,7.599999999999999334e-04,9.400000000000000803e-04,1.090000000000000040e-03,2.200000000000000078e-04,1.100000000000000039e-04,4.000000000000000000e+00,1.900000000000000000e+01
4.628500000000000000e+04,5.999999999999999474e-05,2.600000000000000314e-04,5.900000000000000296e-04,7.599999999999999334e-04,9.400000000000000803e-04,1.090000000000000040e-03,2.200000000000000078e-04,1.100000000000000039e-04,4.000000000000000000e+00,1.900000000000000000e+01
4.628700000000000000e+04,5.999999999999999474e-05,2.600000000000000314e-04,5.900000000000000296e-04,7.599999999999999334e-04,9.400000000000000803e-04,1.090000000000000040e-03,2.200000000000000078e-04,1.100000000000000039e-04,4.000000000000000000e+00,1.900000000000000000e+01
4.629000000000000000e+04,0.000000000000000000e+00,-1.000000000000000082e-05,-9.000000000000000567e-05,3.699999999999999947e-04,2.299999999999999799e-04,-1.100000000000000039e-04,2.700000000000000035e-04,0.000000000000000000e+00,4.000000000000000000e+00,1.900000000000000000e+01
4.629100000000000000e+04,0.000000000000000000e+00,-1.000000000000000082e-05,-9.000000000000000567e-05,3.699999999999999947e-04,2.299999999999999799e-04,-1.100000000000000039e-04,2.700000000000000035e-04,0.000000000000000000e+00,4.000000000000000000e+00,1.900000000000000000e+01
4.629200000000000000e+04,0.000000000000000000e+00,-1.000000000000000082e-05,-9.000000000000000567e-05,3.699999999999999947e-04,2.299999999999999799e-04,-1.100000000000000039e-04,2.700000000000000035e-04,0.000000000000000000e+00,4.000000000000000000e+00,1.900000000000000000e+01
4.629300000000000000e+04,0.000000000000000000e+00,-1.000000000000000082e-05,-9.000000000000000567e-05,3.699999999999999947e-04,2.299999999999999799e-04,-1.100000000000000039e-04,2.700000000000000035e-04,0.000000000000000000e+00,4.000000000000000000e+00,1.900000000000000000e+01
4.629400000000000000e+04,0.000000000000000000e+00,-1.000000000000000082e-05,-9.000000000000000567e-05,3.699999999999999947e-04,2.299999999999999799e-04,-1.100000000000000039e-04,2.700000000000000035e-04,0.000000000000000000e+00,4.000000000000000000e+00,1.900000000000000000e+01
4.629500000000000000e+04,0.000000000000000000e+00,-1.000000000000000082e-05,-9.000000000000000567e-05,3.699999999999999947e-04,2.299999999999999799e-04,-1.100000000000000039e-04,2.700000000000000035e-04,0.000000000000000000e+00,4.000000000000000000e+00,1.900000000000000000e+01
4.629600000000000000e+04,0.000000000000000000e+00,-1.000000000000000082e-05,-9.000000000000000567e-05,3.699999999999999947e-04,2.299999999999999799e-04,-1.100000000000000039e-04,2.700000000000000035e-04,0.000000000000000000e+00,4.000000000000000000e+00,1.900000000000000000e+01
4.629700000000000000e+04,0.000000000000000000e+00,-1.000000000000000082e-05,-9.000000000000000567e-05,3.699999999999999947e-04,2.299999999999999799e-04,-1.100000000000000039e-04,2.700000000000000035e-04,0.000000000000000000e+00,4.000000000000000000e+00,1.900000000000000000e+01
4.629800000000000000e+04,0.000000000000000000e+00,-1.000000000000000082e-05,-9.000000000000000567e-05,3.699999999999999947e-04,2.299999999999999799e-04,-1.100000000000000039e-04,2.700000000000000035e-04,0.000000000000000000e+00,4.000000000000000000e+00,1.900000000000000000e+01
4.629900000000000000e+04,0.000000000000000000e+00,-1.000000000000000082e-05,-9.000000000000000567e-05,3.699999999999999947e-04,2.299999999999999799e-04,-1.100000000000000039e-04,2.700000000000000035e-04,0.000000000000000000e+00,4.000000000000000000e+00,1.900000000000000000e+01
4.630000000000000000e+04,0.000000000000000000e+00,-1.000000000000000082e-05,-9.000000000000000567e-05,3.699999999999999947e-04,2.299999999999999799e-04,-1.100000000000000039e-04,2.700000000000000035e-04,0.000000000000000000e+00,4.000000000000000000e+00,1.900000000000000000e+01
4.630100000000000000e+04,0.000000000000000000e+00,-1.000000000000000082e-05,-9.000000000000000567e-05,3.699999999999999947e-04,2.299999999999999799e-04,-1.100000000000000039e-04,2.700000000000000035e-04,0.000000000000000000e+00,4.000000000000000000e+00,1.900000000000000000e+01
4.630200000000000000e+04,0.000000000000000000e+00,-1.000000000000000082e-05,-9.000000000000000567e-05,3.699999999999999947e-04,2.299999999999999799e-04,-1.100000000000000039e-04,2.700000000000000035e-04,0.000000000000000000e+00,4.000000000000000000e+00,1.900000000000000000e+01
4.630300000000000000e+04,0.000000000000000000e+00,-1.000000000000000082e-05,-9.000000000000000567e-05,3.699999999999999947e-04,2.299999999999999799e-04,-1.100000000000000039e-04,2.700000000000000035e-04,0.000000000000000000e+00,4.000000000000000000e+00,1.900000000000000000e+01
4.630400000000000000e+04,0.000000000000000000e+00,-1.000000000000000082e-05,-9.000000000000000567e-05,3.699999999999999947e-04,2.299999999999999799e-04,-1.100000000000000039e-04,2.700000000000000035e-04,0.000000000000000000e+00,4.000000000000000000e+00,1.900000000000000000e+01
4.630500000000000000e+04,0.000000000000000000e+00,-1.000000000000000082e-05,-9.000000000000000567e-05,3.699999999999999947e-04,2.299999999999999799e-04,-1.100000000000000039e-04,2.700000000000000035e-04,0.000000000000000000e+00,4.000000000000000000e+00,1.900000000000000000e+01
4.630600000000000000e+04,0.000000000000000000e+00,-1.000000000000000082e-05,-9.000000000000000567e-05,3.699999999999999947e-04,2.299999999999999799e-04,-1.100000000000000039e-04,2.700000000000000035e-04,0.000000000000000000e+00,4.000000000000000000e+00,1.900000000000000000e+01
4.630700000000000000e+04,0.000000000000000000e+00,-1.000000000000000082e-05,-9.000000000000000567e-05,3.699999999999999947e-04,2.299999999999999799e-04,-1.100000000000000039e-04,2.700000000000000035e-04,0.000000000000000000e+00,4.000000000000000000e+00,1.900000000000000000e+01
4.630800000000000000e+04,0.000000000000000000e+00,-1.000000000000000082e-05,-9.000000000000000567e-05,3.699999999999999947e-04,2.299999999999999799e-04,-1.100000000000000039e-04,2.700000000000000035e-04,0.000000000000000000e+00,4.000000000000000000e+00,1.900000000000000000e+01
4.630900000000000000e+04,0.000000000000000000e+00,-1.000000000000000082e-05,-9.000000000000000567e-05,3.699999999999999947e-04,2.299999999999999799e-04,-1.100000000000000039e-04,2.700000000000000035e-04,0.000000000000000000e+00,4.000000000000000000e+00,1.900000000000000000e+01
4.631000000000000000e+04,0.000000000000000000e+00,-1.000000000000000082e-05,-9.000000000000000567e-05,3.699999999999999947e-04,2.299999999999999799e-04,-1.100000000000000039e-04,2.700000000000000035e-04,0.000000000000000000e+00,4.000000000000000000e+00,1.900000000000000000e+01
4.631100000000000000e+04,0.000000000000000000e+00,-1.000000000000000082e-05,-9.000000000000000567e-05,3.699999999999999947e-04,2.299999999999999799e-04,-1.100000000000000039e-04,2.700000000000000035e-04,0.000000000000000000e+00,4.000000000000000000e+00,1.900000000000000000e+01
4.631200000000000000e+04,0.000000000000000000e+00,-1.000000000000000082e-05,-9.000000000000000567e-05,3.699999999999999947e-04,2.299999999999999799e-04,-1.100000000000000039e-04,2.700000000000000035e-04,0.000000000000000000e+00,4.000000000000000000e+00,1.900000000000000000e+01
4.631300000000000000e+04,6.999999999999999387e-05,1.800000000000000113e-04,8.499999999999999526e-04,8.199999999999999824e-04,8.000000000000000654e-05,-5.900000000000000296e-04,-1.000000000000000082e-05,2.000000000000000164e-05,4.000000000000000000e+00,1.900000000000000000e+01
4.631400000000000000e+04,6.999999999999999387e-05,1.800000000000000113e-04,8.499999999999999526e-04,8.199999999999999824e-04,8.000000000000000654e-05,-5.900000000000000296e-04,-1.000000000000000082e-05,2.000000000000000164e-05,4.000000000000000000e+00,1.900000000000000000e+01
4.631500000000000000e+04,6.999999999999999387e-05,1.800000000000000113e-04,8.499999999999999526e-04,8.199999999999999824e-04,8.000000000000000654e-05,-5.900000000000000296e-04,-1.000000000000000082e-05,2.000000000000000164e-05,4.000000000000000000e+00,1.900000000000000000e+01
4.631600000000000000e+04,6.999999999999999387e-05,1.800000000000000113e-04,8.499999999999999526e-04,8.199999999999999824e-04,8.000000000000000654e-05,-5.900000000000000296e-04,-1.000000000000000082e-05,2.000000000000000164e-05,4.000000000000000000e+00,1.900000000000000000e+01
4.631700000000000000e+04,6.999999999999999387e-05,1.800000000000000113e-04,8.499999999999999526e-04,8.199999999999999824e-04,8.000000000000000654e-05,-5.900000000000000296e-04,-1.000000000000000082e-05,2.000000000000000164e-05,4.000000000000000000e+00,1.900000000000000000e+01
4.631800000000000000e+04,6.999999999999999387e-05,1.800000000000000113e-04,8.499999999999999526e-04,8.199999999999999824e-04,8.000000000000000654e-05,-5.900000000000000296e-04,-1.000000000000000082e-05,2.000000000000000164e-05,4.000000000000000000e+00,1.900000000000000000e+01
4.631900000000000000e+04,6.999999999999999387e-05,1.800000000000000113e-04,8.499999999999999526e-04,8.199999999999999824e-04,8.000000000000000654e-05,-5.900000000000000296e-04,-1.000000000000000082e-05,2.000000000000000164e-05,4.000000000000000000e+00,1.900000000000000000e+01
4.632000000000000000e+04,6.999999999999999387e-05,1.800000000000000113e-04,8.499999999999999526e-04,8.199999999999999824e-04,8.000000000000000654e-05,-5.900000000000000296e-04,-1.000000000000000082e-05,2.000000000000000164e-05,4.000000000000000000e+00,1.900000000000000000e+01
4.632100000000000000e+04,6.999999999999999387e-05,1.800000000000000113e-04,8.499999999999999526e-04,8.199999999999999824e-04,8.000000000000000654e-05,-5.900000000000000296e-04,-1.000000000000000082e-05,2.000000000000000164e-05,4.000000000000000000e+00,1.900000000000000000e+01
4.632200000000000000e+04,6.999999999999999387e-05,1.800000000000000113e-04,8.499999999999999526e-04,8.199999999999999824e-04,8.000000000000000654e-05,-5.900000000000000296e-04,-1.000000000000000082e-05,2.000000000000000164e-05,4.000000000000000000e+00,1.900000000000000000e+01
4.632300000000000000e+04,6.999999999999999387e-05,1.800000000000000113e-04,8.499999999999999526e-04,8.199999999999999824e-04,8.000000000000000654e-05,-5.900000000000000296e-04,-1.000000000000000082e-05,2.000000000000000164e-05,4.000000000000000000e+00,1.900000000000000000e+01
4.632400000000000000e+04,6.999999999999999387e-05,1.800000000000000113e-04,8.499999999999999526e-04,8.199999999999999824e-04,8.000000000000000654e-05,-5.900000000000000296e-04,-1.000000000000000082e-05,2.000000000000000164e-05,4.000000000000000000e+00,1.900000000000000000e+01
4.632500000000000000e+04,6.999999999999999387e-05,1.800000000000000113e-04,8.499999999999999526e-04,8.199999999999999824e-04,8.000000000000000654e-05,-5.900000000000000296e-04,-1.000000000000000082e-05,2.000000000000000164e-05,4.000000000000000000e+00,1.900000000000000000e+01
4.632600000000000000e+04,-1.800000000000000113e-04,-3.399999999999999702e-04,-4.799999999999999580e-04,-6.300000000000000261e-04,-1.280000000000000105e-03,-9.199999999999999194e-04,-5.999999999999999474e-04,-3.600000000000000227e-04,4.000000000000000000e+00,1.900000000000000000e+01
4.632700000000000000e+04,-1.800000000000000113e-04,-3.399999999999999702e-04,-4.799999999999999580e-04,-6.300000000000000261e-04,-1.280000000000000105e-03,-9.199999999999999194e-04,-5.999999999999999474e-04,-3.600000000000000227e-04,4.000000000000000000e+00,1.900000000000000000e+01
4.632800000000000000e+04,-1.800000000000000113e-04,-3.399999999999999702e-04,-4.799999999999999580e-04,-6.300000000000000261e-04,-1.280000000000000105e-03,-9.199999999999999194e-04,-5.999999999999999474e-04,-3.600000000000000227e-04,4.000000000000000000e+00,1.900000000000000000e+01
4.632900000000000000e+04,-1.800000000000000113e-04,-3.399999999999999702e-04,-4.799999999999999580e-04,-6.300000000000000261e-04,-1.280000000000000105e-03,-9.199999999999999194e-04,-5.999999999999999474e-04,-3.600000000000000227e-04,4.000000000000000000e+00,1.900000000000000000e+01
4.633000000000000000e+04,-1.800000000000000113e-04,-3.399999999999999702e-04,-4.799999999999999580e-04,-6.300000000000000261e-04,-1.280000000000000105e-03,-9.199999999999999194e-04,-5.999999999999999474e-04,-3.600000000000000227e-04,4.000000000000000000e+00,1.900000000000000000e+01
4.633100000000000000e+04,-1.800000000000000113e-04,-3.399999999999999702e-04,-4.799999999999999580e-04,-6.300000000000000261e-04,-1.280000000000000105e-03,-9.199999999999999194e-04,-5.999999999999999474e-04,-3.600000000000000227e-04,4.000000000000000000e+00,1.900000000000000000e+01
4.633200000000000000e+04,-1.800000000000000113e-04,-3.399999999999999702e-04,-4.799999999999999580e-04,-6.300000000000000261e-04,-1.280000000000000105e-03,-9.199999999999999194e-04,-5.999999999999999474e-04,-3.600000000000000227e-04,4.000000000000000000e+00,1.900000000000000000e+01
4.633300000000000000e+04,-1.800000000000000113e-04,-3.399999999999999702e-04,-4.799999999999999580e-04,-6.300000000000000261e-04,-1.280000000000000105e-03,-9.199999999999999194e-04,-5.999999999999999474e-04,-3.600000000000000227e-04,4.000000000000000000e+00,1.900000000000000000e+01
4.633400000000000000e+04,-1.000000000000000048e-04,6.999999999999999387e-05,4.899999999999999842e-04,5.000000000000000104e-04,6.300000000000000261e-04,5.900000000000000296e-04,-6.999999999999999387e-05,0.000000000000000000e+00,4.000000000000000000e+00,1.900000000000000000e+01
4.633500000000000000e+04,4.000000000000000327e-05,-1.399999999999999877e-04,4.000000000000000327e-05,-2.100000000000000087e-04,-5.999999999999999474e-05,4.299999999999999894e-04,1.699999999999999851e-04,1.000000000000000048e-04,4.000000000000000000e+00,1.900000000000000000e+01
4.633700000000000000e+04,4.000000000000000327e-05,-1.399999999999999877e-04,4.000000000000000327e-05,-2.100000000000000087e-04,-5.999999999999999474e-05,4.299999999999999894e-04,1.699999999999999851e-04,1.000000000000000048e-04,4.000000000000000000e+00,1.900000000000000000e+01
4.634000000000000000e+04,4.000000000000000327e-05,-1.399999999999999877e-04,4.000000000000000327e-05,-2.100000000000000087e-04,-5.999999999999999474e-05,4.299999999999999894e-04,1.699999999999999851e-04,1.000000000000000048e-04,4.000000000000000000e+00,1.900000000000000000e+01
4.634100000000000000e+04,4.000000000000000327e-05,-1.399999999999999877e-04,4.000000000000000327e-05,-2.100000000000000087e-04,-5.999999999999999474e-05,4.299999999999999894e-04,1.699999999999999851e-04,1.000000000000000048e-04,4.000000000000000000e+00,1.900000000000000000e+01
4.634200000000000000e+04,4.000000000000000327e-05,-1.399999999999999877e-04,4.000000000000000327e-05,-2.100000000000000087e-04,-5.999999999999999474e-05,4.299999999999999894e-04,1.699999999999999851e-04,1.000000000000000048e-04,4.000000000000000000e+00,1.900000000000000000e+01
4.634300000000000000e+04,4.000000000000000327e-05,-1.399999999999999877e-04,4.000000000000000327e-05,-2.100000000000000087e-04,-5.999999999999999474e-05,4.299999999999999894e-04,1.699999999999999851e-04,1.000000000000000048e-04,4.000000000000000000e+00,1.900000000000000000e+01
4.634400000000000000e+04,4.000000000000000327e-05,-1.399999999999999877e-04,4.000000000000000327e-05,-2.100000000000000087e-04,-5.999999999999999474e-05,4.299999999999999894e-04,1.699999999999999851e-04,1.000000000000000048e-04,4.000000000000000000e+00,1.900000000000000000e+01
4.634500000000000000e+04,4.000000000000000327e-05,-1.399999999999999877e-04,4.000000000000000327e-05,-2.100000000000000087e-04,-5.999999999999999474e-05,4.299999999999999894e-04,1.699999999999999851e-04,1.000000000000000048e-04,4.000000000000000000e+00,1.900000000000000000e+01
4.634600000000000000e+04,4.000000000000000327e-05,-1.399999999999999877e-04,4.000000000000000327e-05,-2.100000000000000087e-04,-5.999999999999999474e-05,4.299999999999999894e-04,1.699999999999999851e-04,1.000000000000000048e-04,4.000000000000000000e+00,1.900000000000000000e+01
4.634700000000000000e+04,4.000000000000000327e-05,-1.399999999999999877e-04,4.000000000000000327e-05,-2.100000000000000087e-04,-5.999999999999999474e-05,4.299999999999999894e-04,1.699999999999999851e-04,1.000000000000000048e-04,4.000000000000000000e+00,1.900000000000000000e+01
4.634800000000000000e+04,4.000000000000000327e-05,-1.399999999999999877e-04,4.000000000000000327e-05,-2.100000000000000087e-04,-5.999999999999999474e-05,4.299999999999999894e-04,1.699999999999999851e-04,1.000000000000000048e-04,4.000000000000000000e+00,1.900000000000000000e+01
4.634900000000000000e+04,1.699999999999999851e-04,0.000000000000000000e+00,5.000000000000000240e-05,6.300000000000000261e-04,1.069999999999999988e-03,1.000000000000000048e-04,6.900000000000000751e-04,2.600000000000000314e-04,4.000000000000000000e+00,1.900000000000000000e+01
4.635000000000000000e+04,5.999999999999999474e-05,2.999999999999999737e-04,3.499999999999999964e-04,3.600000000000000227e-04,-9.499999999999999981e-04,-3.899999999999999929e-04,-1.300000000000000157e-04,4.000000000000000327e-05,4.000000000000000000e+00,1.900000000000000000e+01
4.635100000000000000e+04,5.999999999999999474e-05,2.999999999999999737e-04,3.499999999999999964e-04,3.600000000000000227e-04,-9.499999999999999981e-04,-3.899999999999999929e-04,-1.300000000000000157e-04,4.000000000000000327e-05,4.000000000000000000e+00,1.900000000000000000e+01
4.635200000000000000e+04,5.999999999999999474e-05,2.999999999999999737e-04,3.499999999999999964e-04,3.600000000000000227e-04,-9.499999999999999981e-04,-3.899999999999999929e-04,-1.300000000000000157e-04,4.000000000000000327e-05,4.000000000000000000e+00,1.900000000000000000e+01
4.635300000000000000e+04,5.999999999999999474e-05,2.999999999999999737e-04,3.499999999999999964e-04,3.600000000000000227e-04,-9.499999999999999981e-04,-3.899999999999999929e-04,-1.300000000000000157e-04,4.000000000000000327e-05,4.000000000000000000e+00,1.900000000000000000e+01
4.635400000000000000e+04,5.999999999999999474e-05,2.999999999999999737e-04,3.499999999999999964e-04,3.600000000000000227e-04,-9.499999999999999981e-04,-3.899999999999999929e-04,-1.300000000000000157e-04,4.000000000000000327e-05,4.000000000000000000e+00,1.900000000000000000e+01
4.635500000000000000e+04,5.999999999999999474e-05,2.999999999999999737e-04,3.499999999999999964e-04,3.600000000000000227e-04,-9.499999999999999981e-04,-3.899999999999999929e-04,-1.300000000000000157e-04,4.000000000000000327e-05,4.000000000000000000e+00,1.900000000000000000e+01
4.635600000000000000e+04,5.999999999999999474e-05,2.999999999999999737e-04,3.499999999999999964e-04,3.600000000000000227e-04,-9.499999999999999981e-04,-3.899999999999999929e-04,-1.300000000000000157e-04,4.000000000000000327e-05,4.000000000000000000e+00,1.900000000000000000e+01
4.635700000000000000e+04,5.999999999999999474e-05,2.999999999999999737e-04,3.499999999999999964e-04,3.600000000000000227e-04,-9.499999999999999981e-04,-3.899999999999999929e-04,-1.300000000000000157e-04,4.000000000000000327e-05,4.000000000000000000e+00,1.900000000000000000e+01
4.635800000000000000e+04,5.999999999999999474e-05,2.999999999999999737e-04,3.499999999999999964e-04,3.600000000000000227e-04,-9.499999999999999981e-04,-3.899999999999999929e-04,-1.300000000000000157e-04,4.000000000000000327e-05,4.000000000000000000e+00,1.900000000000000000e+01
4.635900000000000000e+04,5.999999999999999474e-05,2.999999999999999737e-04,3.499999999999999964e-04,3.600000000000000227e-04,-9.499999999999999981e-04,-3.899999999999999929e-04,-1.300000000000000157e-04,4.000000000000000327e-05,4.000000000000000000e+00,1.900000000000000000e+01
4.636000000000000000e+04,5.999999999999999474e-05,2.999999999999999737e-04,3.499999999999999964e-04,3.600000000000000227e-04,-9.499999999999999981e-04,-3.899999999999999929e-04,-1.300000000000000157e-04,4.000000000000000327e-05,4.000000000000000000e+00,1.900000000000000000e+01
4.636100000000000000e+04,5.999999999999999474e-05,2.999999999999999737e-04,3.499999999999999964e-04,3.600000000000000227e-04,-9.499999999999999981e-04,-3.899999999999999929e-04,-1.300000000000000157e-04,4.000000000000000327e-05,4.000000000000000000e+00,1.900000000000000000e+01
4.636200000000000000e+04,5.999999999999999474e-05,2.999999999999999737e-04,3.499999999999999964e-04,3.600000000000000227e-04,-9.499999999999999981e-04,-3.899999999999999929e-04,-1.300000000000000157e-04,4.000000000000000327e-05,4.000000000000000000e+00,1.900000000000000000e+01
4.636300000000000000e+04,5.999999999999999474e-05,2.999999999999999737e-04,3.499999999999999964e-04,3.600000000000000227e-04,-9.499999999999999981e-04,-3.899999999999999929e-04,-1.300000000000000157e-04,4.000000000000000327e-05,4.000000000000000000e+00,1.900000000000000000e+01
4.636400000000000000e+04,5.999999999999999474e-05,2.999999999999999737e-04,3.499999999999999964e-04,3.600000000000000227e-04,-9.499999999999999981e-04,-3.899999999999999929e-04,-1.300000000000000157e-04,4.000000000000000327e-05,4.000000000000000000e+00,1.900000000000000000e+01
4.636500000000000000e+04,5.999999999999999474e-05,2.999999999999999737e-04,3.499999999999999964e-04,3.600000000000000227e-04,-9.499999999999999981e-04,-3.899999999999999929e-04,-1.300000000000000157e-04,4.000000000000000327e-05,4.000000000000000000e+00,1.900000000000000000e+01
4.636600000000000000e+04,5.999999999999999474e-05,2.999999999999999737e-04,3.499999999999999964e-04,3.600000000000000227e-04,-9.499999999999999981e-04,-3.899999999999999929e-04,-1.300000000000000157e-04,4.000000000000000327e-05,4.000000000000000000e+00,1.900000000000000000e+01
4.636700000000000000e+04,5.999999999999999474e-05,2.999999999999999737e-04,3.499999999999999964e-04,3.600000000000000227e-04,-9.499999999999999981e-04,-3.899999999999999929e-04,-1.300000000000000157e-04,4.000000000000000327e-05,4.000000000000000000e+00,1.900000000000000000e+01
4.636800000000000000e+04,5.999999999999999474e-05,2.999999999999999737e-04,3.499999999999999964e-04,3.600000000000000227e-04,-9.499999999999999981e-04,-3.899999999999999929e-04,-1.300000000000000157e-04,4.000000000000000327e-05,4.000000000000000000e+00,1.900000000000000000e+01
4.636900000000000000e+04,5.999999999999999474e-05,2.999999999999999737e-04,3.499999999999999964e-04,3.600000000000000227e-04,-9.499999999999999981e-04,-3.899999999999999929e-04,-1.300000000000000157e-04,4.000000000000000327e-05,4.000000000000000000e+00,1.900000000000000000e+01
4.637000000000000000e+04,5.999999999999999474e-05,2.999999999999999737e-04,3.499999999999999964e-04,3.600000000000000227e-04,-9.499999999999999981e-04,-3.899999999999999929e-04,-1.300000000000000157e-04,4.000000000000000327e-05,4.000000000000000000e+00,1.900000000000000000e+01
4.637100000000000000e+04,5.999999999999999474e-05,2.999999999999999737e-04,3.499999999999999964e-04,3.600000000000000227e-04,-9.499999999999999981e-04,-3.899999999999999929e-04,-1.300000000000000157e-04,4.000000000000000327e-05,4.000000000000000000e+00,1.900000000000000000e+01
4.637200000000000000e+04,5.999999999999999474e-05,2.999999999999999737e-04,3.499999999999999964e-04,3.600000000000000227e-04,-9.499999999999999981e-04,-3.899999999999999929e-04,-1.300000000000000157e-04,4.000000000000000327e-05,4.000000000000000000e+00,1.900000000000000000e+01
4.637300000000000000e+04,9.000000000000000567e-05,1.100000000000000039e-04,5.999999999999999474e-04,-1.499999999999999869e-04,-4.799999999999999580e-04,-1.069999999999999988e-03,-3.200000000000000262e-04,-4.000000000000000327e-05,4.000000000000000000e+00,1.900000000000000000e+01
4.637400000000000000e+04,-8.000000000000000654e-05,-1.100000000000000039e-04,-4.799999999999999580e-04,-1.280000000000000105e-03,-3.600000000000000227e-04,-4.499999999999999877e-04,2.399999999999999790e-04,6.999999999999999387e-05,4.000000000000000000e+00,1.900000000000000000e+01
4.637500000000000000e+04,-8.000000000000000654e-05,-1.100000000000000039e-04,-4.799999999999999580e-04,-1.280000000000000105e-03,-3.600000000000000227e-04,-4.499999999999999877e-04,2.399999999999999790e-04,6.999999999999999387e-05,4.000000000000000000e+00,1.900000000000000000e+01
4.637600000000000000e+04,-8.000000000000000654e-05,-1.100000000000000039e-04,-4.799999999999999580e-04,-1.280000000000000105e-03,-3.600000000000000227e-04,-4.499999999999999877e-04,2.399999999999999790e-04,6.999999999999999387e-05,4.000000000000000000e+00,1.900000000000000000e+01
4.637700000000000000e+04,-8.000000000000000654e-05,-1.100000000000000039e-04,-4.799999999999999580e-04,-1.280000000000000105e-03,-3.600000000000000227e-04,-4.499999999999999877e-04,2.399999999999999790e-04,6.999999999999999387e-05,4.000000000000000000e+00,1.900000000000000000e+01
4.637800000000000000e+04,-8.000000000000000654e-05,-1.100000000000000039e-04,-4.799999999999999580e-04,-1.280000000000000105e-03,-3.600000000000000227e-04,-4.499999999999999877e-04,2.399999999999999790e-04,6.999999999999999387e-05,4.000000000000000000e+00,1.900000000000000000e+01
4.637900000000000000e+04,-8.000000000000000654e-05,-1.100000000000000039e-04,-4.799999999999999580e-04,-1.280000000000000105e-03,-3.600000000000000227e-04,-4.499999999999999877e-04,2.399999999999999790e-04,6.999999999999999387e-05,4.000000000000000000e+00,1.900000000000000000e+01
4.638000000000000000e+04,-8.000000000000000654e-05,-1.100000000000000039e-04,-4.799999999999999580e-04,-1.280000000000000105e-03,-3.600000000000000227e-04,-4.499999999999999877e-04,2.399999999999999790e-04,6.999999999999999387e-05,4.000000000000000000e+00,1.900000000000000000e+01
4.638100000000000000e+04,-8.000000000000000654e-05,-1.100000000000000039e-04,-4.799999999999999580e-04,-1.280000000000000105e-03,-3.600000000000000227e-04,-4.499999999999999877e-04,2.399999999999999790e-04,6.999999999999999387e-05,4.000000000000000000e+00,1.900000000000000000e+01
4.638200000000000000e+04,-8.000000000000000654e-05,-1.100000000000000039e-04,-4.799999999999999580e-04,-1.280000000000000105e-03,-3.600000000000000227e-04,-4.499999999999999877e-04,2.399999999999999790e-04,6.999999999999999387e-05,4.000000000000000000e+00,1.900000000000000000e+01
4.638300000000000000e+04,-8.000000000000000654e-05,-1.100000000000000039e-04,-4.799999999999999580e-04,-1.280000000000000105e-03,-3.600000000000000227e-04,-4.499999999999999877e-04,2.399999999999999790e-04,6.999999999999999387e-05,4.000000000000000000e+00,1.900000000000000000e+01
4.638400000000000000e+04,-8.000000000000000654e-05,-1.100000000000000039e-04,-4.799999999999999580e-04,-1.280000000000000105e-03,-3.600000000000000227e-04,-4.499999999999999877e-04,2.399999999999999790e-04,6.999999999999999387e-05,4.000000000000000000e+00,1.900000000000000000e+01
4.638500000000000000e+04,-8.000000000000000654e-05,-1.100000000000000039e-04,-4.799999999999999580e-04,-1.280000000000000105e-03,-3.600000000000000227e-04,-4.499999999999999877e-04,2.399999999999999790e-04,6.999999999999999387e-05,4.000000000000000000e+00,1.900000000000000000e+01
4.638600000000000000e+04,-8.000000000000000654e-05,-1.100000000000000039e-04,-4.799999999999999580e-04,-1.280000000000000105e-03,-3.600000000000000227e-04,-4.499999999999999877e-04,2.399999999999999790e-04,6.999999999999999387e-05,4.000000000000000000e+00,1.900000000000000000e+01
4.639000000000000000e+04,-8.000000000000000654e-05,-1.100000000000000039e-04,-4.799999999999999580e-04,-1.280000000000000105e-03,-3.600000000000000227e-04,-4.499999999999999877e-04,2.399999999999999790e-04,6.999999999999999387e-05,4.000000000000000000e+00,1.900000000000000000e+01
4.639100000000000000e+04,-8.000000000000000654e-05,-1.100000000000000039e-04,-4.799999999999999580e-04,-1.280000000000000105e-03,-3.600000000000000227e-04,-4.499999999999999877e-04,2.399999999999999790e-04,6.999999999999999387e-05,4.000000000000000000e+00,1.900000000000000000e+01
4.639200000000000000e+04,-8.000000000000000654e-05,-1.100000000000000039e-04,-4.799999999999999580e-04,-1.280000000000000105e-03,-3.600000000000000227e-04,-4.499999999999999877e-04,2.399999999999999790e-04,6.999999999999999387e-05,4.000000000000000000e+00,1.900000000000000000e+01
4.639300000000000000e+04,-8.000000000000000654e-05,-1.100000000000000039e-04,-4.799999999999999580e-04,-1.280000000000000105e-03,-3.600000000000000227e-04,-4.499999999999999877e-04,2.399999999999999790e-04,6.999999999999999387e-05,4.000000000000000000e+00,1.900000000000000000e+01
4.639400000000000000e+04,-8.000000000000000654e-05,-1.100000000000000039e-04,-4.799999999999999580e-04,-1.280000000000000105e-03,-3.600000000000000227e-04,-4.499999999999999877e-04,2.399999999999999790e-04,6.999999999999999387e-05,4.000000000000000000e+00,1.900000000000000000e+01
4.639500000000000000e+04,1.000000000000000082e-05,1.899999999999999834e-04,8.400000000000000348e-04,9.899999999999999946e-04,1.000000000000000082e-05,2.299999999999999799e-04,1.000000000000000082e-05,-1.000000000000000048e-04,4.000000000000000000e+00,1.900000000000000000e+01
4.639600000000000000e+04,-2.999999999999999737e-05,1.199999999999999895e-04,1.300000000000000157e-04,2.000000000000000164e-05,-4.000000000000000192e-04,-3.299999999999999982e-04,-1.100000000000000039e-04,-9.000000000000000567e-05,4.000000000000000000e+00,1.900000000000000000e+01
4.639700000000000000e+04,-2.999999999999999737e-05,1.199999999999999895e-04,1.300000000000000157e-04,2.000000000000000164e-05,-4.000000000000000192e-04,-3.299999999999999982e-04,-1.100000000000000039e-04,-9.000000000000000567e-05,4.000000000000000000e+00,1.900000000000000000e+01
