6.131100000000000000e+04,-2.000000000000000164e-05,1.000000000000000082e-05,1.399999999999999877e-04,3.499999999999999964e-04,-4.000000000000000327e-05,2.399999999999999790e-04,2.799999999999999755e-04,3.099999999999999999e-04,6.000000000000000000e+00,2.300000000000000000e+01
6.131200000000000000e+04,-2.000000000000000164e-05,1.000000000000000082e-05,1.399999999999999877e-04,3.499999999999999964e-04,-4.000000000000000327e-05,2.399999999999999790e-04,2.799999999999999755e-04,3.099999999999999999e-04,6.000000000000000000e+00,2.300000000000000000e+01
6.131300000000000000e+04,1.000000000000000082e-05,2.999999999999999737e-05,2.000000000000000096e-04,8.699999999999998967e-04,5.699999999999999772e-04,-2.200000000000000078e-04,2.100000000000000087e-04,2.999999999999999737e-05,6.000000000000000000e+00,2.300000000000000000e+01
6.131400000000000000e+04,1.000000000000000082e-05,2.999999999999999737e-05,2.000000000000000096e-04,8.699999999999998967e-04,5.699999999999999772e-04,-2.200000000000000078e-04,2.100000000000000087e-04,2.999999999999999737e-05,6.000000000000000000e+00,2.300000000000000000e+01
6.131500000000000000e+04,1.000000000000000082e-05,2.999999999999999737e-05,2.000000000000000096e-04,8.699999999999998967e-04,5.699999999999999772e-04,-2.200000000000000078e-04,2.100000000000000087e-04,2.999999999999999737e-05,6.000000000000000000e+00,2.300000000000000000e+01
6.131600000000000000e+04,1.000000000000000082e-05,2.999999999999999737e-05,2.000000000000000096e-04,8.699999999999998967e-04,5.699999999999999772e-04,-2.200000000000000078e-04,2.100000000000000087e-04,2.999999999999999737e-05,6.000000000000000000e+00,2.300000000000000000e+01
6.131700000000000000e+04,1.000000000000000082e-05,2.999999999999999737e-05,2.000000000000000096e-04,8.699999999999998967e-04,5.699999999999999772e-04,-2.200000000000000078e-04,2.100000000000000087e-04,2.999999999999999737e-05,6.000000000000000000e+00,2.300000000000000000e+01
6.131800000000000000e+04,1.000000000000000082e-05,2.999999999999999737e-05,2.000000000000000096e-04,8.699999999999998967e-04,5.699999999999999772e-04,-2.200000000000000078e-04,2.100000000000000087e-04,2.999999999999999737e-05,6.000000000000000000e+00,2.300000000000000000e+01
6.131900000000000000e+04,1.000000000000000082e-05,2.999999999999999737e-05,2.000000000000000096e-04,8.699999999999998967e-04,5.699999999999999772e-04,-2.200000000000000078e-04,2.100000000000000087e-04,2.999999999999999737e-05,6.000000000000000000e+00,2.300000000000000000e+01
6.132000000000000000e+04,1.000000000000000082e-05,2.999999999999999737e-05,2.000000000000000096e-04,8.699999999999998967e-04,5.699999999999999772e-04,-2.200000000000000078e-04,2.100000000000000087e-04,2.999999999999999737e-05,6.000000000000000000e+00,2.300000000000000000e+01
6.132100000000000000e+04,1.000000000000000082e-05,2.999999999999999737e-05,2.000000000000000096e-04,8.699999999999998967e-04,5.699999999999999772e-04,-2.200000000000000078e-04,2.100000000000000087e-04,2.999999999999999737e-05,6.000000000000000000e+00,2.300000000000000000e+01
6.132200000000000000e+04,1.000000000000000082e-05,2.999999999999999737e-05,2.000000000000000096e-04,8.699999999999998967e-04,5.699999999999999772e-04,-2.200000000000000078e-04,2.100000000000000087e-04,2.999999999999999737e-05,6.000000000000000000e+00,2.300000000000000000e+01
6.132300000000000000e+04,1.000000000000000082e-05,2.999999999999999737e-05,2.000000000000000096e-04,8.699999999999998967e-04,5.699999999999999772e-04,-2.200000000000000078e-04,2.100000000000000087e-04,2.999999999999999737e-05,6.000000000000000000e+00,2.300000000000000000e+01
6.132400000000000000e+04,1.000000000000000082e-05,2.999999999999999737e-05,2.000000000000000096e-04,8.699999999999998967e-04,5.699999999999999772e-04,-2.200000000000000078e-04,2.100000000000000087e-04,2.999999999999999737e-05,6.000000000000000000e+00,2.300000000000000000e+01
6.132500000000000000e+04,1.000000000000000082e-05,2.999999999999999737e-05,2.000000000000000096e-04,8.699999999999998967e-04,5.699999999999999772e-04,-2.200000000000000078e-04,2.100000000000000087e-04,2.999999999999999737e-05,6.000000000000000000e+00,2.300000000000000000e+01
6.132600000000000000e+04,1.000000000000000082e-05,2.999999999999999737e-05,2.000000000000000096e-04,8.699999999999998967e-04,5.699999999999999772e-04,-2.200000000000000078e-04,2.100000000000000087e-04,2.999999999999999737e-05,6.000000000000000000e+00,2.300000000000000000e+01
6.132700000000000000e+04,1.000000000000000082e-05,2.999999999999999737e-05,2.000000000000000096e-04,8.699999999999998967e-04,5.699999999999999772e-04,-2.200000000000000078e-04,2.100000000000000087e-04,2.999999999999999737e-05,6.000000000000000000e+00,2.300000000000000000e+01
6.132800000000000000e+04,1.000000000000000082e-05,2.999999999999999737e-05,2.000000000000000096e-04,8.699999999999998967e-04,5.699999999999999772e-04,-2.200000000000000078e-04,2.100000000000000087e-04,2.999999999999999737e-05,6.000000000000000000e+00,2.300000000000000000e+01
6.132900000000000000e+04,1.000000000000000082e-05,-2.999999999999999737e-05,-2.100000000000000087e-04,-1.059999999999999961e-03,-3.699999999999999947e-04,-5.999999999999999474e-05,1.000000000000000048e-04,1.399999999999999877e-04,6.000000000000000000e+00,2.300000000000000000e+01
6.133000000000000000e+04,1.000000000000000082e-05,-2.999999999999999737e-05,-2.100000000000000087e-04,-1.059999999999999961e-03,-3.699999999999999947e-04,-5.999999999999999474e-05,1.000000000000000048e-04,1.399999999999999877e-04,6.000000000000000000e+00,2.300000000000000000e+01
6.133100000000000000e+04,-1.000000000000000082e-05,-2.999999999999999737e-05,-1.000000000000000082e-05,2.999999999999999737e-05,-8.900000000000000576e-04,1.000000000000000082e-05,-5.999999999999999474e-05,2.999999999999999737e-05,6.000000000000000000e+00,2.300000000000000000e+01
6.133200000000000000e+04,-1.000000000000000082e-05,-2.999999999999999737e-05,-1.000000000000000082e-05,2.999999999999999737e-05,-8.900000000000000576e-04,1.000000000000000082e-05,-5.999999999999999474e-05,2.999999999999999737e-05,6.000000000000000000e+00,2.300000000000000000e+01
6.133300000000000000e+04,-1.000000000000000082e-05,-2.999999999999999737e-05,-1.000000000000000082e-05,2.999999999999999737e-05,-8.900000000000000576e-04,1.000000000000000082e-05,-5.999999999999999474e-05,2.999999999999999737e-05,6.000000000000000000e+00,2.300000000000000000e+01
6.133400000000000000e+04,-1.000000000000000082e-05,-2.999999999999999737e-05,-1.000000000000000082e-05,2.999999999999999737e-05,-8.900000000000000576e-04,1.000000000000000082e-05,-5.999999999999999474e-05,2.999999999999999737e-05,6.000000000000000000e+00,2.300000000000000000e+01
6.133500000000000000e+04,-1.000000000000000082e-05,-2.999999999999999737e-05,-1.000000000000000082e-05,2.999999999999999737e-05,-8.900000000000000576e-04,1.000000000000000082e-05,-5.999999999999999474e-05,2.999999999999999737e-05,6.000000000000000000e+00,2.300000000000000000e+01
6.133700000000000000e+04,-1.000000000000000082e-05,-2.999999999999999737e-05,-1.000000000000000082e-05,2.999999999999999737e-05,-8.900000000000000576e-04,1.000000000000000082e-05,-5.999999999999999474e-05,2.999999999999999737e-05,6.000000000000000000e+00,2.300000000000000000e+01
6.133900000000000000e+04,-1.000000000000000082e-05,-2.999999999999999737e-05,-1.000000000000000082e-05,2.999999999999999737e-05,-8.900000000000000576e-04,1.000000000000000082e-05,-5.999999999999999474e-05,2.999999999999999737e-05,6.000000000000000000e+00,2.300000000000000000e+01
6.134000000000000000e+04,-1.000000000000000082e-05,-2.999999999999999737e-05,-1.000000000000000082e-05,2.999999999999999737e-05,-8.900000000000000576e-04,1.000000000000000082e-05,-5.999999999999999474e-05,2.999999999999999737e-05,6.000000000000000000e+00,2.300000000000000000e+01
6.134100000000000000e+04,-1.000000000000000082e-05,-2.999999999999999737e-05,-1.000000000000000082e-05,2.999999999999999737e-05,-8.900000000000000576e-04,1.000000000000000082e-05,-5.999999999999999474e-05,2.999999999999999737e-05,6.000000000000000000e+00,2.300000000000000000e+01
6.134200000000000000e+04,-1.000000000000000082e-05,-2.999999999999999737e-05,-1.000000000000000082e-05,2.999999999999999737e-05,-8.900000000000000576e-04,1.000000000000000082e-05,-5.999999999999999474e-05,2.999999999999999737e-05,6.000000000000000000e+00,2.300000000000000000e+01
6.134300000000000000e+04,-1.000000000000000082e-05,-2.999999999999999737e-05,-1.000000000000000082e-05,2.999999999999999737e-05,-8.900000000000000576e-04,1.000000000000000082e-05,-5.999999999999999474e-05,2.999999999999999737e-05,6.000000000000000000e+00,2.300000000000000000e+01
6.134400000000000000e+04,-1.000000000000000082e-05,-2.999999999999999737e-05,-1.000000000000000082e-05,2.999999999999999737e-05,-8.900000000000000576e-04,1.000000000000000082e-05,-5.999999999999999474e-05,2.999999999999999737e-05,6.000000000000000000e+00,2.300000000000000000e+01
6.134500000000000000e+04,-1.000000000000000082e-05,-2.999999999999999737e-05,-1.000000000000000082e-05,2.999999999999999737e-05,-8.900000000000000576e-04,1.000000000000000082e-05,-5.999999999999999474e-05,2.999999999999999737e-05,6.000000000000000000e+00,2.300000000000000000e+01
6.134600000000000000e+04,-1.000000000000000082e-05,-2.999999999999999737e-05,-1.000000000000000082e-05,2.999999999999999737e-05,-8.900000000000000576e-04,1.000000000000000082e-05,-5.999999999999999474e-05,2.999999999999999737e-05,6.000000000000000000e+00,2.300000000000000000e+01
6.134700000000000000e+04,-1.000000000000000082e-05,-2.999999999999999737e-05,-1.000000000000000082e-05,2.999999999999999737e-05,-8.900000000000000576e-04,1.000000000000000082e-05,-5.999999999999999474e-05,2.999999999999999737e-05,6.000000000000000000e+00,2.300000000000000000e+01
6.134800000000000000e+04,-1.000000000000000082e-05,-2.999999999999999737e-05,-1.000000000000000082e-05,2.999999999999999737e-05,-8.900000000000000576e-04,1.000000000000000082e-05,-5.999999999999999474e-05,2.999999999999999737e-05,6.000000000000000000e+00,2.300000000000000000e+01
6.134900000000000000e+04,-1.000000000000000082e-05,-2.999999999999999737e-05,-1.000000000000000082e-05,2.999999999999999737e-05,-8.900000000000000576e-04,1.000000000000000082e-05,-5.999999999999999474e-05,2.999999999999999737e-05,6.000000000000000000e+00,2.300000000000000000e+01
6.135000000000000000e+04,-1.000000000000000082e-05,-2.999999999999999737e-05,-1.000000000000000082e-05,2.999999999999999737e-05,-8.900000000000000576e-04,1.000000000000000082e-05,-5.999999999999999474e-05,2.999999999999999737e-05,6.000000000000000000e+00,2.300000000000000000e+01
6.135100000000000000e+04,-1.000000000000000082e-05,-2.999999999999999737e-05,-1.000000000000000082e-05,2.999999999999999737e-05,-8.900000000000000576e-04,1.000000000000000082e-05,-5.999999999999999474e-05,2.999999999999999737e-05,6.000000000000000000e+00,2.300000000000000000e+01
6.135200000000000000e+04,-1.000000000000000082e-05,-2.999999999999999737e-05,-1.000000000000000082e-05,2.999999999999999737e-05,-8.900000000000000576e-04,1.000000000000000082e-05,-5.999999999999999474e-05,2.999999999999999737e-05,6.000000000000000000e+00,2.300000000000000000e+01
6.135300000000000000e+04,-1.000000000000000082e-05,-2.999999999999999737e-05,-1.000000000000000082e-05,2.999999999999999737e-05,-8.900000000000000576e-04,1.000000000000000082e-05,-5.999999999999999474e-05,2.999999999999999737e-05,6.000000000000000000e+00,2.300000000000000000e+01
6.135400000000000000e+04,-1.000000000000000082e-05,-2.999999999999999737e-05,-1.000000000000000082e-05,2.999999999999999737e-05,-8.900000000000000576e-04,1.000000000000000082e-05,-5.999999999999999474e-05,2.999999999999999737e-05,6.000000000000000000e+00,2.300000000000000000e+01
6.135500000000000000e+04,-1.000000000000000082e-05,-2.999999999999999737e-05,-1.000000000000000082e-05,2.999999999999999737e-05,-8.900000000000000576e-04,1.000000000000000082e-05,-5.999999999999999474e-05,2.999999999999999737e-05,6.000000000000000000e+00,2.300000000000000000e+01
6.135600000000000000e+04,-1.000000000000000082e-05,-2.999999999999999737e-05,-1.000000000000000082e-05,2.999999999999999737e-05,-8.900000000000000576e-04,1.000000000000000082e-05,-5.999999999999999474e-05,2.999999999999999737e-05,6.000000000000000000e+00,2.300000000000000000e+01
6.135700000000000000e+04,-1.000000000000000082e-05,-2.999999999999999737e-05,-1.000000000000000082e-05,2.999999999999999737e-05,-8.900000000000000576e-04,1.000000000000000082e-05,-5.999999999999999474e-05,2.999999999999999737e-05,6.000000000000000000e+00,2.300000000000000000e+01
6.135800000000000000e+04,-1.000000000000000082e-05,-2.999999999999999737e-05,-1.000000000000000082e-05,2.999999999999999737e-05,-8.900000000000000576e-04,1.000000000000000082e-05,-5.999999999999999474e-05,2.999999999999999737e-05,6.000000000000000000e+00,2.300000000000000000e+01
6.135900000000000000e+04,-1.000000000000000082e-05,-2.999999999999999737e-05,-1.000000000000000082e-05,2.999999999999999737e-05,-8.900000000000000576e-04,1.000000000000000082e-05,-5.999999999999999474e-05,2.999999999999999737e-05,6.000000000000000000e+00,2.300000000000000000e+01
6.136000000000000000e+04,-1.000000000000000082e-05,-2.999999999999999737e-05,-1.000000000000000082e-05,2.999999999999999737e-05,-8.900000000000000576e-04,1.000000000000000082e-05,-5.999999999999999474e-05,2.999999999999999737e-05,6.000000000000000000e+00,2.300000000000000000e+01
6.136100000000000000e+04,-1.000000000000000082e-05,-2.999999999999999737e-05,-1.000000000000000082e-05,2.999999999999999737e-05,-8.900000000000000576e-04,1.000000000000000082e-05,-5.999999999999999474e-05,2.999999999999999737e-05,6.000000000000000000e+00,2.300000000000000000e+01
6.136200000000000000e+04,-1.000000000000000082e-05,-2.999999999999999737e-05,-1.000000000000000082e-05,2.999999999999999737e-05,-8.900000000000000576e-04,1.000000000000000082e-05,-5.999999999999999474e-05,2.999999999999999737e-05,6.000000000000000000e+00,2.300000000000000000e+01
6.136300000000000000e+04,-1.000000000000000082e-05,-2.999999999999999737e-05,-1.000000000000000082e-05,2.999999999999999737e-05,-8.900000000000000576e-04,1.000000000000000082e-05,-5.999999999999999474e-05,2.999999999999999737e-05,6.000000000000000000e+00,2.300000000000000000e+01
6.136400000000000000e+04,-1.000000000000000082e-05,-2.999999999999999737e-05,-1.000000000000000082e-05,2.999999999999999737e-05,-8.900000000000000576e-04,1.000000000000000082e-05,-5.999999999999999474e-05,2.999999999999999737e-05,6.000000000000000000e+00,2.300000000000000000e+01
6.136500000000000000e+04,-1.000000000000000082e-05,-2.999999999999999737e-05,-1.000000000000000082e-05,2.999999999999999737e-05,-8.900000000000000576e-04,1.000000000000000082e-05,-5.999999999999999474e-05,2.999999999999999737e-05,6.000000000000000000e+00,2.300000000000000000e+01
6.136600000000000000e+04,-1.000000000000000082e-05,-2.999999999999999737e-05,-1.000000000000000082e-05,2.999999999999999737e-05,-8.900000000000000576e-04,1.000000000000000082e-05,-5.999999999999999474e-05,2.999999999999999737e-05,6.000000000000000000e+00,2.300000000000000000e+01
6.136700000000000000e+04,-1.000000000000000082e-05,-2.999999999999999737e-05,-1.000000000000000082e-05,2.999999999999999737e-05,-8.900000000000000576e-04,1.000000000000000082e-05,-5.999999999999999474e-05,2.999999999999999737e-05,6.000000000000000000e+00,2.300000000000000000e+01
6.136800000000000000e+04,1.000000000000000048e-04,5.999999999999999474e-05,-8.000000000000000654e-05,4.299999999999999894e-04,8.699999999999998967e-04,5.000000000000000240e-05,2.500000000000000052e-04,9.000000000000000567e-05,6.000000000000000000e+00,2.300000000000000000e+01
6.136900000000000000e+04,1.000000000000000048e-04,5.999999999999999474e-05,-8.000000000000000654e-05,4.299999999999999894e-04,8.699999999999998967e-04,5.000000000000000240e-05,2.500000000000000052e-04,9.000000000000000567e-05,6.000000000000000000e+00,2.300000000000000000e+01
6.137000000000000000e+04,0.000000000000000000e+00,-2.999999999999999737e-05,2.999999999999999737e-05,-9.499999999999999981e-04,-8.000000000000000654e-05,-3.200000000000000262e-04,4.000000000000000192e-04,1.800000000000000113e-04,6.000000000000000000e+00,2.300000000000000000e+01
6.137100000000000000e+04,-4.000000000000000327e-05,-5.999999999999999474e-05,-1.399999999999999877e-04,-2.399999999999999790e-04,-2.600000000000000314e-04,-1.899999999999999834e-04,-6.799999999999999404e-04,-2.799999999999999755e-04,6.000000000000000000e+00,2.300000000000000000e+01
6.137200000000000000e+04,-4.000000000000000327e-05,-5.999999999999999474e-05,-1.399999999999999877e-04,-2.399999999999999790e-04,-2.600000000000000314e-04,-1.899999999999999834e-04,-6.799999999999999404e-04,-2.799999999999999755e-04,6.000000000000000000e+00,2.300000000000000000e+01
6.137300000000000000e+04,-4.000000000000000327e-05,-5.999999999999999474e-05,-1.399999999999999877e-04,-2.399999999999999790e-04,-2.600000000000000314e-04,-1.899999999999999834e-04,-6.799999999999999404e-04,-2.799999999999999755e-04,6.000000000000000000e+00,2.300000000000000000e+01
6.137400000000000000e+04,-4.000000000000000327e-05,-5.999999999999999474e-05,-1.399999999999999877e-04,-2.399999999999999790e-04,-2.600000000000000314e-04,-1.899999999999999834e-04,-6.799999999999999404e-04,-2.799999999999999755e-04,6.000000000000000000e+00,2.300000000000000000e+01
6.137500000000000000e+04,-4.000000000000000327e-05,-5.999999999999999474e-05,-1.399999999999999877e-04,-2.399999999999999790e-04,-2.600000000000000314e-04,-1.899999999999999834e-04,-6.799999999999999404e-04,-2.799999999999999755e-04,6.000000000000000000e+00,2.300000000000000000e+01
6.137600000000000000e+04,-4.000000000000000327e-05,-5.999999999999999474e-05,-1.399999999999999877e-04,-2.399999999999999790e-04,-2.600000000000000314e-04,-1.899999999999999834e-04,-6.799999999999999404e-04,-2.799999999999999755e-04,6.000000000000000000e+00,2.300000000000000000e+01
6.137700000000000000e+04,-4.000000000000000327e-05,-5.999999999999999474e-05,-1.399999999999999877e-04,-2.399999999999999790e-04,-2.600000000000000314e-04,-1.899999999999999834e-04,-6.799999999999999404e-04,-2.799999999999999755e-04,6.000000000000000000e+00,2.300000000000000000e+01
6.137800000000000000e+04,-4.000000000000000327e-05,-5.999999999999999474e-05,-1.399999999999999877e-04,-2.399999999999999790e-04,-2.600000000000000314e-04,-1.899999999999999834e-04,-6.799999999999999404e-04,-2.799999999999999755e-04,6.000000000000000000e+00,2.300000000000000000e+01
6.137900000000000000e+04,-4.000000000000000327e-05,-5.999999999999999474e-05,-1.399999999999999877e-04,-2.399999999999999790e-04,-2.600000000000000314e-04,-1.899999999999999834e-04,-6.799999999999999404e-04,-2.799999999999999755e-04,6.000000000000000000e+00,2.300000000000000000e+01
6.138000000000000000e+04,-4.000000000000000327e-05,-5.999999999999999474e-05,-1.399999999999999877e-04,-2.399999999999999790e-04,-2.600000000000000314e-04,-1.899999999999999834e-04,-6.799999999999999404e-04,-2.799999999999999755e-04,6.000000000000000000e+00,2.300000000000000000e+01
6.138100000000000000e+04,-4.000000000000000327e-05,-5.999999999999999474e-05,-1.399999999999999877e-04,-2.399999999999999790e-04,-2.600000000000000314e-04,-1.899999999999999834e-04,-6.799999999999999404e-04,-2.799999999999999755e-04,6.000000000000000000e+00,2.300000000000000000e+01
6.138200000000000000e+04,-4.000000000000000327e-05,-5.999999999999999474e-05,-1.399999999999999877e-04,-2.399999999999999790e-04,-2.600000000000000314e-04,-1.899999999999999834e-04,-6.799999999999999404e-04,-2.799999999999999755e-04,6.000000000000000000e+00,2.300000000000000000e+01
6.138300000000000000e+04,-4.000000000000000327e-05,-5.999999999999999474e-05,-1.399999999999999877e-04,-2.399999999999999790e-04,-2.600000000000000314e-04,-1.899999999999999834e-04,-6.799999999999999404e-04,-2.799999999999999755e-04,6.000000000000000000e+00,2.300000000000000000e+01
6.138400000000000000e+04,-4.000000000000000327e-05,-5.999999999999999474e-05,-1.399999999999999877e-04,-2.399999999999999790e-04,-2.600000000000000314e-04,-1.899999999999999834e-04,-6.799999999999999404e-04,-2.799999999999999755e-04,6.000000000000000000e+00,2.300000000000000000e+01
6.138500000000000000e+04,-4.000000000000000327e-05,-5.999999999999999474e-05,-1.399999999999999877e-04,-2.399999999999999790e-04,-2.600000000000000314e-04,-1.899999999999999834e-04,-6.799999999999999404e-04,-2.799999999999999755e-04,6.000000000000000000e+00,2.300000000000000000e+01
6.138600000000000000e+04,-4.000000000000000327e-05,-5.999999999999999474e-05,-1.399999999999999877e-04,-2.399999999999999790e-04,-2.600000000000000314e-04,-1.899999999999999834e-04,-6.799999999999999404e-04,-2.799999999999999755e-04,6.000000000000000000e+00,2.300000000000000000e+01
6.138800000000000000e+04,-4.000000000000000327e-05,-5.999999999999999474e-05,-1.399999999999999877e-04,-2.399999999999999790e-04,-2.600000000000000314e-04,-1.899999999999999834e-04,-6.799999999999999404e-04,-2.799999999999999755e-04,6.000000000000000000e+00,2.300000000000000000e+01
6.138900000000000000e+04,-4.000000000000000327e-05,-5.999999999999999474e-05,-1.399999999999999877e-04,-2.399999999999999790e-04,-2.600000000000000314e-04,-1.899999999999999834e-04,-6.799999999999999404e-04,-2.799999999999999755e-04,6.000000000000000000e+00,2.300000000000000000e+01
6.139000000000000000e+04,-4.000000000000000327e-05,-5.999999999999999474e-05,-1.399999999999999877e-04,-2.399999999999999790e-04,-2.600000000000000314e-04,-1.899999999999999834e-04,-6.799999999999999404e-04,-2.799999999999999755e-04,6.000000000000000000e+00,2.300000000000000000e+01
6.139100000000000000e+04,-5.000000000000000240e-05,1.000000000000000082e-05,1.399999999999999877e-04,6.799999999999999404e-04,6.400000000000000524e-04,5.500000000000000331e-04,1.800000000000000113e-04,5.999999999999999474e-05,6.000000000000000000e+00,2.300000000000000000e+01
6.139200000000000000e+04,-1.000000000000000082e-05,2.000000000000000164e-05,9.000000000000000567e-05,2.999999999999999737e-04,-2.500000000000000052e-04,-5.000000000000000240e-05,1.000000000000000048e-04,2.000000000000000164e-05,6.000000000000000000e+00,2.300000000000000000e+01
6.139300000000000000e+04,-1.000000000000000082e-05,2.000000000000000164e-05,9.000000000000000567e-05,2.999999999999999737e-04,-2.500000000000000052e-04,-5.000000000000000240e-05,1.000000000000000048e-04,2.000000000000000164e-05,6.000000000000000000e+00,2.300000000000000000e+01
6.139400000000000000e+04,-1.000000000000000082e-05,2.000000000000000164e-05,9.000000000000000567e-05,2.999999999999999737e-04,-2.500000000000000052e-04,-5.000000000000000240e-05,1.000000000000000048e-04,2.000000000000000164e-05,6.000000000000000000e+00,2.300000000000000000e+01
6.139500000000000000e+04,2.000000000000000164e-05,1.000000000000000082e-05,6.999999999999999387e-05,6.999999999999999929e-04,-3.899999999999999929e-04,-1.100000000000000039e-04,2.600000000000000314e-04,6.999999999999999387e-05,6.000000000000000000e+00,2.300000000000000000e+01
6.139600000000000000e+04,2.000000000000000164e-05,1.000000000000000082e-05,6.999999999999999387e-05,6.999999999999999929e-04,-3.899999999999999929e-04,-1.100000000000000039e-04,2.600000000000000314e-04,6.999999999999999387e-05,6.000000000000000000e+00,2.300000000000000000e+01
6.139700000000000000e+04,2.000000000000000164e-05,1.000000000000000082e-05,6.999999999999999387e-05,6.999999999999999929e-04,-3.899999999999999929e-04,-1.100000000000000039e-04,2.600000000000000314e-04,6.999999999999999387e-05,6.000000000000000000e+00,2.300000000000000000e+01
6.139800000000000000e+04,2.000000000000000164e-05,1.000000000000000082e-05,6.999999999999999387e-05,6.999999999999999929e-04,-3.899999999999999929e-04,-1.100000000000000039e-04,2.600000000000000314e-04,6.999999999999999387e-05,6.000000000000000000e+00,2.300000000000000000e+01
6.139900000000000000e+04,2.000000000000000164e-05,1.000000000000000082e-05,6.999999999999999387e-05,6.999999999999999929e-04,-3.899999999999999929e-04,-1.100000000000000039e-04,2.600000000000000314e-04,6.999999999999999387e-05,6.000000000000000000e+00,2.300000000000000000e+01
6.140000000000000000e+04,2.000000000000000164e-05,1.000000000000000082e-05,6.999999999999999387e-05,6.999999999999999929e-04,-3.899999999999999929e-04,-1.100000000000000039e-04,2.600000000000000314e-04,6.999999999999999387e-05,6.000000000000000000e+00,2.300000000000000000e+01
6.140100000000000000e+04,2.000000000000000164e-05,1.000000000000000082e-05,6.999999999999999387e-05,6.999999999999999929e-04,-3.899999999999999929e-04,-1.100000000000000039e-04,2.600000000000000314e-04,6.999999999999999387e-05,6.000000000000000000e+00,2.300000000000000000e+01
6.140200000000000000e+04,2.000000000000000164e-05,1.000000000000000082e-05,6.999999999999999387e-05,6.999999999999999929e-04,-3.899999999999999929e-04,-1.100000000000000039e-04,2.600000000000000314e-04,6.999999999999999387e-05,6.000000000000000000e+00,2.300000000000000000e+01
6.140300000000000000e+04,2.000000000000000164e-05,1.000000000000000082e-05,6.999999999999999387e-05,6.999999999999999929e-04,-3.899999999999999929e-04,-1.100000000000000039e-04,2.600000000000000314e-04,6.999999999999999387e-05,6.000000000000000000e+00,2.300000000000000000e+01
6.140400000000000000e+04,2.000000000000000164e-05,1.000000000000000082e-05,6.999999999999999387e-05,6.999999999999999929e-04,-3.899999999999999929e-04,-1.100000000000000039e-04,2.600000000000000314e-04,6.999999999999999387e-05,6.000000000000000000e+00,2.300000000000000000e+01
6.140500000000000000e+04,2.000000000000000164e-05,1.000000000000000082e-05,6.999999999999999387e-05,6.999999999999999929e-04,-3.899999999999999929e-04,-1.100000000000000039e-04,2.600000000000000314e-04,6.999999999999999387e-05,6.000000000000000000e+00,2.300000000000000000e+01
6.140600000000000000e+04,2.000000000000000164e-05,1.000000000000000082e-05,6.999999999999999387e-05,6.999999999999999929e-04,-3.899999999999999929e-04,-1.100000000000000039e-04,2.600000000000000314e-04,6.999999999999999387e-05,6.000000000000000000e+00,2.300000000000000000e+01
6.140700000000000000e+04,2.000000000000000164e-05,1.000000000000000082e-05,6.999999999999999387e-05,6.999999999999999929e-04,-3.899999999999999929e-04,-1.100000000000000039e-04,2.600000000000000314e-04,6.999999999999999387e-05,6.000000000000000000e+00,2.300000000000000000e+01
6.140800000000000000e+04,2.000000000000000164e-05,1.000000000000000082e-05,6.999999999999999387e-05,6.999999999999999929e-04,-3.899999999999999929e-04,-1.100000000000000039e-04,2.600000000000000314e-04,6.999999999999999387e-05,6.000000000000000000e+00,2.300000000000000000e+01
6.140900000000000000e+04,2.000000000000000164e-05,1.000000000000000082e-05,6.999999999999999387e-05,6.999999999999999929e-04,-3.899999999999999929e-04,-1.100000000000000039e-04,2.600000000000000314e-04,6.999999999999999387e-05,6.000000000000000000e+00,2.300000000000000000e+01
6.141000000000000000e+04,2.000000000000000164e-05,1.000000000000000082e-05,6.999999999999999387e-05,6.999999999999999929e-04,-3.899999999999999929e-04,-1.100000000000000039e-04,2.600000000000000314e-04,6.999999999999999387e-05,6.000000000000000000e+00,2.300000000000000000e+01
6.141100000000000000e+04,2.000000000000000164e-05,1.000000000000000082e-05,6.999999999999999387e-05,6.999999999999999929e-04,-3.899999999999999929e-04,-1.100000000000000039e-04,2.600000000000000314e-04,6.999999999999999387e-05,6.000000000000000000e+00,2.300000000000000000e+01
6.141200000000000000e+04,-4.000000000000000327e-05,-5.999999999999999474e-05,4.000000000000000327e-05,0.000000000000000000e+00,-9.499999999999999981e-04,-5.999999999999999474e-05,4.000000000000000327e-05,-5.000000000000000240e-05,6.000000000000000000e+00,2.300000000000000000e+01
6.141300000000000000e+04,-2.000000000000000164e-05,4.000000000000000327e-05,1.100000000000000039e-04,-2.500000000000000052e-04,-1.229999999999999974e-03,-2.700000000000000035e-04,-1.600000000000000131e-04,-4.000000000000000327e-05,6.000000000000000000e+00,2.300000000000000000e+01
6.141400000000000000e+04,-2.000000000000000164e-05,4.000000000000000327e-05,1.100000000000000039e-04,-2.500000000000000052e-04,-1.229999999999999974e-03,-2.700000000000000035e-04,-1.600000000000000131e-04,-4.000000000000000327e-05,6.000000000000000000e+00,2.300000000000000000e+01
6.141500000000000000e+04,-2.000000000000000164e-05,4.000000000000000327e-05,1.100000000000000039e-04,-2.500000000000000052e-04,-1.229999999999999974e-03,-2.700000000000000035e-04,-1.600000000000000131e-04,-4.000000000000000327e-05,6.000000000000000000e+00,2.300000000000000000e+01
6.141600000000000000e+04,-2.000000000000000164e-05,4.000000000000000327e-05,1.100000000000000039e-04,-2.500000000000000052e-04,-1.229999999999999974e-03,-2.700000000000000035e-04,-1.600000000000000131e-04,-4.000000000000000327e-05,6.000000000000000000e+00,2.300000000000000000e+01
6.141700000000000000e+04,-2.000000000000000164e-05,4.000000000000000327e-05,1.100000000000000039e-04,-2.500000000000000052e-04,-1.229999999999999974e-03,-2.700000000000000035e-04,-1.600000000000000131e-04,-4.000000000000000327e-05,6.000000000000000000e+00,2.300000000000000000e+01
6.141800000000000000e+04,-2.000000000000000164e-05,4.000000000000000327e-05,1.100000000000000039e-04,-2.500000000000000052e-04,-1.229999999999999974e-03,-2.700000000000000035e-04,-1.600000000000000131e-04,-4.000000000000000327e-05,6.000000000000000000e+00,2.300000000000000000e+01
6.141900000000000000e+04,-2.000000000000000164e-05,4.000000000000000327e-05,1.100000000000000039e-04,-2.500000000000000052e-04,-1.229999999999999974e-03,-2.700000000000000035e-04,-1.600000000000000131e-04,-4.000000000000000327e-05,6.000000000000000000e+00,2.300000000000000000e+01
6.142000000000000000e+04,-2.000000000000000164e-05,4.000000000000000327e-05,1.100000000000000039e-04,-2.500000000000000052e-04,-1.229999999999999974e-03,-2.700000000000000035e-04,-1.600000000000000131e-04,-4.000000000000000327e-05,6.000000000000000000e+00,2.300000000000000000e+01
6.142100000000000000e+04,-2.000000000000000164e-05,4.000000000000000327e-05,1.100000000000000039e-04,-2.500000000000000052e-04,-1.229999999999999974e-03,-2.700000000000000035e-04,-1.600000000000000131e-04,-4.000000000000000327e-05,6.000000000000000000e+00,2.300000000000000000e+01
6.142200000000000000e+04,-2.000000000000000164e-05,4.000000000000000327e-05,1.100000000000000039e-04,-2.500000000000000052e-04,-1.229999999999999974e-03,-2.700000000000000035e-04,-1.600000000000000131e-04,-4.000000000000000327e-05,6.000000000000000000e+00,2.300000000000000000e+01
6.142300000000000000e+04,-2.000000000000000164e-05,4.000000000000000327e-05,1.100000000000000039e-04,-2.500000000000000052e-04,-1.229999999999999974e-03,-2.700000000000000035e-04,-1.600000000000000131e-04,-4.000000000000000327e-05,6.000000000000000000e+00,2.300000000000000000e+01
6.142400000000000000e+04,-2.000000000000000164e-05,4.000000000000000327e-05,1.100000000000000039e-04,-2.500000000000000052e-04,-1.229999999999999974e-03,-2.700000000000000035e-04,-1.600000000000000131e-04,-4.000000000000000327e-05,6.000000000000000000e+00,2.300000000000000000e+01
6.142500000000000000e+04,-2.000000000000000164e-05,4.000000000000000327e-05,1.100000000000000039e-04,-2.500000000000000052e-04,-1.229999999999999974e-03,-2.700000000000000035e-04,-1.600000000000000131e-04,-4.000000000000000327e-05,6.000000000000000000e+00,2.300000000000000000e+01
6.142600000000000000e+04,-2.000000000000000164e-05,4.000000000000000327e-05,1.100000000000000039e-04,-2.500000000000000052e-04,-1.229999999999999974e-03,-2.700000000000000035e-04,-1.600000000000000131e-04,-4.000000000000000327e-05,6.000000000000000000e+00,2.300000000000000000e+01
6.142700000000000000e+04,-5.999999999999999474e-05,-9.000000000000000567e-05,-1.100000000000000039e-04,-4.799999999999999580e-04,-6.300000000000000261e-04,-1.100000000000000039e-04,-2.399999999999999790e-04,-4.099999999999999912e-04,6.000000000000000000e+00,2.300000000000000000e+01
6.142800000000000000e+04,-5.999999999999999474e-05,-9.000000000000000567e-05,-1.100000000000000039e-04,-4.799999999999999580e-04,-6.300000000000000261e-04,-1.100000000000000039e-04,-2.399999999999999790e-04,-4.099999999999999912e-04,6.000000000000000000e+00,2.300000000000000000e+01
6.142900000000000000e+04,-5.999999999999999474e-05,-9.000000000000000567e-05,-1.100000000000000039e-04,-4.799999999999999580e-04,-6.300000000000000261e-04,-1.100000000000000039e-04,-2.399999999999999790e-04,-4.099999999999999912e-04,6.000000000000000000e+00,2.300000000000000000e+01
6.143000000000000000e+04,-5.999999999999999474e-05,-9.000000000000000567e-05,-1.100000000000000039e-04,-4.799999999999999580e-04,-6.300000000000000261e-04,-1.100000000000000039e-04,-2.399999999999999790e-04,-4.099999999999999912e-04,6.000000000000000000e+00,2.300000000000000000e+01
6.143100000000000000e+04,-5.999999999999999474e-05,-9.000000000000000567e-05,-1.100000000000000039e-04,-4.799999999999999580e-04,-6.300000000000000261e-04,-1.100000000000000039e-04,-2.399999999999999790e-04,-4.099999999999999912e-04,6.000000000000000000e+00,2.300000000000000000e+01
6.143200000000000000e+04,-5.999999999999999474e-05,-9.000000000000000567e-05,-1.100000000000000039e-04,-4.799999999999999580e-04,-6.300000000000000261e-04,-1.100000000000000039e-04,-2.399999999999999790e-04,-4.099999999999999912e-04,6.000000000000000000e+00,2.300000000000000000e+01
6.143300000000000000e+04,-5.999999999999999474e-05,-9.000000000000000567e-05,-1.100000000000000039e-04,-4.799999999999999580e-04,-6.300000000000000261e-04,-1.100000000000000039e-04,-2.399999999999999790e-04,-4.099999999999999912e-04,6.000000000000000000e+00,2.300000000000000000e+01
6.143400000000000000e+04,-5.999999999999999474e-05,-9.000000000000000567e-05,-1.100000000000000039e-04,-4.799999999999999580e-04,-6.300000000000000261e-04,-1.100000000000000039e-04,-2.399999999999999790e-04,-4.099999999999999912e-04,6.000000000000000000e+00,2.300000000000000000e+01
6.143500000000000000e+04,-5.999999999999999474e-05,-9.000000000000000567e-05,-1.100000000000000039e-04,-4.799999999999999580e-04,-6.300000000000000261e-04,-1.100000000000000039e-04,-2.399999999999999790e-04,-4.099999999999999912e-04,6.000000000000000000e+00,2.300000000000000000e+01
6.143600000000000000e+04,-5.999999999999999474e-05,-9.000000000000000567e-05,-1.100000000000000039e-04,-4.799999999999999580e-04,-6.300000000000000261e-04,-1.100000000000000039e-04,-2.399999999999999790e-04,-4.099999999999999912e-04,6.000000000000000000e+00,2.300000000000000000e+01
6.143900000000000000e+04,-5.999999999999999474e-05,-9.000000000000000567e-05,-1.100000000000000039e-04,-4.799999999999999580e-04,-6.300000000000000261e-04,-1.100000000000000039e-04,-2.399999999999999790e-04,-4.099999999999999912e-04,6.000000000000000000e+00,2.300000000000000000e+01
6.144000000000000000e+04,2.999999999999999737e-05,1.000000000000000082e-05,-6.999999999999999387e-05,-1.000000000000000082e-05,5.599999999999999509e-04,-1.300000000000000157e-04,-2.999999999999999737e-04,2.999999999999999737e-05,6.000000000000000000e+00,2.300000000000000000e+01
6.144100000000000000e+04,2.999999999999999737e-05,1.000000000000000082e-05,-6.999999999999999387e-05,-1.000000000000000082e-05,5.599999999999999509e-04,-1.300000000000000157e-04,-2.999999999999999737e-04,2.999999999999999737e-05,6.000000000000000000e+00,2.300000000000000000e+01
6.144200000000000000e+04,2.999999999999999737e-05,1.000000000000000082e-05,-6.999999999999999387e-05,-1.000000000000000082e-05,5.599999999999999509e-04,-1.300000000000000157e-04,-2.999999999999999737e-04,2.999999999999999737e-05,6.000000000000000000e+00,2.300000000000000000e+01
6.144300000000000000e+04,2.999999999999999737e-05,1.000000000000000082e-05,-6.999999999999999387e-05,-1.000000000000000082e-05,5.599999999999999509e-04,-1.300000000000000157e-04,-2.999999999999999737e-04,2.999999999999999737e-05,6.000000000000000000e+00,2.300000000000000000e+01
6.144400000000000000e+04,2.999999999999999737e-05,1.000000000000000082e-05,-6.999999999999999387e-05,-1.000000000000000082e-05,5.599999999999999509e-04,-1.300000000000000157e-04,-2.999999999999999737e-04,2.999999999999999737e-05,6.000000000000000000e+00,2.300000000000000000e+01
6.144500000000000000e+04,2.999999999999999737e-05,1.000000000000000082e-05,-6.999999999999999387e-05,-1.000000000000000082e-05,5.599999999999999509e-04,-1.300000000000000157e-04,-2.999999999999999737e-04,2.999999999999999737e-05,6.000000000000000000e+00,2.300000000000000000e+01
6.144600000000000000e+04,2.999999999999999737e-05,1.000000000000000082e-05,-6.999999999999999387e-05,-1.000000000000000082e-05,5.599999999999999509e-04,-1.300000000000000157e-04,-2.999999999999999737e-04,2.999999999999999737e-05,6.000000000000000000e+00,2.300000000000000000e+01
6.144700000000000000e+04,2.999999999999999737e-05,1.000000000000000082e-05,-6.999999999999999387e-05,-1.000000000000000082e-05,5.599999999999999509e-04,-1.300000000000000157e-04,-2.999999999999999737e-04,2.999999999999999737e-05,6.000000000000000000e+00,2.300000000000000000e+01
6.144800000000000000e+04,2.999999999999999737e-05,1.000000000000000082e-05,-6.999999999999999387e-05,-1.000000000000000082e-05,5.599999999999999509e-04,-1.300000000000000157e-04,-2.999999999999999737e-04,2.999999999999999737e-05,6.000000000000000000e+00,2.300000000000000000e+01
6.144900000000000000e+04,-2.000000000000000164e-05,0.000000000000000000e+00,2.000000000000000164e-05,-5.000000000000000104e-04,-2.600000000000000314e-04,1.000000000000000048e-04,3.600000000000000227e-04,2.299999999999999799e-04,6.000000000000000000e+00,2.300000000000000000e+01
6.145000000000000000e+04,-2.000000000000000164e-05,0.000000000000000000e+00,2.000000000000000164e-05,-5.000000000000000104e-04,-2.600000000000000314e-04,1.000000000000000048e-04,3.600000000000000227e-04,2.299999999999999799e-04,6.000000000000000000e+00,2.300000000000000000e+01
6.145100000000000000e+04,6.999999999999999387e-05,8.000000000000000654e-05,2.999999999999999737e-05,-8.000000000000000654e-05,-5.900000000000000296e-04,-4.000000000000000327e-05,5.000000000000000240e-05,1.000000000000000082e-05,6.000000000000000000e+00,2.300000000000000000e+01
6.145200000000000000e+04,6.999999999999999387e-05,8.000000000000000654e-05,2.999999999999999737e-05,-8.000000000000000654e-05,-5.900000000000000296e-04,-4.000000000000000327e-05,5.000000000000000240e-05,1.000000000000000082e-05,6.000000000000000000e+00,2.300000000000000000e+01
6.145300000000000000e+04,6.999999999999999387e-05,8.000000000000000654e-05,2.999999999999999737e-05,-8.000000000000000654e-05,-5.900000000000000296e-04,-4.000000000000000327e-05,5.000000000000000240e-05,1.000000000000000082e-05,6.000000000000000000e+00,2.300000000000000000e+01
6.145400000000000000e+04,6.999999999999999387e-05,8.000000000000000654e-05,2.999999999999999737e-05,-8.000000000000000654e-05,-5.900000000000000296e-04,-4.000000000000000327e-05,5.000000000000000240e-05,1.000000000000000082e-05,6.000000000000000000e+00,2.300000000000000000e+01
6.145500000000000000e+04,6.999999999999999387e-05,8.000000000000000654e-05,2.999999999999999737e-05,-8.000000000000000654e-05,-5.900000000000000296e-04,-4.000000000000000327e-05,5.000000000000000240e-05,1.000000000000000082e-05,6.000000000000000000e+00,2.300000000000000000e+01
6.145600000000000000e+04,6.999999999999999387e-05,8.000000000000000654e-05,2.999999999999999737e-05,-8.000000000000000654e-05,-5.900000000000000296e-04,-4.000000000000000327e-05,5.000000000000000240e-05,1.000000000000000082e-05,6.000000000000000000e+00,2.300000000000000000e+01
6.145700000000000000e+04,6.999999999999999387e-05,8.000000000000000654e-05,2.999999999999999737e-05,-8.000000000000000654e-05,-5.900000000000000296e-04,-4.000000000000000327e-05,5.000000000000000240e-05,1.000000000000000082e-05,6.000000000000000000e+00,2.300000000000000000e+01
6.145800000000000000e+04,6.999999999999999387e-05,8.000000000000000654e-05,2.999999999999999737e-05,-8.000000000000000654e-05,-5.900000000000000296e-04,-4.000000000000000327e-05,5.000000000000000240e-05,1.000000000000000082e-05,6.000000000000000000e+00,2.300000000000000000e+01
6.145900000000000000e+04,6.999999999999999387e-05,8.000000000000000654e-05,2.999999999999999737e-05,-8.000000000000000654e-05,-5.900000000000000296e-04,-4.000000000000000327e-05,5.000000000000000240e-05,1.000000000000000082e-05,6.000000000000000000e+00,2.300000000000000000e+01
6.146000000000000000e+04,6.999999999999999387e-05,8.000000000000000654e-05,2.999999999999999737e-05,-8.000000000000000654e-05,-5.900000000000000296e-04,-4.000000000000000327e-05,5.000000000000000240e-05,1.000000000000000082e-05,6.000000000000000000e+00,2.300000000000000000e+01
6.146100000000000000e+04,6.999999999999999387e-05,8.000000000000000654e-05,2.999999999999999737e-05,-8.000000000000000654e-05,-5.900000000000000296e-04,-4.000000000000000327e-05,5.000000000000000240e-05,1.000000000000000082e-05,6.000000000000000000e+00,2.300000000000000000e+01
6.146200000000000000e+04,6.999999999999999387e-05,8.000000000000000654e-05,2.999999999999999737e-05,-8.000000000000000654e-05,-5.900000000000000296e-04,-4.000000000000000327e-05,5.000000000000000240e-05,1.000000000000000082e-05,6.000000000000000000e+00,2.300000000000000000e+01
6.146300000000000000e+04,6.999999999999999387e-05,8.000000000000000654e-05,2.999999999999999737e-05,-8.000000000000000654e-05,-5.900000000000000296e-04,-4.000000000000000327e-05,5.000000000000000240e-05,1.000000000000000082e-05,6.000000000000000000e+00,2.300000000000000000e+01
6.146400000000000000e+04,6.999999999999999387e-05,8.000000000000000654e-05,2.999999999999999737e-05,-8.000000000000000654e-05,-5.900000000000000296e-04,-4.000000000000000327e-05,5.000000000000000240e-05,1.000000000000000082e-05,6.000000000000000000e+00,2.300000000000000000e+01
6.146500000000000000e+04,6.999999999999999387e-05,8.000000000000000654e-05,2.999999999999999737e-05,-8.000000000000000654e-05,-5.900000000000000296e-04,-4.000000000000000327e-05,5.000000000000000240e-05,1.000000000000000082e-05,6.000000000000000000e+00,2.300000000000000000e+01
6.146600000000000000e+04,6.999999999999999387e-05,8.000000000000000654e-05,2.999999999999999737e-05,-8.000000000000000654e-05,-5.900000000000000296e-04,-4.000000000000000327e-05,5.000000000000000240e-05,1.000000000000000082e-05,6.000000000000000000e+00,2.300000000000000000e+01
6.146700000000000000e+04,6.999999999999999387e-05,8.000000000000000654e-05,2.999999999999999737e-05,-8.000000000000000654e-05,-5.900000000000000296e-04,-4.000000000000000327e-05,5.000000000000000240e-05,1.000000000000000082e-05,6.000000000000000000e+00,2.300000000000000000e+01
6.146800000000000000e+04,6.999999999999999387e-05,8.000000000000000654e-05,2.999999999999999737e-05,-8.000000000000000654e-05,-5.900000000000000296e-04,-4.000000000000000327e-05,5.000000000000000240e-05,1.000000000000000082e-05,6.000000000000000000e+00,2.300000000000000000e+01
6.146900000000000000e+04,6.999999999999999387e-05,8.000000000000000654e-05,2.999999999999999737e-05,-8.000000000000000654e-05,-5.900000000000000296e-04,-4.000000000000000327e-05,5.000000000000000240e-05,1.000000000000000082e-05,6.000000000000000000e+00,2.300000000000000000e+01
6.147000000000000000e+04,6.999999999999999387e-05,8.000000000000000654e-05,2.999999999999999737e-05,-8.000000000000000654e-05,-5.900000000000000296e-04,-4.000000000000000327e-05,5.000000000000000240e-05,1.000000000000000082e-05,6.000000000000000000e+00,2.300000000000000000e+01
6.147100000000000000e+04,6.999999999999999387e-05,8.000000000000000654e-05,2.999999999999999737e-05,-8.000000000000000654e-05,-5.900000000000000296e-04,-4.000000000000000327e-05,5.000000000000000240e-05,1.000000000000000082e-05,6.000000000000000000e+00,2.300000000000000000e+01
6.147200000000000000e+04,2.000000000000000164e-05,-1.000000000000000082e-05,-9.000000000000000567e-05,-6.999999999999999387e-05,1.699999999999999851e-04,1.600000000000000131e-04,1.199999999999999895e-04,1.100000000000000039e-04,6.000000000000000000e+00,2.300000000000000000e+01
6.147300000000000000e+04,2.000000000000000164e-05,-1.000000000000000082e-05,-9.000000000000000567e-05,-6.999999999999999387e-05,1.699999999999999851e-04,1.600000000000000131e-04,1.199999999999999895e-04,1.100000000000000039e-04,6.000000000000000000e+00,2.300000000000000000e+01
6.147400000000000000e+04,-4.000000000000000327e-05,-8.000000000000000654e-05,-5.999999999999999474e-05,2.299999999999999799e-04,-5.200000000000000629e-04,-5.999999999999999474e-05,1.000000000000000048e-04,4.000000000000000327e-05,6.000000000000000000e+00,2.300000000000000000e+01
6.147500000000000000e+04,-4.000000000000000327e-05,-8.000000000000000654e-05,-5.999999999999999474e-05,2.299999999999999799e-04,-5.200000000000000629e-04,-5.999999999999999474e-05,1.000000000000000048e-04,4.000000000000000327e-05,6.000000000000000000e+00,2.300000000000000000e+01
6.147600000000000000e+04,-4.000000000000000327e-05,-8.000000000000000654e-05,-5.999999999999999474e-05,2.299999999999999799e-04,-5.200000000000000629e-04,-5.999999999999999474e-05,1.000000000000000048e-04,4.000000000000000327e-05,6.000000000000000000e+00,2.300000000000000000e+01
6.147700000000000000e+04,-4.000000000000000327e-05,-8.000000000000000654e-05,-5.999999999999999474e-05,2.299999999999999799e-04,-5.200000000000000629e-04,-5.999999999999999474e-05,1.000000000000000048e-04,4.000000000000000327e-05,6.000000000000000000e+00,2.300000000000000000e+01
6.147800000000000000e+04,-4.000000000000000327e-05,-8.000000000000000654e-05,-5.999999999999999474e-05,2.299999999999999799e-04,-5.200000000000000629e-04,-5.999999999999999474e-05,1.000000000000000048e-04,4.000000000000000327e-05,6.000000000000000000e+00,2.300000000000000000e+01
6.147900000000000000e+04,-4.000000000000000327e-05,-8.000000000000000654e-05,-5.999999999999999474e-05,2.299999999999999799e-04,-5.200000000000000629e-04,-5.999999999999999474e-05,1.000000000000000048e-04,4.000000000000000327e-05,6.000000000000000000e+00,2.300000000000000000e+01
6.148000000000000000e+04,-4.000000000000000327e-05,-8.000000000000000654e-05,-5.999999999999999474e-05,2.299999999999999799e-04,-5.200000000000000629e-04,-5.999999999999999474e-05,1.000000000000000048e-04,4.000000000000000327e-05,6.000000000000000000e+00,2.300000000000000000e+01
6.148100000000000000e+04,-4.000000000000000327e-05,-8.000000000000000654e-05,-5.999999999999999474e-05,2.299999999999999799e-04,-5.200000000000000629e-04,-5.999999999999999474e-05,1.000000000000000048e-04,4.000000000000000327e-05,6.000000000000000000e+00,2.300000000000000000e+01
6.148200000000000000e+04,-4.000000000000000327e-05,-8.000000000000000654e-05,-5.999999999999999474e-05,2.299999999999999799e-04,-5.200000000000000629e-04,-5.999999999999999474e-05,1.000000000000000048e-04,4.000000000000000327e-05,6.000000000000000000e+00,2.300000000000000000e+01
6.148300000000000000e+04,-4.000000000000000327e-05,-8.000000000000000654e-05,-5.999999999999999474e-05,2.299999999999999799e-04,-5.200000000000000629e-04,-5.999999999999999474e-05,1.000000000000000048e-04,4.000000000000000327e-05,6.000000000000000000e+00,2.300000000000000000e+01
6.148400000000000000e+04,-4.000000000000000327e-05,-8.000000000000000654e-05,-5.999999999999999474e-05,2.299999999999999799e-04,-5.200000000000000629e-04,-5.999999999999999474e-05,1.000000000000000048e-04,4.000000000000000327e-05,6.000000000000000000e+00,2.300000000000000000e+01
6.148500000000000000e+04,-4.000000000000000327e-05,-8.000000000000000654e-05,-5.999999999999999474e-05,2.299999999999999799e-04,-5.200000000000000629e-04,-5.999999999999999474e-05,1.000000000000000048e-04,4.000000000000000327e-05,6.000000000000000000e+00,2.300000000000000000e+01
6.148600000000000000e+04,-4.000000000000000327e-05,-8.000000000000000654e-05,-5.999999999999999474e-05,2.299999999999999799e-04,-5.200000000000000629e-04,-5.999999999999999474e-05,1.000000000000000048e-04,4.000000000000000327e-05,6.000000000000000000e+00,2.300000000000000000e+01
6.148800000000000000e+04,-4.000000000000000327e-05,-8.000000000000000654e-05,-5.999999999999999474e-05,2.299999999999999799e-04,-5.200000000000000629e-04,-5.999999999999999474e-05,1.000000000000000048e-04,4.000000000000000327e-05,6.000000000000000000e+00,2.300000000000000000e+01
6.148900000000000000e+04,-4.000000000000000327e-05,-8.000000000000000654e-05,-5.999999999999999474e-05,2.299999999999999799e-04,-5.200000000000000629e-04,-5.999999999999999474e-05,1.000000000000000048e-04,4.000000000000000327e-05,6.000000000000000000e+00,2.300000000000000000e+01
6.149000000000000000e+04,-4.000000000000000327e-05,-8.000000000000000654e-05,-5.999999999999999474e-05,2.299999999999999799e-04,-5.200000000000000629e-04,-5.999999999999999474e-05,1.000000000000000048e-04,4.000000000000000327e-05,6.000000000000000000e+00,2.300000000000000000e+01
6.149100000000000000e+04,-4.000000000000000327e-05,-8.000000000000000654e-05,-5.999999999999999474e-05,2.299999999999999799e-04,-5.200000000000000629e-04,-5.999999999999999474e-05,1.000000000000000048e-04,4.000000000000000327e-05,6.000000000000000000e+00,2.300000000000000000e+01
6.149200000000000000e+04,-4.000000000000000327e-05,-8.000000000000000654e-05,-5.999999999999999474e-05,2.299999999999999799e-04,-5.200000000000000629e-04,-5.999999999999999474e-05,1.000000000000000048e-04,4.000000000000000327e-05,6.000000000000000000e+00,2.300000000000000000e+01
6.149300000000000000e+04,-4.000000000000000327e-05,-8.000000000000000654e-05,-5.999999999999999474e-05,2.299999999999999799e-04,-5.200000000000000629e-04,-5.999999999999999474e-05,1.000000000000000048e-04,4.000000000000000327e-05,6.000000000000000000e+00,2.300000000000000000e+01
6.149400000000000000e+04,1.000000000000000082e-05,5.000000000000000240e-05,-1.399999999999999877e-04,-3.600000000000000227e-04,-8.599999999999999789e-04,-1.899999999999999834e-04,6.999999999999999387e-05,8.000000000000000654e-05,6.000000000000000000e+00,2.300000000000000000e+01
6.149500000000000000e+04,1.000000000000000082e-05,5.000000000000000240e-05,-1.399999999999999877e-04,-3.600000000000000227e-04,-8.599999999999999789e-04,-1.899999999999999834e-04,6.999999999999999387e-05,8.000000000000000654e-05,6.000000000000000000e+00,2.300000000000000000e+01
6.149600000000000000e+04,-5.000000000000000240e-05,-5.000000000000000240e-05,1.800000000000000113e-04,8.300000000000001170e-04,9.799999999999999684e-04,2.500000000000000052e-04,-1.000000000000000048e-04,-9.000000000000000567e-05,6.000000000000000000e+00,2.300000000000000000e+01
6.149700000000000000e+04,-5.000000000000000240e-05,-5.000000000000000240e-05,1.800000000000000113e-04,8.300000000000001170e-04,9.799999999999999684e-04,2.500000000000000052e-04,-1.000000000000000048e-04,-9.000000000000000567e-05,6.000000000000000000e+00,2.300000000000000000e+01
6.149800000000000000e+04,-5.000000000000000240e-05,-5.000000000000000240e-05,1.800000000000000113e-04,8.300000000000001170e-04,9.799999999999999684e-04,2.500000000000000052e-04,-1.000000000000000048e-04,-9.000000000000000567e-05,6.000000000000000000e+00,2.300000000000000000e+01
6.149900000000000000e+04,-5.000000000000000240e-05,-5.000000000000000240e-05,1.800000000000000113e-04,8.300000000000001170e-04,9.799999999999999684e-04,2.500000000000000052e-04,-1.000000000000000048e-04,-9.000000000000000567e-05,6.000000000000000000e+00,2.300000000000000000e+01
6.150000000000000000e+04,-5.000000000000000240e-05,-5.000000000000000240e-05,1.800000000000000113e-04,8.300000000000001170e-04,9.799999999999999684e-04,2.500000000000000052e-04,-1.000000000000000048e-04,-9.000000000000000567e-05,6.000000000000000000e+00,2.300000000000000000e+01
6.150100000000000000e+04,-5.000000000000000240e-05,-5.000000000000000240e-05,1.800000000000000113e-04,8.300000000000001170e-04,9.799999999999999684e-04,2.500000000000000052e-04,-1.000000000000000048e-04,-9.000000000000000567e-05,6.000000000000000000e+00,2.300000000000000000e+01
6.150200000000000000e+04,-5.000000000000000240e-05,-5.000000000000000240e-05,1.800000000000000113e-04,8.300000000000001170e-04,9.799999999999999684e-04,2.500000000000000052e-04,-1.000000000000000048e-04,-9.000000000000000567e-05,6.000000000000000000e+00,2.300000000000000000e+01
6.150300000000000000e+04,-5.000000000000000240e-05,-5.000000000000000240e-05,1.800000000000000113e-04,8.300000000000001170e-04,9.799999999999999684e-04,2.500000000000000052e-04,-1.000000000000000048e-04,-9.000000000000000567e-05,6.000000000000000000e+00,2.300000000000000000e+01
6.150400000000000000e+04,-5.000000000000000240e-05,-5.000000000000000240e-05,1.800000000000000113e-04,8.300000000000001170e-04,9.799999999999999684e-04,2.500000000000000052e-04,-1.000000000000000048e-04,-9.000000000000000567e-05,6.000000000000000000e+00,2.300000000000000000e+01
6.150500000000000000e+04,-5.000000000000000240e-05,-5.000000000000000240e-05,1.800000000000000113e-04,8.300000000000001170e-04,9.799999999999999684e-04,2.500000000000000052e-04,-1.000000000000000048e-04,-9.000000000000000567e-05,6.000000000000000000e+00,2.300000000000000000e+01
6.150600000000000000e+04,-5.000000000000000240e-05,-5.000000000000000240e-05,1.800000000000000113e-04,8.300000000000001170e-04,9.799999999999999684e-04,2.500000000000000052e-04,-1.000000000000000048e-04,-9.000000000000000567e-05,6.000000000000000000e+00,2.300000000000000000e+01
6.150700000000000000e+04,-5.000000000000000240e-05,-5.000000000000000240e-05,1.800000000000000113e-04,8.300000000000001170e-04,9.799999999999999684e-04,2.500000000000000052e-04,-1.000000000000000048e-04,-9.000000000000000567e-05,6.000000000000000000e+00,2.300000000000000000e+01
6.150800000000000000e+04,-5.000000000000000240e-05,-5.000000000000000240e-05,1.800000000000000113e-04,8.300000000000001170e-04,9.799999999999999684e-04,2.500000000000000052e-04,-1.000000000000000048e-04,-9.000000000000000567e-05,6.000000000000000000e+00,2.300000000000000000e+01
6.150900000000000000e+04,2.000000000000000164e-05,1.000000000000000082e-05,-1.000000000000000082e-05,2.999999999999999737e-05,1.100000000000000039e-04,2.999999999999999737e-05,-1.600000000000000131e-04,2.000000000000000164e-05,6.000000000000000000e+00,2.300000000000000000e+01
6.151000000000000000e+04,2.000000000000000164e-05,1.000000000000000082e-05,-1.000000000000000082e-05,2.999999999999999737e-05,1.100000000000000039e-04,2.999999999999999737e-05,-1.600000000000000131e-04,2.000000000000000164e-05,6.000000000000000000e+00,2.300000000000000000e+01
6.151100000000000000e+04,0.000000000000000000e+00,0.000000000000000000e+00,-5.999999999999999474e-05,-5.699999999999999772e-04,-2.000000000000000164e-05,1.699999999999999851e-04,1.699999999999999851e-04,2.999999999999999737e-05,6.000000000000000000e+00,2.300000000000000000e+01
6.151200000000000000e+04,0.000000000000000000e+00,0.000000000000000000e+00,-5.999999999999999474e-05,-5.699999999999999772e-04,-2.000000000000000164e-05,1.699999999999999851e-04,1.699999999999999851e-04,2.999999999999999737e-05,6.000000000000000000e+00,2.300000000000000000e+01
6.151300000000000000e+04,0.000000000000000000e+00,0.000000000000000000e+00,-5.999999999999999474e-05,-5.699999999999999772e-04,-2.000000000000000164e-05,1.699999999999999851e-04,1.699999999999999851e-04,2.999999999999999737e-05,6.000000000000000000e+00,2.300000000000000000e+01
6.151400000000000000e+04,0.000000000000000000e+00,0.000000000000000000e+00,-5.999999999999999474e-05,-5.699999999999999772e-04,-2.000000000000000164e-05,1.699999999999999851e-04,1.699999999999999851e-04,2.999999999999999737e-05,6.000000000000000000e+00,2.300000000000000000e+01
6.151500000000000000e+04,0.000000000000000000e+00,0.000000000000000000e+00,-5.999999999999999474e-05,-5.699999999999999772e-04,-2.000000000000000164e-05,1.699999999999999851e-04,1.699999999999999851e-04,2.999999999999999737e-05,6.000000000000000000e+00,2.300000000000000000e+01
6.151600000000000000e+04,0.000000000000000000e+00,0.000000000000000000e+00,-5.999999999999999474e-05,-5.699999999999999772e-04,-2.000000000000000164e-05,1.699999999999999851e-04,1.699999999999999851e-04,2.999999999999999737e-05,6.000000000000000000e+00,2.300000000000000000e+01
6.151700000000000000e+04,0.000000000000000000e+00,0.000000000000000000e+00,-5.999999999999999474e-05,-5.699999999999999772e-04,-2.000000000000000164e-05,1.699999999999999851e-04,1.699999999999999851e-04,2.999999999999999737e-05,6.000000000000000000e+00,2.300000000000000000e+01
6.151800000000000000e+04,0.000000000000000000e+00,0.000000000000000000e+00,-5.999999999999999474e-05,-5.699999999999999772e-04,-2.000000000000000164e-05,1.699999999999999851e-04,1.699999999999999851e-04,2.999999999999999737e-05,6.000000000000000000e+00,2.300000000000000000e+01
6.151900000000000000e+04,0.000000000000000000e+00,0.000000000000000000e+00,-5.999999999999999474e-05,-5.699999999999999772e-04,-2.000000000000000164e-05,1.699999999999999851e-04,1.699999999999999851e-04,2.999999999999999737e-05,6.000000000000000000e+00,2.300000000000000000e+01
6.152000000000000000e+04,0.000000000000000000e+00,0.000000000000000000e+00,-5.999999999999999474e-05,-5.699999999999999772e-04,-2.000000000000000164e-05,1.699999999999999851e-04,1.699999999999999851e-04,2.999999999999999737e-05,6.000000000000000000e+00,2.300000000000000000e+01
6.152100000000000000e+04,0.000000000000000000e+00,0.000000000000000000e+00,-5.999999999999999474e-05,-5.699999999999999772e-04,-2.000000000000000164e-05,1.699999999999999851e-04,1.699999999999999851e-04,2.999999999999999737e-05,6.000000000000000000e+00,2.300000000000000000e+01
6.152200000000000000e+04,0.000000000000000000e+00,0.000000000000000000e+00,-5.999999999999999474e-05,-5.699999999999999772e-04,-2.000000000000000164e-05,1.699999999999999851e-04,1.699999999999999851e-04,2.999999999999999737e-05,6.000000000000000000e+00,2.300000000000000000e+01
6.152300000000000000e+04,0.000000000000000000e+00,0.000000000000000000e+00,-5.999999999999999474e-05,-5.699999999999999772e-04,-2.000000000000000164e-05,1.699999999999999851e-04,1.699999999999999851e-04,2.999999999999999737e-05,6.000000000000000000e+00,2.300000000000000000e+01
6.152400000000000000e+04,0.000000000000000000e+00,0.000000000000000000e+00,-5.999999999999999474e-05,-5.699999999999999772e-04,-2.000000000000000164e-05,1.699999999999999851e-04,1.699999999999999851e-04,2.999999999999999737e-05,6.000000000000000000e+00,2.300000000000000000e+01
6.152500000000000000e+04,0.000000000000000000e+00,0.000000000000000000e+00,-5.999999999999999474e-05,-5.699999999999999772e-04,-2.000000000000000164e-05,1.699999999999999851e-04,1.699999999999999851e-04,2.999999999999999737e-05,6.000000000000000000e+00,2.300000000000000000e+01
6.152600000000000000e+04,0.000000000000000000e+00,0.000000000000000000e+00,-5.999999999999999474e-05,-5.699999999999999772e-04,-2.000000000000000164e-05,1.699999999999999851e-04,1.699999999999999851e-04,2.999999999999999737e-05,6.000000000000000000e+00,2.300000000000000000e+01
6.152700000000000000e+04,0.000000000000000000e+00,0.000000000000000000e+00,-5.999999999999999474e-05,-5.699999999999999772e-04,-2.000000000000000164e-05,1.699999999999999851e-04,1.699999999999999851e-04,2.999999999999999737e-05,6.000000000000000000e+00,2.300000000000000000e+01
6.152800000000000000e+04,0.000000000000000000e+00,0.000000000000000000e+00,-5.999999999999999474e-05,-5.699999999999999772e-04,-2.000000000000000164e-05,1.699999999999999851e-04,1.699999999999999851e-04,2.999999999999999737e-05,6.000000000000000000e+00,2.300000000000000000e+01
6.152900000000000000e+04,0.000000000000000000e+00,0.000000000000000000e+00,-5.999999999999999474e-05,-5.699999999999999772e-04,-2.000000000000000164e-05,1.699999999999999851e-04,1.699999999999999851e-04,2.999999999999999737e-05,6.000000000000000000e+00,2.300000000000000000e+01
6.153000000000000000e+04,0.000000000000000000e+00,0.000000000000000000e+00,-5.999999999999999474e-05,-5.699999999999999772e-04,-2.000000000000000164e-05,1.699999999999999851e-04,1.699999999999999851e-04,2.999999999999999737e-05,6.000000000000000000e+00,2.300000000000000000e+01
6.153100000000000000e+04,0.000000000000000000e+00,0.000000000000000000e+00,-5.999999999999999474e-05,-5.699999999999999772e-04,-2.000000000000000164e-05,1.699999999999999851e-04,1.699999999999999851e-04,2.999999999999999737e-05,6.000000000000000000e+00,2.300000000000000000e+01
6.153200000000000000e+04,-4.000000000000000327e-05,-4.000000000000000327e-05,-6.999999999999999387e-05,5.000000000000000240e-05,6.799999999999999404e-04,-9.000000000000000567e-05,1.199999999999999895e-04,-1.000000000000000082e-05,6.000000000000000000e+00,2.300000000000000000e+01
6.153300000000000000e+04,0.000000000000000000e+00,-1.000000000000000082e-05,-1.800000000000000113e-04,-5.999999999999999474e-04,-8.800000000000000313e-04,-2.900000000000000017e-04,-1.800000000000000113e-04,-4.000000000000000327e-05,6.000000000000000000e+00,2.300000000000000000e+01
6.153400000000000000e+04,0.000000000000000000e+00,-1.000000000000000082e-05,-1.800000000000000113e-04,-5.999999999999999474e-04,-8.800000000000000313e-04,-2.900000000000000017e-04,-1.800000000000000113e-04,-4.000000000000000327e-05,6.000000000000000000e+00,2.300000000000000000e+01
6.153500000000000000e+04,0.000000000000000000e+00,-1.000000000000000082e-05,-1.800000000000000113e-04,-5.999999999999999474e-04,-8.800000000000000313e-04,-2.900000000000000017e-04,-1.800000000000000113e-04,-4.000000000000000327e-05,6.000000000000000000e+00,2.300000000000000000e+01
6.153600000000000000e+04,0.000000000000000000e+00,-1.000000000000000082e-05,-1.800000000000000113e-04,-5.999999999999999474e-04,-8.800000000000000313e-04,-2.900000000000000017e-04,-1.800000000000000113e-04,-4.000000000000000327e-05,6.000000000000000000e+00,2.300000000000000000e+01
6.153800000000000000e+04,0.000000000000000000e+00,-1.000000000000000082e-05,-1.800000000000000113e-04,-5.999999999999999474e-04,-8.800000000000000313e-04,-2.900000000000000017e-04,-1.800000000000000113e-04,-4.000000000000000327e-05,6.000000000000000000e+00,2.300000000000000000e+01
6.153900000000000000e+04,0.000000000000000000e+00,-1.000000000000000082e-05,-1.800000000000000113e-04,-5.999999999999999474e-04,-8.800000000000000313e-04,-2.900000000000000017e-04,-1.800000000000000113e-04,-4.000000000000000327e-05,6.000000000000000000e+00,2.300000000000000000e+01
6.154000000000000000e+04,0.000000000000000000e+00,-1.000000000000000082e-05,-1.800000000000000113e-04,-5.999999999999999474e-04,-8.800000000000000313e-04,-2.900000000000000017e-04,-1.800000000000000113e-04,-4.000000000000000327e-05,6.000000000000000000e+00,2.300000000000000000e+01
6.154100000000000000e+04,0.000000000000000000e+00,-1.000000000000000082e-05,-1.800000000000000113e-04,-5.999999999999999474e-04,-8.800000000000000313e-04,-2.900000000000000017e-04,-1.800000000000000113e-04,-4.000000000000000327e-05,6.000000000000000000e+00,2.300000000000000000e+01
6.154200000000000000e+04,0.000000000000000000e+00,-1.000000000000000082e-05,-1.800000000000000113e-04,-5.999999999999999474e-04,-8.800000000000000313e-04,-2.900000000000000017e-04,-1.800000000000000113e-04,-4.000000000000000327e-05,6.000000000000000000e+00,2.300000000000000000e+01
6.154300000000000000e+04,0.000000000000000000e+00,-1.000000000000000082e-05,-1.800000000000000113e-04,-5.999999999999999474e-04,-8.800000000000000313e-04,-2.900000000000000017e-04,-1.800000000000000113e-04,-4.000000000000000327e-05,6.000000000000000000e+00,2.300000000000000000e+01
6.154400000000000000e+04,0.000000000000000000e+00,-1.000000000000000082e-05,-1.800000000000000113e-04,-5.999999999999999474e-04,-8.800000000000000313e-04,-2.900000000000000017e-04,-1.800000000000000113e-04,-4.000000000000000327e-05,6.000000000000000000e+00,2.300000000000000000e+01
6.154500000000000000e+04,0.000000000000000000e+00,-1.000000000000000082e-05,-1.800000000000000113e-04,-5.999999999999999474e-04,-8.800000000000000313e-04,-2.900000000000000017e-04,-1.800000000000000113e-04,-4.000000000000000327e-05,6.000000000000000000e+00,2.300000000000000000e+01
6.154600000000000000e+04,0.000000000000000000e+00,-1.000000000000000082e-05,-1.800000000000000113e-04,-5.999999999999999474e-04,-8.800000000000000313e-04,-2.900000000000000017e-04,-1.800000000000000113e-04,-4.000000000000000327e-05,6.000000000000000000e+00,2.300000000000000000e+01
6.154700000000000000e+04,0.000000000000000000e+00,-1.000000000000000082e-05,-1.800000000000000113e-04,-5.999999999999999474e-04,-8.800000000000000313e-04,-2.900000000000000017e-04,-1.800000000000000113e-04,-4.000000000000000327e-05,6.000000000000000000e+00,2.300000000000000000e+01
6.154800000000000000e+04,0.000000000000000000e+00,-1.000000000000000082e-05,-1.800000000000000113e-04,-5.999999999999999474e-04,-8.800000000000000313e-04,-2.900000000000000017e-04,-1.800000000000000113e-04,-4.000000000000000327e-05,6.000000000000000000e+00,2.300000000000000000e+01
6.154900000000000000e+04,0.000000000000000000e+00,-1.000000000000000082e-05,-1.800000000000000113e-04,-5.999999999999999474e-04,-8.800000000000000313e-04,-2.900000000000000017e-04,-1.800000000000000113e-04,-4.000000000000000327e-05,6.000000000000000000e+00,2.300000000000000000e+01
6.155000000000000000e+04,0.000000000000000000e+00,-1.000000000000000082e-05,-1.800000000000000113e-04,-5.999999999999999474e-04,-8.800000000000000313e-04,-2.900000000000000017e-04,-1.800000000000000113e-04,-4.000000000000000327e-05,6.000000000000000000e+00,2.300000000000000000e+01
6.155100000000000000e+04,0.000000000000000000e+00,-1.000000000000000082e-05,-1.800000000000000113e-04,-5.999999999999999474e-04,-8.800000000000000313e-04,-2.900000000000000017e-04,-1.800000000000000113e-04,-4.000000000000000327e-05,6.000000000000000000e+00,2.300000000000000000e+01
6.155200000000000000e+04,0.000000000000000000e+00,-1.000000000000000082e-05,-1.800000000000000113e-04,-5.999999999999999474e-04,-8.800000000000000313e-04,-2.900000000000000017e-04,-1.800000000000000113e-04,-4.000000000000000327e-05,6.000000000000000000e+00,2.300000000000000000e+01
6.155300000000000000e+04,0.000000000000000000e+00,-1.000000000000000082e-05,-1.800000000000000113e-04,-5.999999999999999474e-04,-8.800000000000000313e-04,-2.900000000000000017e-04,-1.800000000000000113e-04,-4.000000000000000327e-05,6.000000000000000000e+00,2.300000000000000000e+01
6.155400000000000000e+04,0.000000000000000000e+00,-1.000000000000000082e-05,-1.800000000000000113e-04,-5.999999999999999474e-04,-8.800000000000000313e-04,-2.900000000000000017e-04,-1.800000000000000113e-04,-4.000000000000000327e-05,6.000000000000000000e+00,2.300000000000000000e+01
6.155500000000000000e+04,2.999999999999999737e-05,2.000000000000000164e-05,4.000000000000000327e-05,-5.999999999999999474e-05,4.000000000000000327e-05,2.100000000000000087e-04,-4.599999999999999597e-04,-2.600000000000000314e-04,6.000000000000000000e+00,2.300000000000000000e+01
6.155600000000000000e+04,-2.000000000000000164e-05,-2.999999999999999737e-05,5.000000000000000240e-05,1.199999999999999895e-04,-1.499999999999999869e-04,-2.700000000000000035e-04,-1.699999999999999851e-04,-5.000000000000000240e-05,6.000000000000000000e+00,2.300000000000000000e+01
6.155700000000000000e+04,-2.000000000000000164e-05,-2.999999999999999737e-05,5.000000000000000240e-05,1.199999999999999895e-04,-1.499999999999999869e-04,-2.700000000000000035e-04,-1.699999999999999851e-04,-5.000000000000000240e-05,6.000000000000000000e+00,2.300000000000000000e+01
6.155800000000000000e+04,-2.000000000000000164e-05,-2.999999999999999737e-05,5.000000000000000240e-05,1.199999999999999895e-04,-1.499999999999999869e-04,-2.700000000000000035e-04,-1.699999999999999851e-04,-5.000000000000000240e-05,6.000000000000000000e+00,2.300000000000000000e+01
6.155900000000000000e+04,-2.000000000000000164e-05,-2.999999999999999737e-05,5.000000000000000240e-05,1.199999999999999895e-04,-1.499999999999999869e-04,-2.700000000000000035e-04,-1.699999999999999851e-04,-5.000000000000000240e-05,6.000000000000000000e+00,2.300000000000000000e+01
6.156000000000000000e+04,-2.000000000000000164e-05,-2.999999999999999737e-05,5.000000000000000240e-05,1.199999999999999895e-04,-1.499999999999999869e-04,-2.700000000000000035e-04,-1.699999999999999851e-04,-5.000000000000000240e-05,6.000000000000000000e+00,2.300000000000000000e+01
6.156100000000000000e+04,-2.000000000000000164e-05,-2.999999999999999737e-05,5.000000000000000240e-05,1.199999999999999895e-04,-1.499999999999999869e-04,-2.700000000000000035e-04,-1.699999999999999851e-04,-5.000000000000000240e-05,6.000000000000000000e+00,2.300000000000000000e+01
6.156200000000000000e+04,-2.000000000000000164e-05,-2.999999999999999737e-05,5.000000000000000240e-05,1.199999999999999895e-04,-1.499999999999999869e-04,-2.700000000000000035e-04,-1.699999999999999851e-04,-5.000000000000000240e-05,6.000000000000000000e+00,2.300000000000000000e+01
6.156300000000000000e+04,-2.000000000000000164e-05,-2.999999999999999737e-05,5.000000000000000240e-05,1.199999999999999895e-04,-1.499999999999999869e-04,-2.700000000000000035e-04,-1.699999999999999851e-04,-5.000000000000000240e-05,6.000000000000000000e+00,2.300000000000000000e+01
6.156400000000000000e+04,-2.000000000000000164e-05,-2.999999999999999737e-05,5.000000000000000240e-05,1.199999999999999895e-04,-1.499999999999999869e-04,-2.700000000000000035e-04,-1.699999999999999851e-04,-5.000000000000000240e-05,6.000000000000000000e+00,2.300000000000000000e+01
6.156500000000000000e+04,-2.000000000000000164e-05,-2.999999999999999737e-05,5.000000000000000240e-05,1.199999999999999895e-04,-1.499999999999999869e-04,-2.700000000000000035e-04,-1.699999999999999851e-04,-5.000000000000000240e-05,6.000000000000000000e+00,2.300000000000000000e+01
6.156600000000000000e+04,-2.000000000000000164e-05,-2.999999999999999737e-05,5.000000000000000240e-05,1.199999999999999895e-04,-1.499999999999999869e-04,-2.700000000000000035e-04,-1.699999999999999851e-04,-5.000000000000000240e-05,6.000000000000000000e+00,2.300000000000000000e+01
6.156700000000000000e+04,-2.000000000000000164e-05,-2.999999999999999737e-05,5.000000000000000240e-05,1.199999999999999895e-04,-1.499999999999999869e-04,-2.700000000000000035e-04,-1.699999999999999851e-04,-5.000000000000000240e-05,6.000000000000000000e+00,2.300000000000000000e+01
6.156800000000000000e+04,-2.000000000000000164e-05,-2.999999999999999737e-05,5.000000000000000240e-05,1.199999999999999895e-04,-1.499999999999999869e-04,-2.700000000000000035e-04,-1.699999999999999851e-04,-5.000000000000000240e-05,6.000000000000000000e+00,2.300000000000000000e+01
6.156900000000000000e+04,-2.000000000000000164e-05,-2.000000000000000164e-05,-4.000000000000000327e-05,-7.399999999999999894e-04,3.399999999999999702e-04,-4.000000000000000192e-04,1.600000000000000131e-04,1.300000000000000157e-04,6.000000000000000000e+00,2.300000000000000000e+01
6.157000000000000000e+04,-2.000000000000000164e-05,-2.000000000000000164e-05,-4.000000000000000327e-05,-7.399999999999999894e-04,3.399999999999999702e-04,-4.000000000000000192e-04,1.600000000000000131e-04,1.300000000000000157e-04,6.000000000000000000e+00,2.300000000000000000e+01
6.157100000000000000e+04,-1.000000000000000082e-05,-4.000000000000000327e-05,-4.000000000000000327e-05,3.499999999999999964e-04,-1.499999999999999869e-04,2.000000000000000096e-04,0.000000000000000000e+00,0.000000000000000000e+00,6.000000000000000000e+00,2.300000000000000000e+01
6.157200000000000000e+04,-6.999999999999999387e-05,0.000000000000000000e+00,-1.399999999999999877e-04,-7.700000000000000681e-04,1.899999999999999834e-04,-8.000000000000000654e-05,-2.299999999999999799e-04,-1.000000000000000048e-04,6.000000000000000000e+00,2.300000000000000000e+01
6.157300000000000000e+04,-6.999999999999999387e-05,0.000000000000000000e+00,-1.399999999999999877e-04,-7.700000000000000681e-04,1.899999999999999834e-04,-8.000000000000000654e-05,-2.299999999999999799e-04,-1.000000000000000048e-04,6.000000000000000000e+00,2.300000000000000000e+01
6.157400000000000000e+04,-6.999999999999999387e-05,0.000000000000000000e+00,-1.399999999999999877e-04,-7.700000000000000681e-04,1.899999999999999834e-04,-8.000000000000000654e-05,-2.299999999999999799e-04,-1.000000000000000048e-04,6.000000000000000000e+00,2.300000000000000000e+01
6.157500000000000000e+04,-6.999999999999999387e-05,0.000000000000000000e+00,-1.399999999999999877e-04,-7.700000000000000681e-04,1.899999999999999834e-04,-8.000000000000000654e-05,-2.299999999999999799e-04,-1.000000000000000048e-04,6.000000000000000000e+00,2.300000000000000000e+01
6.157600000000000000e+04,-6.999999999999999387e-05,0.000000000000000000e+00,-1.399999999999999877e-04,-7.700000000000000681e-04,1.899999999999999834e-04,-8.000000000000000654e-05,-2.299999999999999799e-04,-1.000000000000000048e-04,6.000000000000000000e+00,2.300000000000000000e+01
6.157700000000000000e+04,-6.999999999999999387e-05,0.000000000000000000e+00,-1.399999999999999877e-04,-7.700000000000000681e-04,1.899999999999999834e-04,-8.000000000000000654e-05,-2.299999999999999799e-04,-1.000000000000000048e-04,6.000000000000000000e+00,2.300000000000000000e+01
6.157800000000000000e+04,-6.999999999999999387e-05,0.000000000000000000e+00,-1.399999999999999877e-04,-7.700000000000000681e-04,1.899999999999999834e-04,-8.000000000000000654e-05,-2.299999999999999799e-04,-1.000000000000000048e-04,6.000000000000000000e+00,2.300000000000000000e+01
6.157900000000000000e+04,-6.999999999999999387e-05,0.000000000000000000e+00,-1.399999999999999877e-04,-7.700000000000000681e-04,1.899999999999999834e-04,-8.000000000000000654e-05,-2.299999999999999799e-04,-1.000000000000000048e-04,6.000000000000000000e+00,2.300000000000000000e+01
6.158000000000000000e+04,-6.999999999999999387e-05,0.000000000000000000e+00,-1.399999999999999877e-04,-7.700000000000000681e-04,1.899999999999999834e-04,-8.000000000000000654e-05,-2.299999999999999799e-04,-1.000000000000000048e-04,6.000000000000000000e+00,2.300000000000000000e+01
6.158100000000000000e+04,-6.999999999999999387e-05,0.000000000000000000e+00,-1.399999999999999877e-04,-7.700000000000000681e-04,1.899999999999999834e-04,-8.000000000000000654e-05,-2.299999999999999799e-04,-1.000000000000000048e-04,6.000000000000000000e+00,2.300000000000000000e+01
6.158200000000000000e+04,-6.999999999999999387e-05,0.000000000000000000e+00,-1.399999999999999877e-04,-7.700000000000000681e-04,1.899999999999999834e-04,-8.000000000000000654e-05,-2.299999999999999799e-04,-1.000000000000000048e-04,6.000000000000000000e+00,2.300000000000000000e+01
6.158300000000000000e+04,-6.999999999999999387e-05,0.000000000000000000e+00,-1.399999999999999877e-04,-7.700000000000000681e-04,1.899999999999999834e-04,-8.000000000000000654e-05,-2.299999999999999799e-04,-1.000000000000000048e-04,6.000000000000000000e+00,2.300000000000000000e+01
6.158400000000000000e+04,-6.999999999999999387e-05,0.000000000000000000e+00,-1.399999999999999877e-04,-7.700000000000000681e-04,1.899999999999999834e-04,-8.000000000000000654e-05,-2.299999999999999799e-04,-1.000000000000000048e-04,6.000000000000000000e+00,2.300000000000000000e+01
6.158500000000000000e+04,-6.999999999999999387e-05,0.000000000000000000e+00,-1.399999999999999877e-04,-7.700000000000000681e-04,1.899999999999999834e-04,-8.000000000000000654e-05,-2.299999999999999799e-04,-1.000000000000000048e-04,6.000000000000000000e+00,2.300000000000000000e+01
6.158600000000000000e+04,-6.999999999999999387e-05,0.000000000000000000e+00,-1.399999999999999877e-04,-7.700000000000000681e-04,1.899999999999999834e-04,-8.000000000000000654e-05,-2.299999999999999799e-04,-1.000000000000000048e-04,6.000000000000000000e+00,2.300000000000000000e+01
6.158800000000000000e+04,-6.999999999999999387e-05,0.000000000000000000e+00,-1.399999999999999877e-04,-7.700000000000000681e-04,1.899999999999999834e-04,-8.000000000000000654e-05,-2.299999999999999799e-04,-1.000000000000000048e-04,6.000000000000000000e+00,2.300000000000000000e+01
6.158900000000000000e+04,-6.999999999999999387e-05,0.000000000000000000e+00,-1.399999999999999877e-04,-7.700000000000000681e-04,1.899999999999999834e-04,-8.000000000000000654e-05,-2.299999999999999799e-04,-1.000000000000000048e-04,6.000000000000000000e+00,2.300000000000000000e+01
6.159000000000000000e+04,-6.999999999999999387e-05,0.000000000000000000e+00,-1.399999999999999877e-04,-7.700000000000000681e-04,1.899999999999999834e-04,-8.000000000000000654e-05,-2.299999999999999799e-04,-1.000000000000000048e-04,6.000000000000000000e+00,2.300000000000000000e+01
6.159100000000000000e+04,-6.999999999999999387e-05,0.000000000000000000e+00,-1.399999999999999877e-04,-7.700000000000000681e-04,1.899999999999999834e-04,-8.000000000000000654e-05,-2.299999999999999799e-04,-1.000000000000000048e-04,6.000000000000000000e+00,2.300000000000000000e+01
6.159200000000000000e+04,-2.000000000000000164e-05,-1.000000000000000082e-05,-4.000000000000000327e-05,-2.000000000000000164e-05,6.199999999999999999e-04,9.000000000000000567e-05,-3.099999999999999999e-04,5.000000000000000240e-05,6.000000000000000000e+00,2.300000000000000000e+01
6.159300000000000000e+04,-6.999999999999999387e-05,-9.000000000000000567e-05,-9.000000000000000567e-05,4.799999999999999580e-04,3.499999999999999964e-04,-1.499999999999999869e-04,-1.000000000000000048e-04,-1.300000000000000157e-04,6.000000000000000000e+00,2.300000000000000000e+01
6.159400000000000000e+04,-6.999999999999999387e-05,-9.000000000000000567e-05,-9.000000000000000567e-05,4.799999999999999580e-04,3.499999999999999964e-04,-1.499999999999999869e-04,-1.000000000000000048e-04,-1.300000000000000157e-04,6.000000000000000000e+00,2.300000000000000000e+01
6.159500000000000000e+04,-6.999999999999999387e-05,-9.000000000000000567e-05,-9.000000000000000567e-05,4.799999999999999580e-04,3.499999999999999964e-04,-1.499999999999999869e-04,-1.000000000000000048e-04,-1.300000000000000157e-04,6.000000000000000000e+00,2.300000000000000000e+01
6.159600000000000000e+04,-6.999999999999999387e-05,-9.000000000000000567e-05,-9.000000000000000567e-05,4.799999999999999580e-04,3.499999999999999964e-04,-1.499999999999999869e-04,-1.000000000000000048e-04,-1.300000000000000157e-04,6.000000000000000000e+00,2.300000000000000000e+01
6.159700000000000000e+04,-6.999999999999999387e-05,-9.000000000000000567e-05,-9.000000000000000567e-05,4.799999999999999580e-04,3.499999999999999964e-04,-1.499999999999999869e-04,-1.000000000000000048e-04,-1.300000000000000157e-04,6.000000000000000000e+00,2.300000000000000000e+01
6.159800000000000000e+04,-6.999999999999999387e-05,-9.000000000000000567e-05,-9.000000000000000567e-05,4.799999999999999580e-04,3.499999999999999964e-04,-1.499999999999999869e-04,-1.000000000000000048e-04,-1.300000000000000157e-04,6.000000000000000000e+00,2.300000000000000000e+01
6.159900000000000000e+04,-6.999999999999999387e-05,-9.000000000000000567e-05,-9.000000000000000567e-05,4.799999999999999580e-04,3.499999999999999964e-04,-1.499999999999999869e-04,-1.000000000000000048e-04,-1.300000000000000157e-04,6.000000000000000000e+00,2.300000000000000000e+01
6.160000000000000000e+04,-6.999999999999999387e-05,-9.000000000000000567e-05,-9.000000000000000567e-05,4.799999999999999580e-04,3.499999999999999964e-04,-1.499999999999999869e-04,-1.000000000000000048e-04,-1.300000000000000157e-04,6.000000000000000000e+00,2.300000000000000000e+01
6.160100000000000000e+04,-6.999999999999999387e-05,-9.000000000000000567e-05,-9.000000000000000567e-05,4.799999999999999580e-04,3.499999999999999964e-04,-1.499999999999999869e-04,-1.000000000000000048e-04,-1.300000000000000157e-04,6.000000000000000000e+00,2.300000000000000000e+01
6.160200000000000000e+04,-6.999999999999999387e-05,-9.000000000000000567e-05,-9.000000000000000567e-05,4.799999999999999580e-04,3.499999999999999964e-04,-1.499999999999999869e-04,-1.000000000000000048e-04,-1.300000000000000157e-04,6.000000000000000000e+00,2.300000000000000000e+01
6.160300000000000000e+04,-6.999999999999999387e-05,-9.000000000000000567e-05,-9.000000000000000567e-05,4.799999999999999580e-04,3.499999999999999964e-04,-1.499999999999999869e-04,-1.000000000000000048e-04,-1.300000000000000157e-04,6.000000000000000000e+00,2.300000000000000000e+01
6.160400000000000000e+04,-6.999999999999999387e-05,-9.000000000000000567e-05,-9.000000000000000567e-05,4.799999999999999580e-04,3.499999999999999964e-04,-1.499999999999999869e-04,-1.000000000000000048e-04,-1.300000000000000157e-04,6.000000000000000000e+00,2.300000000000000000e+01
6.160500000000000000e+04,-6.999999999999999387e-05,-9.000000000000000567e-05,-9.000000000000000567e-05,4.799999999999999580e-04,3.499999999999999964e-04,-1.499999999999999869e-04,-1.000000000000000048e-04,-1.300000000000000157e-04,6.000000000000000000e+00,2.300000000000000000e+01
6.160600000000000000e+04,-6.999999999999999387e-05,-9.000000000000000567e-05,-9.000000000000000567e-05,4.799999999999999580e-04,3.499999999999999964e-04,-1.499999999999999869e-04,-1.000000000000000048e-04,-1.300000000000000157e-04,6.000000000000000000e+00,2.300000000000000000e+01
6.160700000000000000e+04,1.000000000000000082e-05,2.000000000000000164e-05,4.000000000000000327e-05,7.500000000000000156e-04,4.000000000000000192e-04,1.399999999999999877e-04,4.200000000000000174e-04,6.999999999999999387e-05,6.000000000000000000e+00,2.300000000000000000e+01
6.160800000000000000e+04,2.000000000000000164e-05,-2.000000000000000164e-05,-1.699999999999999851e-04,-6.300000000000000261e-04,-4.799999999999999580e-04,1.000000000000000048e-04,-1.699999999999999851e-04,1.000000000000000082e-05,6.000000000000000000e+00,2.300000000000000000e+01
6.160900000000000000e+04,2.000000000000000164e-05,-2.000000000000000164e-05,-1.699999999999999851e-04,-6.300000000000000261e-04,-4.799999999999999580e-04,1.000000000000000048e-04,-1.699999999999999851e-04,1.000000000000000082e-05,6.000000000000000000e+00,2.300000000000000000e+01
6.161000000000000000e+04,2.000000000000000164e-05,-2.000000000000000164e-05,-1.699999999999999851e-04,-6.300000000000000261e-04,-4.799999999999999580e-04,1.000000000000000048e-04,-1.699999999999999851e-04,1.000000000000000082e-05,6.000000000000000000e+00,2.300000000000000000e+01
6.161100000000000000e+04,2.000000000000000164e-05,-2.000000000000000164e-05,-1.699999999999999851e-04,-6.300000000000000261e-04,-4.799999999999999580e-04,1.000000000000000048e-04,-1.699999999999999851e-04,1.000000000000000082e-05,6.000000000000000000e+00,2.300000000000000000e+01
6.161200000000000000e+04,2.000000000000000164e-05,-2.000000000000000164e-05,-1.699999999999999851e-04,-6.300000000000000261e-04,-4.799999999999999580e-04,1.000000000000000048e-04,-1.699999999999999851e-04,1.000000000000000082e-05,6.000000000000000000e+00,2.300000000000000000e+01
6.161300000000000000e+04,2.000000000000000164e-05,-2.000000000000000164e-05,-1.699999999999999851e-04,-6.300000000000000261e-04,-4.799999999999999580e-04,1.000000000000000048e-04,-1.699999999999999851e-04,1.000000000000000082e-05,6.000000000000000000e+00,2.300000000000000000e+01
6.161400000000000000e+04,2.000000000000000164e-05,-2.000000000000000164e-05,-1.699999999999999851e-04,-6.300000000000000261e-04,-4.799999999999999580e-04,1.000000000000000048e-04,-1.699999999999999851e-04,1.000000000000000082e-05,6.000000000000000000e+00,2.300000000000000000e+01
6.161500000000000000e+04,2.000000000000000164e-05,-2.000000000000000164e-05,-1.699999999999999851e-04,-6.300000000000000261e-04,-4.799999999999999580e-04,1.000000000000000048e-04,-1.699999999999999851e-04,1.000000000000000082e-05,6.000000000000000000e+00,2.300000000000000000e+01
6.161600000000000000e+04,2.000000000000000164e-05,-2.000000000000000164e-05,-1.699999999999999851e-04,-6.300000000000000261e-04,-4.799999999999999580e-04,1.000000000000000048e-04,-1.699999999999999851e-04,1.000000000000000082e-05,6.000000000000000000e+00,2.300000000000000000e+01
6.161700000000000000e+04,2.000000000000000164e-05,-2.000000000000000164e-05,-1.699999999999999851e-04,-6.300000000000000261e-04,-4.799999999999999580e-04,1.000000000000000048e-04,-1.699999999999999851e-04,1.000000000000000082e-05,6.000000000000000000e+00,2.300000000000000000e+01
6.161800000000000000e+04,2.000000000000000164e-05,-2.000000000000000164e-05,-1.699999999999999851e-04,-6.300000000000000261e-04,-4.799999999999999580e-04,1.000000000000000048e-04,-1.699999999999999851e-04,1.000000000000000082e-05,6.000000000000000000e+00,2.300000000000000000e+01
6.161900000000000000e+04,2.000000000000000164e-05,-2.000000000000000164e-05,-1.699999999999999851e-04,-6.300000000000000261e-04,-4.799999999999999580e-04,1.000000000000000048e-04,-1.699999999999999851e-04,1.000000000000000082e-05,6.000000000000000000e+00,2.300000000000000000e+01
6.162000000000000000e+04,2.000000000000000164e-05,-2.000000000000000164e-05,-1.699999999999999851e-04,-6.300000000000000261e-04,-4.799999999999999580e-04,1.000000000000000048e-04,-1.699999999999999851e-04,1.000000000000000082e-05,6.000000000000000000e+00,2.300000000000000000e+01
6.162100000000000000e+04,2.000000000000000164e-05,-2.000000000000000164e-05,-1.699999999999999851e-04,-6.300000000000000261e-04,-4.799999999999999580e-04,1.000000000000000048e-04,-1.699999999999999851e-04,1.000000000000000082e-05,6.000000000000000000e+00,2.300000000000000000e+01
6.162200000000000000e+04,2.000000000000000164e-05,-2.000000000000000164e-05,-1.699999999999999851e-04,-6.300000000000000261e-04,-4.799999999999999580e-04,1.000000000000000048e-04,-1.699999999999999851e-04,1.000000000000000082e-05,6.000000000000000000e+00,2.300000000000000000e+01
6.162300000000000000e+04,2.000000000000000164e-05,-2.000000000000000164e-05,-1.699999999999999851e-04,-6.300000000000000261e-04,-4.799999999999999580e-04,1.000000000000000048e-04,-1.699999999999999851e-04,1.000000000000000082e-05,6.000000000000000000e+00,2.300000000000000000e+01
6.162400000000000000e+04,2.000000000000000164e-05,-2.000000000000000164e-05,-1.699999999999999851e-04,-6.300000000000000261e-04,-4.799999999999999580e-04,1.000000000000000048e-04,-1.699999999999999851e-04,1.000000000000000082e-05,6.000000000000000000e+00,2.300000000000000000e+01
6.162500000000000000e+04,2.000000000000000164e-05,-2.000000000000000164e-05,-1.699999999999999851e-04,-6.300000000000000261e-04,-4.799999999999999580e-04,1.000000000000000048e-04,-1.699999999999999851e-04,1.000000000000000082e-05,6.000000000000000000e+00,2.300000000000000000e+01
6.162600000000000000e+04,2.000000000000000164e-05,-2.000000000000000164e-05,-1.699999999999999851e-04,-6.300000000000000261e-04,-4.799999999999999580e-04,1.000000000000000048e-04,-1.699999999999999851e-04,1.000000000000000082e-05,6.000000000000000000e+00,2.300000000000000000e+01
6.162700000000000000e+04,2.000000000000000164e-05,-2.000000000000000164e-05,-1.699999999999999851e-04,-6.300000000000000261e-04,-4.799999999999999580e-04,1.000000000000000048e-04,-1.699999999999999851e-04,1.000000000000000082e-05,6.000000000000000000e+00,2.300000000000000000e+01
6.162800000000000000e+04,2.000000000000000164e-05,-2.000000000000000164e-05,-1.699999999999999851e-04,-6.300000000000000261e-04,-4.799999999999999580e-04,1.000000000000000048e-04,-1.699999999999999851e-04,1.000000000000000082e-05,6.000000000000000000e+00,2.300000000000000000e+01
6.162900000000000000e+04,2.000000000000000164e-05,-2.000000000000000164e-05,-1.699999999999999851e-04,-6.300000000000000261e-04,-4.799999999999999580e-04,1.000000000000000048e-04,-1.699999999999999851e-04,1.000000000000000082e-05,6.000000000000000000e+00,2.300000000000000000e+01
6.163000000000000000e+04,2.000000000000000164e-05,-2.000000000000000164e-05,-1.699999999999999851e-04,-6.300000000000000261e-04,-4.799999999999999580e-04,1.000000000000000048e-04,-1.699999999999999851e-04,1.000000000000000082e-05,6.000000000000000000e+00,2.300000000000000000e+01
6.163100000000000000e+04,2.000000000000000164e-05,-2.000000000000000164e-05,-1.699999999999999851e-04,-6.300000000000000261e-04,-4.799999999999999580e-04,1.000000000000000048e-04,-1.699999999999999851e-04,1.000000000000000082e-05,6.000000000000000000e+00,2.300000000000000000e+01
6.163200000000000000e+04,2.000000000000000164e-05,-2.000000000000000164e-05,-1.699999999999999851e-04,-6.300000000000000261e-04,-4.799999999999999580e-04,1.000000000000000048e-04,-1.699999999999999851e-04,1.000000000000000082e-05,6.000000000000000000e+00,2.300000000000000000e+01
6.163300000000000000e+04,2.000000000000000164e-05,-2.000000000000000164e-05,-1.699999999999999851e-04,-6.300000000000000261e-04,-4.799999999999999580e-04,1.000000000000000048e-04,-1.699999999999999851e-04,1.000000000000000082e-05,6.000000000000000000e+00,2.300000000000000000e+01
6.163400000000000000e+04,2.000000000000000164e-05,-2.000000000000000164e-05,-1.699999999999999851e-04,-6.300000000000000261e-04,-4.799999999999999580e-04,1.000000000000000048e-04,-1.699999999999999851e-04,1.000000000000000082e-05,6.000000000000000000e+00,2.300000000000000000e+01
6.163500000000000000e+04,2.000000000000000164e-05,-2.000000000000000164e-05,-1.699999999999999851e-04,-6.300000000000000261e-04,-4.799999999999999580e-04,1.000000000000000048e-04,-1.699999999999999851e-04,1.000000000000000082e-05,6.000000000000000000e+00,2.300000000000000000e+01
6.163600000000000000e+04,2.000000000000000164e-05,-2.000000000000000164e-05,-1.699999999999999851e-04,-6.300000000000000261e-04,-4.799999999999999580e-04,1.000000000000000048e-04,-1.699999999999999851e-04,1.000000000000000082e-05,6.000000000000000000e+00,2.300000000000000000e+01
6.163900000000000000e+04,-2.000000000000000164e-05,-5.000000000000000240e-05,8.000000000000000654e-05,3.799999999999999667e-04,-1.399999999999999877e-04,-8.000000000000000654e-05,2.999999999999999737e-05,1.000000000000000082e-05,6.000000000000000000e+00,2.300000000000000000e+01
6.164000000000000000e+04,-2.000000000000000164e-05,-5.000000000000000240e-05,8.000000000000000654e-05,3.799999999999999667e-04,-1.399999999999999877e-04,-8.000000000000000654e-05,2.999999999999999737e-05,1.000000000000000082e-05,6.000000000000000000e+00,2.300000000000000000e+01
6.164100000000000000e+04,-2.000000000000000164e-05,-5.000000000000000240e-05,8.000000000000000654e-05,3.799999999999999667e-04,-1.399999999999999877e-04,-8.000000000000000654e-05,2.999999999999999737e-05,1.000000000000000082e-05,6.000000000000000000e+00,2.300000000000000000e+01
6.164200000000000000e+04,-2.000000000000000164e-05,-5.000000000000000240e-05,8.000000000000000654e-05,3.799999999999999667e-04,-1.399999999999999877e-04,-8.000000000000000654e-05,2.999999999999999737e-05,1.000000000000000082e-05,6.000000000000000000e+00,2.300000000000000000e+01
6.164300000000000000e+04,-2.000000000000000164e-05,-5.000000000000000240e-05,8.000000000000000654e-05,3.799999999999999667e-04,-1.399999999999999877e-04,-8.000000000000000654e-05,2.999999999999999737e-05,1.000000000000000082e-05,6.000000000000000000e+00,2.300000000000000000e+01
6.164400000000000000e+04,-2.000000000000000164e-05,-5.000000000000000240e-05,8.000000000000000654e-05,3.799999999999999667e-04,-1.399999999999999877e-04,-8.000000000000000654e-05,2.999999999999999737e-05,1.000000000000000082e-05,6.000000000000000000e+00,2.300000000000000000e+01
6.164500000000000000e+04,-2.000000000000000164e-05,-5.000000000000000240e-05,8.000000000000000654e-05,3.799999999999999667e-04,-1.399999999999999877e-04,-8.000000000000000654e-05,2.999999999999999737e-05,1.000000000000000082e-05,6.000000000000000000e+00,2.300000000000000000e+01
6.164600000000000000e+04,-2.000000000000000164e-05,-5.000000000000000240e-05,8.000000000000000654e-05,3.799999999999999667e-04,-1.399999999999999877e-04,-8.000000000000000654e-05,2.999999999999999737e-05,1.000000000000000082e-05,6.000000000000000000e+00,2.300000000000000000e+01
6.164700000000000000e+04,-2.000000000000000164e-05,-5.000000000000000240e-05,8.000000000000000654e-05,3.799999999999999667e-04,-1.399999999999999877e-04,-8.000000000000000654e-05,2.999999999999999737e-05,1.000000000000000082e-05,6.000000000000000000e+00,2.300000000000000000e+01
6.164800000000000000e+04,-2.000000000000000164e-05,-5.000000000000000240e-05,8.000000000000000654e-05,3.799999999999999667e-04,-1.399999999999999877e-04,-8.000000000000000654e-05,2.999999999999999737e-05,1.000000000000000082e-05,6.000000000000000000e+00,2.300000000000000000e+01
6.164900000000000000e+04,-2.000000000000000164e-05,-5.000000000000000240e-05,8.000000000000000654e-05,3.799999999999999667e-04,-1.399999999999999877e-04,-8.000000000000000654e-05,2.999999999999999737e-05,1.000000000000000082e-05,6.000000000000000000e+00,2.300000000000000000e+01
6.165000000000000000e+04,-2.000000000000000164e-05,-5.000000000000000240e-05,8.000000000000000654e-05,3.799999999999999667e-04,-1.399999999999999877e-04,-8.000000000000000654e-05,2.999999999999999737e-05,1.000000000000000082e-05,6.000000000000000000e+00,2.300000000000000000e+01
6.165100000000000000e+04,-2.000000000000000164e-05,-5.000000000000000240e-05,8.000000000000000654e-05,3.799999999999999667e-04,-1.399999999999999877e-04,-8.000000000000000654e-05,2.999999999999999737e-05,1.000000000000000082e-05,6.000000000000000000e+00,2.300000000000000000e+01
6.165200000000000000e+04,-2.000000000000000164e-05,-5.000000000000000240e-05,8.000000000000000654e-05,3.799999999999999667e-04,-1.399999999999999877e-04,-8.000000000000000654e-05,2.999999999999999737e-05,1.000000000000000082e-05,6.000000000000000000e+00,2.300000000000000000e+01
6.165300000000000000e+04,-1.000000000000000082e-05,-2.000000000000000164e-05,6.999999999999999387e-05,9.000000000000000567e-05,-1.240000000000000000e-03,-1.000000000000000048e-04,1.399999999999999877e-04,-1.000000000000000082e-05,6.000000000000000000e+00,2.300000000000000000e+01
6.165400000000000000e+04,-1.000000000000000082e-05,-2.000000000000000164e-05,6.999999999999999387e-05,9.000000000000000567e-05,-1.240000000000000000e-03,-1.000000000000000048e-04,1.399999999999999877e-04,-1.000000000000000082e-05,6.000000000000000000e+00,2.300000000000000000e+01
6.165500000000000000e+04,-1.000000000000000082e-05,-2.000000000000000164e-05,6.999999999999999387e-05,9.000000000000000567e-05,-1.240000000000000000e-03,-1.000000000000000048e-04,1.399999999999999877e-04,-1.000000000000000082e-05,6.000000000000000000e+00,2.300000000000000000e+01
6.165600000000000000e+04,-1.000000000000000082e-05,-2.000000000000000164e-05,6.999999999999999387e-05,9.000000000000000567e-05,-1.240000000000000000e-03,-1.000000000000000048e-04,1.399999999999999877e-04,-1.000000000000000082e-05,6.000000000000000000e+00,2.300000000000000000e+01
6.165700000000000000e+04,-1.000000000000000082e-05,-2.000000000000000164e-05,6.999999999999999387e-05,9.000000000000000567e-05,-1.240000000000000000e-03,-1.000000000000000048e-04,1.399999999999999877e-04,-1.000000000000000082e-05,6.000000000000000000e+00,2.300000000000000000e+01
6.165800000000000000e+04,-1.000000000000000082e-05,-2.000000000000000164e-05,6.999999999999999387e-05,9.000000000000000567e-05,-1.240000000000000000e-03,-1.000000000000000048e-04,1.399999999999999877e-04,-1.000000000000000082e-05,6.000000000000000000e+00,2.300000000000000000e+01
6.165900000000000000e+04,-1.000000000000000082e-05,-2.000000000000000164e-05,6.999999999999999387e-05,9.000000000000000567e-05,-1.240000000000000000e-03,-1.000000000000000048e-04,1.399999999999999877e-04,-1.000000000000000082e-05,6.000000000000000000e+00,2.300000000000000000e+01
6.166000000000000000e+04,-1.000000000000000082e-05,-2.000000000000000164e-05,6.999999999999999387e-05,9.000000000000000567e-05,-1.240000000000000000e-03,-1.000000000000000048e-04,1.399999999999999877e-04,-1.000000000000000082e-05,6.000000000000000000e+00,2.300000000000000000e+01
6.166100000000000000e+04,-1.000000000000000082e-05,-2.000000000000000164e-05,6.999999999999999387e-05,9.000000000000000567e-05,-1.240000000000000000e-03,-1.000000000000000048e-04,1.399999999999999877e-04,-1.000000000000000082e-05,6.000000000000000000e+00,2.300000000000000000e+01
6.166200000000000000e+04,-1.000000000000000082e-05,-2.000000000000000164e-05,6.999999999999999387e-05,9.000000000000000567e-05,-1.240000000000000000e-03,-1.000000000000000048e-04,1.399999999999999877e-04,-1.000000000000000082e-05,6.000000000000000000e+00,2.300000000000000000e+01
6.166300000000000000e+04,-1.000000000000000082e-05,-2.000000000000000164e-05,6.999999999999999387e-05,9.000000000000000567e-05,-1.240000000000000000e-03,-1.000000000000000048e-04,1.399999999999999877e-04,-1.000000000000000082e-05,6.000000000000000000e+00,2.300000000000000000e+01
6.166400000000000000e+04,-1.000000000000000082e-05,-2.000000000000000164e-05,6.999999999999999387e-05,9.000000000000000567e-05,-1.240000000000000000e-03,-1.000000000000000048e-04,1.399999999999999877e-04,-1.000000000000000082e-05,6.000000000000000000e+00,2.300000000000000000e+01
6.166500000000000000e+04,-1.000000000000000082e-05,-2.000000000000000164e-05,6.999999999999999387e-05,9.000000000000000567e-05,-1.240000000000000000e-03,-1.000000000000000048e-04,1.399999999999999877e-04,-1.000000000000000082e-05,6.000000000000000000e+00,2.300000000000000000e+01
6.166600000000000000e+04,-1.000000000000000082e-05,-2.000000000000000164e-05,6.999999999999999387e-05,9.000000000000000567e-05,-1.240000000000000000e-03,-1.000000000000000048e-04,1.399999999999999877e-04,-1.000000000000000082e-05,6.000000000000000000e+00,2.300000000000000000e+01
6.166700000000000000e+04,5.000000000000000240e-05,2.000000000000000164e-05,1.000000000000000082e-05,2.000000000000000096e-04,5.000000000000000240e-05,4.000000000000000192e-04,1.699999999999999851e-04,1.000000000000000082e-05,6.000000000000000000e+00,2.300000000000000000e+01
6.166800000000000000e+04,-2.999999999999999737e-05,-2.999999999999999737e-05,-5.999999999999999474e-05,-3.499999999999999964e-04,-1.100000000000000066e-03,-2.100000000000000087e-04,-5.000000000000000240e-05,5.000000000000000240e-05,6.000000000000000000e+00,2.300000000000000000e+01
6.166900000000000000e+04,-2.999999999999999737e-05,-2.999999999999999737e-05,-5.999999999999999474e-05,-3.499999999999999964e-04,-1.100000000000000066e-03,-2.100000000000000087e-04,-5.000000000000000240e-05,5.000000000000000240e-05,6.000000000000000000e+00,2.300000000000000000e+01
6.167000000000000000e+04,-2.999999999999999737e-05,-2.999999999999999737e-05,-5.999999999999999474e-05,-3.499999999999999964e-04,-1.100000000000000066e-03,-2.100000000000000087e-04,-5.000000000000000240e-05,5.000000000000000240e-05,6.000000000000000000e+00,2.300000000000000000e+01
6.167100000000000000e+04,-2.999999999999999737e-05,-2.999999999999999737e-05,-5.999999999999999474e-05,-3.499999999999999964e-04,-1.100000000000000066e-03,-2.100000000000000087e-04,-5.000000000000000240e-05,5.000000000000000240e-05,6.000000000000000000e+00,2.300000000000000000e+01
6.167200000000000000e+04,-2.999999999999999737e-05,-2.999999999999999737e-05,-5.999999999999999474e-05,-3.499999999999999964e-04,-1.100000000000000066e-03,-2.100000000000000087e-04,-5.000000000000000240e-05,5.000000000000000240e-05,6.000000000000000000e+00,2.300000000000000000e+01
6.167300000000000000e+04,4.000000000000000327e-05,4.000000000000000327e-05,2.100000000000000087e-04,-2.799999999999999755e-04,-5.599999999999999509e-04,3.099999999999999999e-04,2.299999999999999799e-04,2.000000000000000096e-04,6.000000000000000000e+00,2.300000000000000000e+01
6.167400000000000000e+04,4.000000000000000327e-05,4.000000000000000327e-05,2.100000000000000087e-04,-2.799999999999999755e-04,-5.599999999999999509e-04,3.099999999999999999e-04,2.299999999999999799e-04,2.000000000000000096e-04,6.000000000000000000e+00,2.300000000000000000e+01
6.167500000000000000e+04,4.000000000000000327e-05,4.000000000000000327e-05,2.100000000000000087e-04,-2.799999999999999755e-04,-5.599999999999999509e-04,3.099999999999999999e-04,2.299999999999999799e-04,2.000000000000000096e-04,6.000000000000000000e+00,2.300000000000000000e+01
6.167600000000000000e+04,4.000000000000000327e-05,4.000000000000000327e-05,2.100000000000000087e-04,-2.799999999999999755e-04,-5.599999999999999509e-04,3.099999999999999999e-04,2.299999999999999799e-04,2.000000000000000096e-04,6.000000000000000000e+00,2.300000000000000000e+01
6.167700000000000000e+04,4.000000000000000327e-05,4.000000000000000327e-05,2.100000000000000087e-04,-2.799999999999999755e-04,-5.599999999999999509e-04,3.099999999999999999e-04,2.299999999999999799e-04,2.000000000000000096e-04,6.000000000000000000e+00,2.300000000000000000e+01
6.167800000000000000e+04,4.000000000000000327e-05,4.000000000000000327e-05,2.100000000000000087e-04,-2.799999999999999755e-04,-5.599999999999999509e-04,3.099999999999999999e-04,2.299999999999999799e-04,2.000000000000000096e-04,6.000000000000000000e+00,2.300000000000000000e+01
6.167900000000000000e+04,4.000000000000000327e-05,4.000000000000000327e-05,2.100000000000000087e-04,-2.799999999999999755e-04,-5.599999999999999509e-04,3.099999999999999999e-04,2.299999999999999799e-04,2.000000000000000096e-04,6.000000000000000000e+00,2.300000000000000000e+01
6.168000000000000000e+04,4.000000000000000327e-05,4.000000000000000327e-05,2.100000000000000087e-04,-2.799999999999999755e-04,-5.599999999999999509e-04,3.099999999999999999e-04,2.299999999999999799e-04,2.000000000000000096e-04,6.000000000000000000e+00,2.300000000000000000e+01
6.168100000000000000e+04,4.000000000000000327e-05,4.000000000000000327e-05,2.100000000000000087e-04,-2.799999999999999755e-04,-5.599999999999999509e-04,3.099999999999999999e-04,2.299999999999999799e-04,2.000000000000000096e-04,6.000000000000000000e+00,2.300000000000000000e+01
6.168200000000000000e+04,4.000000000000000327e-05,4.000000000000000327e-05,2.100000000000000087e-04,-2.799999999999999755e-04,-5.599999999999999509e-04,3.099999999999999999e-04,2.299999999999999799e-04,2.000000000000000096e-04,6.000000000000000000e+00,2.300000000000000000e+01
6.168300000000000000e+04,4.000000000000000327e-05,4.000000000000000327e-05,2.100000000000000087e-04,-2.799999999999999755e-04,-5.599999999999999509e-04,3.099999999999999999e-04,2.299999999999999799e-04,2.000000000000000096e-04,6.000000000000000000e+00,2.300000000000000000e+01
6.168400000000000000e+04,4.000000000000000327e-05,4.000000000000000327e-05,2.100000000000000087e-04,-2.799999999999999755e-04,-5.599999999999999509e-04,3.099999999999999999e-04,2.299999999999999799e-04,2.000000000000000096e-04,6.000000000000000000e+00,2.300000000000000000e+01
6.168600000000000000e+04,4.000000000000000327e-05,4.000000000000000327e-05,2.100000000000000087e-04,-2.799999999999999755e-04,-5.599999999999999509e-04,3.099999999999999999e-04,2.299999999999999799e-04,2.000000000000000096e-04,6.000000000000000000e+00,2.300000000000000000e+01
6.168700000000000000e+04,4.000000000000000327e-05,4.000000000000000327e-05,2.100000000000000087e-04,-2.799999999999999755e-04,-5.599999999999999509e-04,3.099999999999999999e-04,2.299999999999999799e-04,2.000000000000000096e-04,6.000000000000000000e+00,2.300000000000000000e+01
6.168800000000000000e+04,4.000000000000000327e-05,4.000000000000000327e-05,2.100000000000000087e-04,-2.799999999999999755e-04,-5.599999999999999509e-04,3.099999999999999999e-04,2.299999999999999799e-04,2.000000000000000096e-04,6.000000000000000000e+00,2.300000000000000000e+01
6.168900000000000000e+04,0.000000000000000000e+00,5.000000000000000240e-05,1.699999999999999851e-04,8.400000000000000348e-04,-1.499999999999999869e-04,2.500000000000000052e-04,2.600000000000000314e-04,4.000000000000000327e-05,6.000000000000000000e+00,2.300000000000000000e+01
6.169000000000000000e+04,0.000000000000000000e+00,5.000000000000000240e-05,1.699999999999999851e-04,8.400000000000000348e-04,-1.499999999999999869e-04,2.500000000000000052e-04,2.600000000000000314e-04,4.000000000000000327e-05,6.000000000000000000e+00,2.300000000000000000e+01
6.169100000000000000e+04,-2.999999999999999737e-05,-2.000000000000000164e-05,1.000000000000000082e-05,1.100000000000000039e-04,1.199999999999999895e-04,-2.200000000000000078e-04,-1.199999999999999895e-04,-1.800000000000000113e-04,6.000000000000000000e+00,2.300000000000000000e+01
6.169200000000000000e+04,-2.999999999999999737e-05,-2.000000000000000164e-05,1.000000000000000082e-05,1.100000000000000039e-04,1.199999999999999895e-04,-2.200000000000000078e-04,-1.199999999999999895e-04,-1.800000000000000113e-04,6.000000000000000000e+00,2.300000000000000000e+01
6.169300000000000000e+04,-2.999999999999999737e-05,-2.000000000000000164e-05,1.000000000000000082e-05,1.100000000000000039e-04,1.199999999999999895e-04,-2.200000000000000078e-04,-1.199999999999999895e-04,-1.800000000000000113e-04,6.000000000000000000e+00,2.300000000000000000e+01
6.169400000000000000e+04,-2.999999999999999737e-05,-2.000000000000000164e-05,1.000000000000000082e-05,1.100000000000000039e-04,1.199999999999999895e-04,-2.200000000000000078e-04,-1.199999999999999895e-04,-1.800000000000000113e-04,6.000000000000000000e+00,2.300000000000000000e+01
6.169500000000000000e+04,-2.999999999999999737e-05,-2.000000000000000164e-05,1.000000000000000082e-05,1.100000000000000039e-04,1.199999999999999895e-04,-2.200000000000000078e-04,-1.199999999999999895e-04,-1.800000000000000113e-04,6.000000000000000000e+00,2.300000000000000000e+01
6.169600000000000000e+04,-2.999999999999999737e-05,-2.000000000000000164e-05,1.000000000000000082e-05,1.100000000000000039e-04,1.199999999999999895e-04,-2.200000000000000078e-04,-1.199999999999999895e-04,-1.800000000000000113e-04,6.000000000000000000e+00,2.300000000000000000e+01
6.169700000000000000e+04,-2.999999999999999737e-05,-2.000000000000000164e-05,1.000000000000000082e-05,1.100000000000000039e-04,1.199999999999999895e-04,-2.200000000000000078e-04,-1.199999999999999895e-04,-1.800000000000000113e-04,6.000000000000000000e+00,2.300000000000000000e+01
6.169800000000000000e+04,-2.999999999999999737e-05,-2.000000000000000164e-05,1.000000000000000082e-05,1.100000000000000039e-04,1.199999999999999895e-04,-2.200000000000000078e-04,-1.199999999999999895e-04,-1.800000000000000113e-04,6.000000000000000000e+00,2.300000000000000000e+01
6.169900000000000000e+04,-2.999999999999999737e-05,-2.000000000000000164e-05,1.000000000000000082e-05,1.100000000000000039e-04,1.199999999999999895e-04,-2.200000000000000078e-04,-1.199999999999999895e-04,-1.800000000000000113e-04,6.000000000000000000e+00,2.300000000000000000e+01
6.170000000000000000e+04,-2.999999999999999737e-05,-2.000000000000000164e-05,1.000000000000000082e-05,1.100000000000000039e-04,1.199999999999999895e-04,-2.200000000000000078e-04,-1.199999999999999895e-04,-1.800000000000000113e-04,6.000000000000000000e+00,2.300000000000000000e+01
6.170100000000000000e+04,-2.999999999999999737e-05,-2.000000000000000164e-05,1.000000000000000082e-05,1.100000000000000039e-04,1.199999999999999895e-04,-2.200000000000000078e-04,-1.199999999999999895e-04,-1.800000000000000113e-04,6.000000000000000000e+00,2.300000000000000000e+01
6.170200000000000000e+04,-2.999999999999999737e-05,-2.000000000000000164e-05,1.000000000000000082e-05,1.100000000000000039e-04,1.199999999999999895e-04,-2.200000000000000078e-04,-1.199999999999999895e-04,-1.800000000000000113e-04,6.000000000000000000e+00,2.300000000000000000e+01
6.170300000000000000e+04,-2.999999999999999737e-05,-2.000000000000000164e-05,1.000000000000000082e-05,1.100000000000000039e-04,1.199999999999999895e-04,-2.200000000000000078e-04,-1.199999999999999895e-04,-1.800000000000000113e-04,6.000000000000000000e+00,2.300000000000000000e+01
6.170400000000000000e+04,-2.999999999999999737e-05,-2.000000000000000164e-05,1.000000000000000082e-05,1.100000000000000039e-04,1.199999999999999895e-04,-2.200000000000000078e-04,-1.199999999999999895e-04,-1.800000000000000113e-04,6.000000000000000000e+00,2.300000000000000000e+01
6.170500000000000000e+04,-2.999999999999999737e-05,-2.000000000000000164e-05,1.000000000000000082e-05,1.100000000000000039e-04,1.199999999999999895e-04,-2.200000000000000078e-04,-1.199999999999999895e-04,-1.800000000000000113e-04,6.000000000000000000e+00,2.300000000000000000e+01
6.170600000000000000e+04,-2.999999999999999737e-05,-2.000000000000000164e-05,1.000000000000000082e-05,1.100000000000000039e-04,1.199999999999999895e-04,-2.200000000000000078e-04,-1.199999999999999895e-04,-1.800000000000000113e-04,6.000000000000000000e+00,2.300000000000000000e+01
6.170700000000000000e+04,-2.999999999999999737e-05,-2.000000000000000164e-05,1.000000000000000082e-05,1.100000000000000039e-04,1.199999999999999895e-04,-2.200000000000000078e-04,-1.199999999999999895e-04,-1.800000000000000113e-04,6.000000000000000000e+00,2.300000000000000000e+01
6.170800000000000000e+04,-2.999999999999999737e-05,-2.000000000000000164e-05,1.000000000000000082e-05,1.100000000000000039e-04,1.199999999999999895e-04,-2.200000000000000078e-04,-1.199999999999999895e-04,-1.800000000000000113e-04,6.000000000000000000e+00,2.300000000000000000e+01
6.170900000000000000e+04,-2.999999999999999737e-05,-2.000000000000000164e-05,1.000000000000000082e-05,1.100000000000000039e-04,1.199999999999999895e-04,-2.200000000000000078e-04,-1.199999999999999895e-04,-1.800000000000000113e-04,6.000000000000000000e+00,2.300000000000000000e+01
6.171000000000000000e+04,-2.999999999999999737e-05,-2.000000000000000164e-05,1.000000000000000082e-05,1.100000000000000039e-04,1.199999999999999895e-04,-2.200000000000000078e-04,-1.199999999999999895e-04,-1.800000000000000113e-04,6.000000000000000000e+00,2.300000000000000000e+01
6.171100000000000000e+04,-2.999999999999999737e-05,-2.000000000000000164e-05,1.000000000000000082e-05,1.100000000000000039e-04,1.199999999999999895e-04,-2.200000000000000078e-04,-1.199999999999999895e-04,-1.800000000000000113e-04,6.000000000000000000e+00,2.300000000000000000e+01
6.171200000000000000e+04,-2.000000000000000164e-05,-5.000000000000000240e-05,-6.999999999999999387e-05,-8.699999999999998967e-04,-1.000000000000000021e-03,0.000000000000000000e+00,-1.000000000000000082e-05,4.000000000000000327e-05,6.000000000000000000e+00,2.300000000000000000e+01
6.171300000000000000e+04,-2.000000000000000164e-05,-5.000000000000000240e-05,-6.999999999999999387e-05,-8.699999999999998967e-04,-1.000000000000000021e-03,0.000000000000000000e+00,-1.000000000000000082e-05,4.000000000000000327e-05,6.000000000000000000e+00,2.300000000000000000e+01
6.171400000000000000e+04,-2.000000000000000164e-05,-5.000000000000000240e-05,-6.999999999999999387e-05,-8.699999999999998967e-04,-1.000000000000000021e-03,0.000000000000000000e+00,-1.000000000000000082e-05,4.000000000000000327e-05,6.000000000000000000e+00,2.300000000000000000e+01
6.171500000000000000e+04,-2.000000000000000164e-05,-5.000000000000000240e-05,-6.999999999999999387e-05,-8.699999999999998967e-04,-1.000000000000000021e-03,0.000000000000000000e+00,-1.000000000000000082e-05,4.000000000000000327e-05,6.000000000000000000e+00,2.300000000000000000e+01
6.171600000000000000e+04,-2.000000000000000164e-05,-5.000000000000000240e-05,-6.999999999999999387e-05,-8.699999999999998967e-04,-1.000000000000000021e-03,0.000000000000000000e+00,-1.000000000000000082e-05,4.000000000000000327e-05,6.000000000000000000e+00,2.300000000000000000e+01
6.171700000000000000e+04,-2.000000000000000164e-05,-5.000000000000000240e-05,-6.999999999999999387e-05,-8.699999999999998967e-04,-1.000000000000000021e-03,0.000000000000000000e+00,-1.000000000000000082e-05,4.000000000000000327e-05,6.000000000000000000e+00,2.300000000000000000e+01
6.171800000000000000e+04,-2.999999999999999737e-05,-2.999999999999999737e-05,-5.000000000000000240e-05,6.999999999999999929e-04,2.900000000000000017e-04,-6.999999999999999387e-05,1.100000000000000039e-04,2.000000000000000164e-05,6.000000000000000000e+00,2.300000000000000000e+01
6.171900000000000000e+04,-2.999999999999999737e-05,-2.999999999999999737e-05,-5.000000000000000240e-05,6.999999999999999929e-04,2.900000000000000017e-04,-6.999999999999999387e-05,1.100000000000000039e-04,2.000000000000000164e-05,6.000000000000000000e+00,2.300000000000000000e+01
6.172000000000000000e+04,-2.999999999999999737e-05,-2.999999999999999737e-05,-5.000000000000000240e-05,6.999999999999999929e-04,2.900000000000000017e-04,-6.999999999999999387e-05,1.100000000000000039e-04,2.000000000000000164e-05,6.000000000000000000e+00,2.300000000000000000e+01
6.172100000000000000e+04,-2.999999999999999737e-05,-2.999999999999999737e-05,-5.000000000000000240e-05,6.999999999999999929e-04,2.900000000000000017e-04,-6.999999999999999387e-05,1.100000000000000039e-04,2.000000000000000164e-05,6.000000000000000000e+00,2.300000000000000000e+01
6.172200000000000000e+04,-2.999999999999999737e-05,-2.999999999999999737e-05,-5.000000000000000240e-05,6.999999999999999929e-04,2.900000000000000017e-04,-6.999999999999999387e-05,1.100000000000000039e-04,2.000000000000000164e-05,6.000000000000000000e+00,2.300000000000000000e+01
6.172300000000000000e+04,-2.999999999999999737e-05,-2.999999999999999737e-05,-5.000000000000000240e-05,6.999999999999999929e-04,2.900000000000000017e-04,-6.999999999999999387e-05,1.100000000000000039e-04,2.000000000000000164e-05,6.000000000000000000e+00,2.300000000000000000e+01
6.172400000000000000e+04,-2.999999999999999737e-05,-2.999999999999999737e-05,-5.000000000000000240e-05,6.999999999999999929e-04,2.900000000000000017e-04,-6.999999999999999387e-05,1.100000000000000039e-04,2.000000000000000164e-05,6.000000000000000000e+00,2.300000000000000000e+01
6.172500000000000000e+04,-2.999999999999999737e-05,-2.999999999999999737e-05,-5.000000000000000240e-05,6.999999999999999929e-04,2.900000000000000017e-04,-6.999999999999999387e-05,1.100000000000000039e-04,2.000000000000000164e-05,6.000000000000000000e+00,2.300000000000000000e+01
6.172600000000000000e+04,-2.999999999999999737e-05,-4.000000000000000327e-05,-1.000000000000000082e-05,7.299999999999999632e-04,-4.700000000000000401e-04,-2.999999999999999737e-05,-1.699999999999999851e-04,-4.000000000000000327e-05,6.000000000000000000e+00,2.300000000000000000e+01
6.172700000000000000e+04,-2.999999999999999737e-05,-4.000000000000000327e-05,-1.000000000000000082e-05,7.299999999999999632e-04,-4.700000000000000401e-04,-2.999999999999999737e-05,-1.699999999999999851e-04,-4.000000000000000327e-05,6.000000000000000000e+00,2.300000000000000000e+01
6.172800000000000000e+04,-2.999999999999999737e-05,-4.000000000000000327e-05,-1.000000000000000082e-05,7.299999999999999632e-04,-4.700000000000000401e-04,-2.999999999999999737e-05,-1.699999999999999851e-04,-4.000000000000000327e-05,6.000000000000000000e+00,2.300000000000000000e+01
6.172900000000000000e+04,-2.999999999999999737e-05,-4.000000000000000327e-05,-1.000000000000000082e-05,7.299999999999999632e-04,-4.700000000000000401e-04,-2.999999999999999737e-05,-1.699999999999999851e-04,-4.000000000000000327e-05,6.000000000000000000e+00,2.300000000000000000e+01
6.173000000000000000e+04,-2.999999999999999737e-05,-4.000000000000000327e-05,-1.000000000000000082e-05,7.299999999999999632e-04,-4.700000000000000401e-04,-2.999999999999999737e-05,-1.699999999999999851e-04,-4.000000000000000327e-05,6.000000000000000000e+00,2.300000000000000000e+01
6.173100000000000000e+04,-2.999999999999999737e-05,-4.000000000000000327e-05,-1.000000000000000082e-05,7.299999999999999632e-04,-4.700000000000000401e-04,-2.999999999999999737e-05,-1.699999999999999851e-04,-4.000000000000000327e-05,6.000000000000000000e+00,2.300000000000000000e+01
6.173200000000000000e+04,-2.999999999999999737e-05,-4.000000000000000327e-05,-1.000000000000000082e-05,7.299999999999999632e-04,-4.700000000000000401e-04,-2.999999999999999737e-05,-1.699999999999999851e-04,-4.000000000000000327e-05,6.000000000000000000e+00,2.300000000000000000e+01
6.173300000000000000e+04,-4.000000000000000327e-05,-2.000000000000000164e-05,9.000000000000000567e-05,7.299999999999999632e-04,-4.099999999999999912e-04,-2.600000000000000314e-04,5.999999999999999474e-05,2.000000000000000164e-05,6.000000000000000000e+00,2.300000000000000000e+01
6.173400000000000000e+04,-4.000000000000000327e-05,-2.000000000000000164e-05,9.000000000000000567e-05,7.299999999999999632e-04,-4.099999999999999912e-04,-2.600000000000000314e-04,5.999999999999999474e-05,2.000000000000000164e-05,6.000000000000000000e+00,2.300000000000000000e+01
6.173500000000000000e+04,-4.000000000000000327e-05,-2.000000000000000164e-05,9.000000000000000567e-05,7.299999999999999632e-04,-4.099999999999999912e-04,-2.600000000000000314e-04,5.999999999999999474e-05,2.000000000000000164e-05,6.000000000000000000e+00,2.300000000000000000e+01
6.173600000000000000e+04,-4.000000000000000327e-05,-2.000000000000000164e-05,9.000000000000000567e-05,7.299999999999999632e-04,-4.099999999999999912e-04,-2.600000000000000314e-04,5.999999999999999474e-05,2.000000000000000164e-05,6.000000000000000000e+00,2.300000000000000000e+01
6.173800000000000000e+04,-4.000000000000000327e-05,-2.000000000000000164e-05,9.000000000000000567e-05,7.299999999999999632e-04,-4.099999999999999912e-04,-2.600000000000000314e-04,5.999999999999999474e-05,2.000000000000000164e-05,6.000000000000000000e+00,2.300000000000000000e+01
6.173900000000000000e+04,-4.000000000000000327e-05,-2.000000000000000164e-05,9.000000000000000567e-05,7.299999999999999632e-04,-4.099999999999999912e-04,-2.600000000000000314e-04,5.999999999999999474e-05,2.000000000000000164e-05,6.000000000000000000e+00,2.300000000000000000e+01
6.174000000000000000e+04,-4.000000000000000327e-05,-2.000000000000000164e-05,9.000000000000000567e-05,7.299999999999999632e-04,-4.099999999999999912e-04,-2.600000000000000314e-04,5.999999999999999474e-05,2.000000000000000164e-05,6.000000000000000000e+00,2.300000000000000000e+01
6.174100000000000000e+04,-4.000000000000000327e-05,-2.000000000000000164e-05,9.000000000000000567e-05,7.299999999999999632e-04,-4.099999999999999912e-04,-2.600000000000000314e-04,5.999999999999999474e-05,2.000000000000000164e-05,6.000000000000000000e+00,2.300000000000000000e+01
6.174200000000000000e+04,-4.000000000000000327e-05,-2.000000000000000164e-05,9.000000000000000567e-05,7.299999999999999632e-04,-4.099999999999999912e-04,-2.600000000000000314e-04,5.999999999999999474e-05,2.000000000000000164e-05,6.000000000000000000e+00,2.300000000000000000e+01
6.174300000000000000e+04,-4.000000000000000327e-05,-2.000000000000000164e-05,9.000000000000000567e-05,7.299999999999999632e-04,-4.099999999999999912e-04,-2.600000000000000314e-04,5.999999999999999474e-05,2.000000000000000164e-05,6.000000000000000000e+00,2.300000000000000000e+01
6.174400000000000000e+04,-4.000000000000000327e-05,-2.000000000000000164e-05,9.000000000000000567e-05,7.299999999999999632e-04,-4.099999999999999912e-04,-2.600000000000000314e-04,5.999999999999999474e-05,2.000000000000000164e-05,6.000000000000000000e+00,2.300000000000000000e+01
6.174500000000000000e+04,-4.000000000000000327e-05,-2.000000000000000164e-05,9.000000000000000567e-05,7.299999999999999632e-04,-4.099999999999999912e-04,-2.600000000000000314e-04,5.999999999999999474e-05,2.000000000000000164e-05,6.000000000000000000e+00,2.300000000000000000e+01
6.174600000000000000e+04,-4.000000000000000327e-05,-2.000000000000000164e-05,9.000000000000000567e-05,7.299999999999999632e-04,-4.099999999999999912e-04,-2.600000000000000314e-04,5.999999999999999474e-05,2.000000000000000164e-05,6.000000000000000000e+00,2.300000000000000000e+01
6.174700000000000000e+04,-4.000000000000000327e-05,-2.000000000000000164e-05,9.000000000000000567e-05,7.299999999999999632e-04,-4.099999999999999912e-04,-2.600000000000000314e-04,5.999999999999999474e-05,2.000000000000000164e-05,6.000000000000000000e+00,2.300000000000000000e+01
6.174800000000000000e+04,-4.000000000000000327e-05,-2.000000000000000164e-05,9.000000000000000567e-05,7.299999999999999632e-04,-4.099999999999999912e-04,-2.600000000000000314e-04,5.999999999999999474e-05,2.000000000000000164e-05,6.000000000000000000e+00,2.300000000000000000e+01
6.174900000000000000e+04,2.000000000000000164e-05,1.000000000000000082e-05,-1.199999999999999895e-04,-2.600000000000000314e-04,2.100000000000000087e-04,2.000000000000000164e-05,9.000000000000000567e-05,5.000000000000000240e-05,6.000000000000000000e+00,2.300000000000000000e+01
6.175000000000000000e+04,-2.000000000000000164e-05,-5.000000000000000240e-05,-1.499999999999999869e-04,-3.799999999999999667e-04,8.000000000000000654e-05,-2.399999999999999790e-04,-1.800000000000000113e-04,-5.000000000000000240e-05,6.000000000000000000e+00,2.300000000000000000e+01
6.175100000000000000e+04,-5.999999999999999474e-05,-2.999999999999999737e-05,-1.100000000000000039e-04,-2.900000000000000017e-04,4.799999999999999580e-04,1.100000000000000039e-04,2.799999999999999755e-04,5.000000000000000240e-05,6.000000000000000000e+00,2.300000000000000000e+01
