2.184700000000000000e+04,6.999999999999999387e-05,1.199999999999999895e-04,3.699999999999999947e-04,0.000000000000000000e+00,3.099999999999999999e-04,-1.100000000000000039e-04,-1.000000000000000082e-05,2.999999999999999737e-05,5.000000000000000000e+00,8.000000000000000000e+00
2.184800000000000000e+04,9.000000000000000567e-05,5.000000000000000240e-05,2.700000000000000035e-04,-6.499999999999999702e-04,-4.499999999999999877e-04,2.500000000000000052e-04,-2.000000000000000164e-05,6.999999999999999387e-05,5.000000000000000000e+00,8.000000000000000000e+00
2.184900000000000000e+04,6.999999999999999387e-05,5.999999999999999474e-05,2.999999999999999737e-05,1.000000000000000082e-05,0.000000000000000000e+00,-2.999999999999999737e-05,2.299999999999999799e-04,2.999999999999999737e-05,5.000000000000000000e+00,8.000000000000000000e+00
2.185000000000000000e+04,6.999999999999999387e-05,2.799999999999999755e-04,8.599999999999999789e-04,1.800000000000000113e-04,-6.400000000000000524e-04,-4.200000000000000174e-04,1.800000000000000113e-04,4.000000000000000327e-05,5.000000000000000000e+00,8.000000000000000000e+00
2.185100000000000000e+04,6.999999999999999387e-05,2.799999999999999755e-04,8.599999999999999789e-04,1.800000000000000113e-04,-6.400000000000000524e-04,-4.200000000000000174e-04,1.800000000000000113e-04,4.000000000000000327e-05,5.000000000000000000e+00,8.000000000000000000e+00
2.185200000000000000e+04,6.999999999999999387e-05,2.799999999999999755e-04,8.599999999999999789e-04,1.800000000000000113e-04,-6.400000000000000524e-04,-4.200000000000000174e-04,1.800000000000000113e-04,4.000000000000000327e-05,5.000000000000000000e+00,8.000000000000000000e+00
2.185300000000000000e+04,6.999999999999999387e-05,2.799999999999999755e-04,8.599999999999999789e-04,1.800000000000000113e-04,-6.400000000000000524e-04,-4.200000000000000174e-04,1.800000000000000113e-04,4.000000000000000327e-05,5.000000000000000000e+00,8.000000000000000000e+00
2.185400000000000000e+04,6.999999999999999387e-05,2.799999999999999755e-04,8.599999999999999789e-04,1.800000000000000113e-04,-6.400000000000000524e-04,-4.200000000000000174e-04,1.800000000000000113e-04,4.000000000000000327e-05,5.000000000000000000e+00,8.000000000000000000e+00
2.185500000000000000e+04,6.999999999999999387e-05,2.799999999999999755e-04,8.599999999999999789e-04,1.800000000000000113e-04,-6.400000000000000524e-04,-4.200000000000000174e-04,1.800000000000000113e-04,4.000000000000000327e-05,5.000000000000000000e+00,8.000000000000000000e+00
2.185600000000000000e+04,6.999999999999999387e-05,2.799999999999999755e-04,8.599999999999999789e-04,1.800000000000000113e-04,-6.400000000000000524e-04,-4.200000000000000174e-04,1.800000000000000113e-04,4.000000000000000327e-05,5.000000000000000000e+00,8.000000000000000000e+00
2.185700000000000000e+04,6.999999999999999387e-05,2.799999999999999755e-04,8.599999999999999789e-04,1.800000000000000113e-04,-6.400000000000000524e-04,-4.200000000000000174e-04,1.800000000000000113e-04,4.000000000000000327e-05,5.000000000000000000e+00,8.000000000000000000e+00
2.185800000000000000e+04,6.999999999999999387e-05,2.799999999999999755e-04,8.599999999999999789e-04,1.800000000000000113e-04,-6.400000000000000524e-04,-4.200000000000000174e-04,1.800000000000000113e-04,4.000000000000000327e-05,5.000000000000000000e+00,8.000000000000000000e+00
2.185900000000000000e+04,6.999999999999999387e-05,2.799999999999999755e-04,8.599999999999999789e-04,1.800000000000000113e-04,-6.400000000000000524e-04,-4.200000000000000174e-04,1.800000000000000113e-04,4.000000000000000327e-05,5.000000000000000000e+00,8.000000000000000000e+00
2.186000000000000000e+04,6.999999999999999387e-05,2.799999999999999755e-04,8.599999999999999789e-04,1.800000000000000113e-04,-6.400000000000000524e-04,-4.200000000000000174e-04,1.800000000000000113e-04,4.000000000000000327e-05,5.000000000000000000e+00,8.000000000000000000e+00
2.186100000000000000e+04,6.999999999999999387e-05,2.799999999999999755e-04,8.599999999999999789e-04,1.800000000000000113e-04,-6.400000000000000524e-04,-4.200000000000000174e-04,1.800000000000000113e-04,4.000000000000000327e-05,5.000000000000000000e+00,8.000000000000000000e+00
2.186200000000000000e+04,-1.600000000000000131e-04,-2.799999999999999755e-04,-3.399999999999999702e-04,1.000000000000000048e-04,2.700000000000000035e-04,-5.999999999999999474e-05,-2.999999999999999737e-05,-5.000000000000000240e-05,5.000000000000000000e+00,8.000000000000000000e+00
2.186300000000000000e+04,-1.100000000000000039e-04,-1.600000000000000131e-04,-1.000000000000000048e-04,-3.600000000000000227e-04,-2.399999999999999790e-04,-8.000000000000000654e-05,-1.499999999999999869e-04,-9.000000000000000567e-05,5.000000000000000000e+00,8.000000000000000000e+00
2.186400000000000000e+04,-1.100000000000000039e-04,-1.600000000000000131e-04,-1.000000000000000048e-04,-3.600000000000000227e-04,-2.399999999999999790e-04,-8.000000000000000654e-05,-1.499999999999999869e-04,-9.000000000000000567e-05,5.000000000000000000e+00,8.000000000000000000e+00
2.186500000000000000e+04,-1.100000000000000039e-04,-1.600000000000000131e-04,-1.000000000000000048e-04,-3.600000000000000227e-04,-2.399999999999999790e-04,-8.000000000000000654e-05,-1.499999999999999869e-04,-9.000000000000000567e-05,5.000000000000000000e+00,8.000000000000000000e+00
2.186600000000000000e+04,-1.100000000000000039e-04,-1.600000000000000131e-04,-1.000000000000000048e-04,-3.600000000000000227e-04,-2.399999999999999790e-04,-8.000000000000000654e-05,-1.499999999999999869e-04,-9.000000000000000567e-05,5.000000000000000000e+00,8.000000000000000000e+00
2.186700000000000000e+04,-1.100000000000000039e-04,-1.600000000000000131e-04,-1.000000000000000048e-04,-3.600000000000000227e-04,-2.399999999999999790e-04,-8.000000000000000654e-05,-1.499999999999999869e-04,-9.000000000000000567e-05,5.000000000000000000e+00,8.000000000000000000e+00
2.186800000000000000e+04,-1.100000000000000039e-04,-1.600000000000000131e-04,-1.000000000000000048e-04,-3.600000000000000227e-04,-2.399999999999999790e-04,-8.000000000000000654e-05,-1.499999999999999869e-04,-9.000000000000000567e-05,5.000000000000000000e+00,8.000000000000000000e+00
2.186900000000000000e+04,-1.100000000000000039e-04,-1.600000000000000131e-04,-1.000000000000000048e-04,-3.600000000000000227e-04,-2.399999999999999790e-04,-8.000000000000000654e-05,-1.499999999999999869e-04,-9.000000000000000567e-05,5.000000000000000000e+00,8.000000000000000000e+00
2.187000000000000000e+04,-2.000000000000000164e-05,-2.000000000000000164e-05,-2.000000000000000096e-04,-1.499999999999999869e-04,1.699999999999999851e-04,-1.100000000000000039e-04,-8.000000000000000654e-05,-2.000000000000000164e-05,5.000000000000000000e+00,8.000000000000000000e+00
2.187100000000000000e+04,1.000000000000000048e-04,4.700000000000000401e-04,9.199999999999999194e-04,8.900000000000000576e-04,4.200000000000000174e-04,2.900000000000000017e-04,-4.000000000000000327e-05,2.999999999999999737e-05,5.000000000000000000e+00,8.000000000000000000e+00
2.187200000000000000e+04,1.000000000000000048e-04,4.700000000000000401e-04,9.199999999999999194e-04,8.900000000000000576e-04,4.200000000000000174e-04,2.900000000000000017e-04,-4.000000000000000327e-05,2.999999999999999737e-05,5.000000000000000000e+00,8.000000000000000000e+00
2.187300000000000000e+04,1.000000000000000048e-04,4.700000000000000401e-04,9.199999999999999194e-04,8.900000000000000576e-04,4.200000000000000174e-04,2.900000000000000017e-04,-4.000000000000000327e-05,2.999999999999999737e-05,5.000000000000000000e+00,8.000000000000000000e+00
2.187400000000000000e+04,1.000000000000000048e-04,4.700000000000000401e-04,9.199999999999999194e-04,8.900000000000000576e-04,4.200000000000000174e-04,2.900000000000000017e-04,-4.000000000000000327e-05,2.999999999999999737e-05,5.000000000000000000e+00,8.000000000000000000e+00
2.187500000000000000e+04,1.000000000000000048e-04,4.700000000000000401e-04,9.199999999999999194e-04,8.900000000000000576e-04,4.200000000000000174e-04,2.900000000000000017e-04,-4.000000000000000327e-05,2.999999999999999737e-05,5.000000000000000000e+00,8.000000000000000000e+00
2.187600000000000000e+04,1.000000000000000048e-04,4.700000000000000401e-04,9.199999999999999194e-04,8.900000000000000576e-04,4.200000000000000174e-04,2.900000000000000017e-04,-4.000000000000000327e-05,2.999999999999999737e-05,5.000000000000000000e+00,8.000000000000000000e+00
2.187700000000000000e+04,1.000000000000000048e-04,4.700000000000000401e-04,9.199999999999999194e-04,8.900000000000000576e-04,4.200000000000000174e-04,2.900000000000000017e-04,-4.000000000000000327e-05,2.999999999999999737e-05,5.000000000000000000e+00,8.000000000000000000e+00
2.187800000000000000e+04,1.000000000000000048e-04,4.700000000000000401e-04,9.199999999999999194e-04,8.900000000000000576e-04,4.200000000000000174e-04,2.900000000000000017e-04,-4.000000000000000327e-05,2.999999999999999737e-05,5.000000000000000000e+00,8.000000000000000000e+00
2.187900000000000000e+04,1.000000000000000048e-04,4.700000000000000401e-04,9.199999999999999194e-04,8.900000000000000576e-04,4.200000000000000174e-04,2.900000000000000017e-04,-4.000000000000000327e-05,2.999999999999999737e-05,5.000000000000000000e+00,8.000000000000000000e+00
2.188000000000000000e+04,1.000000000000000048e-04,4.700000000000000401e-04,9.199999999999999194e-04,8.900000000000000576e-04,4.200000000000000174e-04,2.900000000000000017e-04,-4.000000000000000327e-05,2.999999999999999737e-05,5.000000000000000000e+00,8.000000000000000000e+00
2.188100000000000000e+04,1.000000000000000048e-04,4.700000000000000401e-04,9.199999999999999194e-04,8.900000000000000576e-04,4.200000000000000174e-04,2.900000000000000017e-04,-4.000000000000000327e-05,2.999999999999999737e-05,5.000000000000000000e+00,8.000000000000000000e+00
2.188200000000000000e+04,1.000000000000000048e-04,4.700000000000000401e-04,9.199999999999999194e-04,8.900000000000000576e-04,4.200000000000000174e-04,2.900000000000000017e-04,-4.000000000000000327e-05,2.999999999999999737e-05,5.000000000000000000e+00,8.000000000000000000e+00
2.188300000000000000e+04,1.000000000000000048e-04,4.700000000000000401e-04,9.199999999999999194e-04,8.900000000000000576e-04,4.200000000000000174e-04,2.900000000000000017e-04,-4.000000000000000327e-05,2.999999999999999737e-05,5.000000000000000000e+00,8.000000000000000000e+00
2.188400000000000000e+04,1.000000000000000048e-04,4.700000000000000401e-04,9.199999999999999194e-04,8.900000000000000576e-04,4.200000000000000174e-04,2.900000000000000017e-04,-4.000000000000000327e-05,2.999999999999999737e-05,5.000000000000000000e+00,8.000000000000000000e+00
2.188500000000000000e+04,-4.000000000000000327e-05,-9.000000000000000567e-05,2.999999999999999737e-05,3.499999999999999964e-04,2.900000000000000017e-04,1.399999999999999877e-04,0.000000000000000000e+00,-1.000000000000000082e-05,5.000000000000000000e+00,8.000000000000000000e+00
2.188700000000000000e+04,0.000000000000000000e+00,5.999999999999999474e-05,-9.000000000000000567e-05,-1.000000000000000082e-05,-1.699999999999999851e-04,-2.000000000000000096e-04,-1.600000000000000131e-04,-1.100000000000000039e-04,5.000000000000000000e+00,8.000000000000000000e+00
2.188900000000000000e+04,0.000000000000000000e+00,5.999999999999999474e-05,-9.000000000000000567e-05,-1.000000000000000082e-05,-1.699999999999999851e-04,-2.000000000000000096e-04,-1.600000000000000131e-04,-1.100000000000000039e-04,5.000000000000000000e+00,8.000000000000000000e+00
2.189000000000000000e+04,0.000000000000000000e+00,5.999999999999999474e-05,-9.000000000000000567e-05,-1.000000000000000082e-05,-1.699999999999999851e-04,-2.000000000000000096e-04,-1.600000000000000131e-04,-1.100000000000000039e-04,5.000000000000000000e+00,8.000000000000000000e+00
2.189100000000000000e+04,0.000000000000000000e+00,5.999999999999999474e-05,-9.000000000000000567e-05,-1.000000000000000082e-05,-1.699999999999999851e-04,-2.000000000000000096e-04,-1.600000000000000131e-04,-1.100000000000000039e-04,5.000000000000000000e+00,8.000000000000000000e+00
2.189200000000000000e+04,0.000000000000000000e+00,5.999999999999999474e-05,-9.000000000000000567e-05,-1.000000000000000082e-05,-1.699999999999999851e-04,-2.000000000000000096e-04,-1.600000000000000131e-04,-1.100000000000000039e-04,5.000000000000000000e+00,8.000000000000000000e+00
2.189400000000000000e+04,0.000000000000000000e+00,5.999999999999999474e-05,-9.000000000000000567e-05,-1.000000000000000082e-05,-1.699999999999999851e-04,-2.000000000000000096e-04,-1.600000000000000131e-04,-1.100000000000000039e-04,5.000000000000000000e+00,8.000000000000000000e+00
2.189500000000000000e+04,0.000000000000000000e+00,5.999999999999999474e-05,-9.000000000000000567e-05,-1.000000000000000082e-05,-1.699999999999999851e-04,-2.000000000000000096e-04,-1.600000000000000131e-04,-1.100000000000000039e-04,5.000000000000000000e+00,8.000000000000000000e+00
2.189600000000000000e+04,0.000000000000000000e+00,5.999999999999999474e-05,-9.000000000000000567e-05,-1.000000000000000082e-05,-1.699999999999999851e-04,-2.000000000000000096e-04,-1.600000000000000131e-04,-1.100000000000000039e-04,5.000000000000000000e+00,8.000000000000000000e+00
2.189700000000000000e+04,0.000000000000000000e+00,5.999999999999999474e-05,-9.000000000000000567e-05,-1.000000000000000082e-05,-1.699999999999999851e-04,-2.000000000000000096e-04,-1.600000000000000131e-04,-1.100000000000000039e-04,5.000000000000000000e+00,8.000000000000000000e+00
2.189800000000000000e+04,0.000000000000000000e+00,5.999999999999999474e-05,-9.000000000000000567e-05,-1.000000000000000082e-05,-1.699999999999999851e-04,-2.000000000000000096e-04,-1.600000000000000131e-04,-1.100000000000000039e-04,5.000000000000000000e+00,8.000000000000000000e+00
2.189900000000000000e+04,0.000000000000000000e+00,5.999999999999999474e-05,-9.000000000000000567e-05,-1.000000000000000082e-05,-1.699999999999999851e-04,-2.000000000000000096e-04,-1.600000000000000131e-04,-1.100000000000000039e-04,5.000000000000000000e+00,8.000000000000000000e+00
2.190000000000000000e+04,0.000000000000000000e+00,5.999999999999999474e-05,-9.000000000000000567e-05,-1.000000000000000082e-05,-1.699999999999999851e-04,-2.000000000000000096e-04,-1.600000000000000131e-04,-1.100000000000000039e-04,5.000000000000000000e+00,8.000000000000000000e+00
2.190100000000000000e+04,0.000000000000000000e+00,5.999999999999999474e-05,-9.000000000000000567e-05,-1.000000000000000082e-05,-1.699999999999999851e-04,-2.000000000000000096e-04,-1.600000000000000131e-04,-1.100000000000000039e-04,5.000000000000000000e+00,8.000000000000000000e+00
2.190200000000000000e+04,0.000000000000000000e+00,5.999999999999999474e-05,-9.000000000000000567e-05,-1.000000000000000082e-05,-1.699999999999999851e-04,-2.000000000000000096e-04,-1.600000000000000131e-04,-1.100000000000000039e-04,5.000000000000000000e+00,8.000000000000000000e+00
2.190300000000000000e+04,0.000000000000000000e+00,5.999999999999999474e-05,-9.000000000000000567e-05,-1.000000000000000082e-05,-1.699999999999999851e-04,-2.000000000000000096e-04,-1.600000000000000131e-04,-1.100000000000000039e-04,5.000000000000000000e+00,8.000000000000000000e+00
2.190400000000000000e+04,0.000000000000000000e+00,5.999999999999999474e-05,-9.000000000000000567e-05,-1.000000000000000082e-05,-1.699999999999999851e-04,-2.000000000000000096e-04,-1.600000000000000131e-04,-1.100000000000000039e-04,5.000000000000000000e+00,8.000000000000000000e+00
2.190500000000000000e+04,0.000000000000000000e+00,5.999999999999999474e-05,-9.000000000000000567e-05,-1.000000000000000082e-05,-1.699999999999999851e-04,-2.000000000000000096e-04,-1.600000000000000131e-04,-1.100000000000000039e-04,5.000000000000000000e+00,8.000000000000000000e+00
2.190600000000000000e+04,0.000000000000000000e+00,5.999999999999999474e-05,-9.000000000000000567e-05,-1.000000000000000082e-05,-1.699999999999999851e-04,-2.000000000000000096e-04,-1.600000000000000131e-04,-1.100000000000000039e-04,5.000000000000000000e+00,8.000000000000000000e+00
2.190700000000000000e+04,0.000000000000000000e+00,5.999999999999999474e-05,-9.000000000000000567e-05,-1.000000000000000082e-05,-1.699999999999999851e-04,-2.000000000000000096e-04,-1.600000000000000131e-04,-1.100000000000000039e-04,5.000000000000000000e+00,8.000000000000000000e+00
2.190800000000000000e+04,2.000000000000000096e-04,4.299999999999999894e-04,8.000000000000000383e-04,2.799999999999999755e-04,1.699999999999999851e-04,8.000000000000000654e-05,1.199999999999999895e-04,1.100000000000000039e-04,5.000000000000000000e+00,8.000000000000000000e+00
2.190900000000000000e+04,-2.999999999999999737e-05,-2.000000000000000096e-04,-6.700000000000000226e-04,-1.180000000000000059e-03,-8.999999999999999754e-04,4.000000000000000327e-05,-1.699999999999999851e-04,-5.000000000000000240e-05,5.000000000000000000e+00,8.000000000000000000e+00
2.191000000000000000e+04,-2.999999999999999737e-05,-2.000000000000000096e-04,-6.700000000000000226e-04,-1.180000000000000059e-03,-8.999999999999999754e-04,4.000000000000000327e-05,-1.699999999999999851e-04,-5.000000000000000240e-05,5.000000000000000000e+00,8.000000000000000000e+00
2.191100000000000000e+04,-2.999999999999999737e-05,-2.000000000000000096e-04,-6.700000000000000226e-04,-1.180000000000000059e-03,-8.999999999999999754e-04,4.000000000000000327e-05,-1.699999999999999851e-04,-5.000000000000000240e-05,5.000000000000000000e+00,8.000000000000000000e+00
2.191200000000000000e+04,-2.999999999999999737e-05,-2.000000000000000096e-04,-6.700000000000000226e-04,-1.180000000000000059e-03,-8.999999999999999754e-04,4.000000000000000327e-05,-1.699999999999999851e-04,-5.000000000000000240e-05,5.000000000000000000e+00,8.000000000000000000e+00
2.191300000000000000e+04,-2.999999999999999737e-05,-2.000000000000000096e-04,-6.700000000000000226e-04,-1.180000000000000059e-03,-8.999999999999999754e-04,4.000000000000000327e-05,-1.699999999999999851e-04,-5.000000000000000240e-05,5.000000000000000000e+00,8.000000000000000000e+00
2.191400000000000000e+04,-2.999999999999999737e-05,-2.000000000000000096e-04,-6.700000000000000226e-04,-1.180000000000000059e-03,-8.999999999999999754e-04,4.000000000000000327e-05,-1.699999999999999851e-04,-5.000000000000000240e-05,5.000000000000000000e+00,8.000000000000000000e+00
2.191500000000000000e+04,-2.999999999999999737e-05,-2.000000000000000096e-04,-6.700000000000000226e-04,-1.180000000000000059e-03,-8.999999999999999754e-04,4.000000000000000327e-05,-1.699999999999999851e-04,-5.000000000000000240e-05,5.000000000000000000e+00,8.000000000000000000e+00
2.191600000000000000e+04,-2.999999999999999737e-05,-2.000000000000000096e-04,-6.700000000000000226e-04,-1.180000000000000059e-03,-8.999999999999999754e-04,4.000000000000000327e-05,-1.699999999999999851e-04,-5.000000000000000240e-05,5.000000000000000000e+00,8.000000000000000000e+00
2.191700000000000000e+04,-2.999999999999999737e-05,-2.000000000000000096e-04,-6.700000000000000226e-04,-1.180000000000000059e-03,-8.999999999999999754e-04,4.000000000000000327e-05,-1.699999999999999851e-04,-5.000000000000000240e-05,5.000000000000000000e+00,8.000000000000000000e+00
2.191800000000000000e+04,-2.999999999999999737e-05,-2.000000000000000096e-04,-6.700000000000000226e-04,-1.180000000000000059e-03,-8.999999999999999754e-04,4.000000000000000327e-05,-1.699999999999999851e-04,-5.000000000000000240e-05,5.000000000000000000e+00,8.000000000000000000e+00
2.191900000000000000e+04,-2.999999999999999737e-05,-2.000000000000000096e-04,-6.700000000000000226e-04,-1.180000000000000059e-03,-8.999999999999999754e-04,4.000000000000000327e-05,-1.699999999999999851e-04,-5.000000000000000240e-05,5.000000000000000000e+00,8.000000000000000000e+00
2.192000000000000000e+04,-2.999999999999999737e-05,-2.000000000000000096e-04,-6.700000000000000226e-04,-1.180000000000000059e-03,-8.999999999999999754e-04,4.000000000000000327e-05,-1.699999999999999851e-04,-5.000000000000000240e-05,5.000000000000000000e+00,8.000000000000000000e+00
2.192100000000000000e+04,-2.999999999999999737e-05,-2.000000000000000096e-04,-6.700000000000000226e-04,-1.180000000000000059e-03,-8.999999999999999754e-04,4.000000000000000327e-05,-1.699999999999999851e-04,-5.000000000000000240e-05,5.000000000000000000e+00,8.000000000000000000e+00
2.192200000000000000e+04,1.000000000000000082e-05,1.199999999999999895e-04,1.399999999999999877e-04,-1.100000000000000039e-04,5.000000000000000240e-05,5.000000000000000240e-05,-2.000000000000000164e-05,-5.000000000000000240e-05,5.000000000000000000e+00,8.000000000000000000e+00
2.192300000000000000e+04,1.000000000000000082e-05,1.199999999999999895e-04,1.399999999999999877e-04,-1.100000000000000039e-04,5.000000000000000240e-05,5.000000000000000240e-05,-2.000000000000000164e-05,-5.000000000000000240e-05,5.000000000000000000e+00,8.000000000000000000e+00
2.192400000000000000e+04,1.000000000000000082e-05,1.199999999999999895e-04,1.399999999999999877e-04,-1.100000000000000039e-04,5.000000000000000240e-05,5.000000000000000240e-05,-2.000000000000000164e-05,-5.000000000000000240e-05,5.000000000000000000e+00,8.000000000000000000e+00
2.192500000000000000e+04,1.000000000000000082e-05,1.199999999999999895e-04,1.399999999999999877e-04,-1.100000000000000039e-04,5.000000000000000240e-05,5.000000000000000240e-05,-2.000000000000000164e-05,-5.000000000000000240e-05,5.000000000000000000e+00,8.000000000000000000e+00
2.192600000000000000e+04,1.000000000000000082e-05,1.199999999999999895e-04,1.399999999999999877e-04,-1.100000000000000039e-04,5.000000000000000240e-05,5.000000000000000240e-05,-2.000000000000000164e-05,-5.000000000000000240e-05,5.000000000000000000e+00,8.000000000000000000e+00
2.192700000000000000e+04,1.000000000000000082e-05,1.199999999999999895e-04,1.399999999999999877e-04,-1.100000000000000039e-04,5.000000000000000240e-05,5.000000000000000240e-05,-2.000000000000000164e-05,-5.000000000000000240e-05,5.000000000000000000e+00,8.000000000000000000e+00
2.192800000000000000e+04,1.000000000000000082e-05,1.199999999999999895e-04,1.399999999999999877e-04,-1.100000000000000039e-04,5.000000000000000240e-05,5.000000000000000240e-05,-2.000000000000000164e-05,-5.000000000000000240e-05,5.000000000000000000e+00,8.000000000000000000e+00
2.192900000000000000e+04,1.000000000000000082e-05,1.199999999999999895e-04,1.399999999999999877e-04,-1.100000000000000039e-04,5.000000000000000240e-05,5.000000000000000240e-05,-2.000000000000000164e-05,-5.000000000000000240e-05,5.000000000000000000e+00,8.000000000000000000e+00
2.193000000000000000e+04,-1.000000000000000082e-05,-2.100000000000000087e-04,-2.900000000000000017e-04,8.000000000000000654e-05,1.000000000000000048e-04,1.499999999999999869e-04,-1.000000000000000082e-05,-1.000000000000000082e-05,5.000000000000000000e+00,8.000000000000000000e+00
2.193100000000000000e+04,-1.000000000000000082e-05,-2.100000000000000087e-04,-2.900000000000000017e-04,8.000000000000000654e-05,1.000000000000000048e-04,1.499999999999999869e-04,-1.000000000000000082e-05,-1.000000000000000082e-05,5.000000000000000000e+00,8.000000000000000000e+00
2.193200000000000000e+04,-1.000000000000000082e-05,-2.100000000000000087e-04,-2.900000000000000017e-04,8.000000000000000654e-05,1.000000000000000048e-04,1.499999999999999869e-04,-1.000000000000000082e-05,-1.000000000000000082e-05,5.000000000000000000e+00,8.000000000000000000e+00
2.193300000000000000e+04,-1.000000000000000082e-05,-2.100000000000000087e-04,-2.900000000000000017e-04,8.000000000000000654e-05,1.000000000000000048e-04,1.499999999999999869e-04,-1.000000000000000082e-05,-1.000000000000000082e-05,5.000000000000000000e+00,8.000000000000000000e+00
2.193400000000000000e+04,-1.000000000000000082e-05,-2.100000000000000087e-04,-2.900000000000000017e-04,8.000000000000000654e-05,1.000000000000000048e-04,1.499999999999999869e-04,-1.000000000000000082e-05,-1.000000000000000082e-05,5.000000000000000000e+00,8.000000000000000000e+00
2.193500000000000000e+04,-1.000000000000000082e-05,-2.100000000000000087e-04,-2.900000000000000017e-04,8.000000000000000654e-05,1.000000000000000048e-04,1.499999999999999869e-04,-1.000000000000000082e-05,-1.000000000000000082e-05,5.000000000000000000e+00,8.000000000000000000e+00
2.193600000000000000e+04,-1.000000000000000082e-05,-2.100000000000000087e-04,-2.900000000000000017e-04,8.000000000000000654e-05,1.000000000000000048e-04,1.499999999999999869e-04,-1.000000000000000082e-05,-1.000000000000000082e-05,5.000000000000000000e+00,8.000000000000000000e+00
2.193800000000000000e+04,-1.000000000000000082e-05,-2.100000000000000087e-04,-2.900000000000000017e-04,8.000000000000000654e-05,1.000000000000000048e-04,1.499999999999999869e-04,-1.000000000000000082e-05,-1.000000000000000082e-05,5.000000000000000000e+00,8.000000000000000000e+00
2.193900000000000000e+04,-1.000000000000000082e-05,-2.100000000000000087e-04,-2.900000000000000017e-04,8.000000000000000654e-05,1.000000000000000048e-04,1.499999999999999869e-04,-1.000000000000000082e-05,-1.000000000000000082e-05,5.000000000000000000e+00,8.000000000000000000e+00
2.194000000000000000e+04,-1.000000000000000082e-05,-2.100000000000000087e-04,-2.900000000000000017e-04,8.000000000000000654e-05,1.000000000000000048e-04,1.499999999999999869e-04,-1.000000000000000082e-05,-1.000000000000000082e-05,5.000000000000000000e+00,8.000000000000000000e+00
2.194100000000000000e+04,-1.000000000000000082e-05,-2.100000000000000087e-04,-2.900000000000000017e-04,8.000000000000000654e-05,1.000000000000000048e-04,1.499999999999999869e-04,-1.000000000000000082e-05,-1.000000000000000082e-05,5.000000000000000000e+00,8.000000000000000000e+00
2.194200000000000000e+04,-1.000000000000000082e-05,-2.100000000000000087e-04,-2.900000000000000017e-04,8.000000000000000654e-05,1.000000000000000048e-04,1.499999999999999869e-04,-1.000000000000000082e-05,-1.000000000000000082e-05,5.000000000000000000e+00,8.000000000000000000e+00
2.194300000000000000e+04,-1.000000000000000082e-05,-2.100000000000000087e-04,-2.900000000000000017e-04,8.000000000000000654e-05,1.000000000000000048e-04,1.499999999999999869e-04,-1.000000000000000082e-05,-1.000000000000000082e-05,5.000000000000000000e+00,8.000000000000000000e+00
2.194400000000000000e+04,-1.000000000000000082e-05,-2.100000000000000087e-04,-2.900000000000000017e-04,8.000000000000000654e-05,1.000000000000000048e-04,1.499999999999999869e-04,-1.000000000000000082e-05,-1.000000000000000082e-05,5.000000000000000000e+00,8.000000000000000000e+00
2.194500000000000000e+04,6.999999999999999387e-05,1.899999999999999834e-04,4.200000000000000174e-04,-1.499999999999999869e-04,-1.199999999999999895e-04,-1.899999999999999834e-04,1.600000000000000131e-04,6.999999999999999387e-05,5.000000000000000000e+00,8.000000000000000000e+00
2.194600000000000000e+04,-8.000000000000000654e-05,-8.000000000000000654e-05,-3.600000000000000227e-04,-2.000000000000000164e-05,2.100000000000000087e-04,5.999999999999999474e-05,-1.000000000000000082e-05,-2.000000000000000164e-05,5.000000000000000000e+00,8.000000000000000000e+00
2.194700000000000000e+04,-8.000000000000000654e-05,-8.000000000000000654e-05,-3.600000000000000227e-04,-2.000000000000000164e-05,2.100000000000000087e-04,5.999999999999999474e-05,-1.000000000000000082e-05,-2.000000000000000164e-05,5.000000000000000000e+00,8.000000000000000000e+00
2.194800000000000000e+04,-8.000000000000000654e-05,-8.000000000000000654e-05,-3.600000000000000227e-04,-2.000000000000000164e-05,2.100000000000000087e-04,5.999999999999999474e-05,-1.000000000000000082e-05,-2.000000000000000164e-05,5.000000000000000000e+00,8.000000000000000000e+00
2.194900000000000000e+04,-8.000000000000000654e-05,-8.000000000000000654e-05,-3.600000000000000227e-04,-2.000000000000000164e-05,2.100000000000000087e-04,5.999999999999999474e-05,-1.000000000000000082e-05,-2.000000000000000164e-05,5.000000000000000000e+00,8.000000000000000000e+00
2.195000000000000000e+04,-8.000000000000000654e-05,-8.000000000000000654e-05,-3.600000000000000227e-04,-2.000000000000000164e-05,2.100000000000000087e-04,5.999999999999999474e-05,-1.000000000000000082e-05,-2.000000000000000164e-05,5.000000000000000000e+00,8.000000000000000000e+00
2.195100000000000000e+04,-8.000000000000000654e-05,-8.000000000000000654e-05,-3.600000000000000227e-04,-2.000000000000000164e-05,2.100000000000000087e-04,5.999999999999999474e-05,-1.000000000000000082e-05,-2.000000000000000164e-05,5.000000000000000000e+00,8.000000000000000000e+00
2.195200000000000000e+04,-8.000000000000000654e-05,-8.000000000000000654e-05,-3.600000000000000227e-04,-2.000000000000000164e-05,2.100000000000000087e-04,5.999999999999999474e-05,-1.000000000000000082e-05,-2.000000000000000164e-05,5.000000000000000000e+00,8.000000000000000000e+00
2.195300000000000000e+04,-8.000000000000000654e-05,-8.000000000000000654e-05,-3.600000000000000227e-04,-2.000000000000000164e-05,2.100000000000000087e-04,5.999999999999999474e-05,-1.000000000000000082e-05,-2.000000000000000164e-05,5.000000000000000000e+00,8.000000000000000000e+00
2.195400000000000000e+04,-8.000000000000000654e-05,-8.000000000000000654e-05,-3.600000000000000227e-04,-2.000000000000000164e-05,2.100000000000000087e-04,5.999999999999999474e-05,-1.000000000000000082e-05,-2.000000000000000164e-05,5.000000000000000000e+00,8.000000000000000000e+00
2.195500000000000000e+04,-8.000000000000000654e-05,-8.000000000000000654e-05,-3.600000000000000227e-04,-2.000000000000000164e-05,2.100000000000000087e-04,5.999999999999999474e-05,-1.000000000000000082e-05,-2.000000000000000164e-05,5.000000000000000000e+00,8.000000000000000000e+00
2.195600000000000000e+04,-8.000000000000000654e-05,-8.000000000000000654e-05,-3.600000000000000227e-04,-2.000000000000000164e-05,2.100000000000000087e-04,5.999999999999999474e-05,-1.000000000000000082e-05,-2.000000000000000164e-05,5.000000000000000000e+00,8.000000000000000000e+00
2.195700000000000000e+04,-8.000000000000000654e-05,-8.000000000000000654e-05,-3.600000000000000227e-04,-2.000000000000000164e-05,2.100000000000000087e-04,5.999999999999999474e-05,-1.000000000000000082e-05,-2.000000000000000164e-05,5.000000000000000000e+00,8.000000000000000000e+00
2.195800000000000000e+04,-8.000000000000000654e-05,-8.000000000000000654e-05,-3.600000000000000227e-04,-2.000000000000000164e-05,2.100000000000000087e-04,5.999999999999999474e-05,-1.000000000000000082e-05,-2.000000000000000164e-05,5.000000000000000000e+00,8.000000000000000000e+00
2.195900000000000000e+04,-8.000000000000000654e-05,-8.000000000000000654e-05,-3.600000000000000227e-04,-2.000000000000000164e-05,2.100000000000000087e-04,5.999999999999999474e-05,-1.000000000000000082e-05,-2.000000000000000164e-05,5.000000000000000000e+00,8.000000000000000000e+00
2.196000000000000000e+04,-8.000000000000000654e-05,-8.000000000000000654e-05,-3.600000000000000227e-04,-2.000000000000000164e-05,2.100000000000000087e-04,5.999999999999999474e-05,-1.000000000000000082e-05,-2.000000000000000164e-05,5.000000000000000000e+00,8.000000000000000000e+00
2.196100000000000000e+04,-8.000000000000000654e-05,-8.000000000000000654e-05,-3.600000000000000227e-04,-2.000000000000000164e-05,2.100000000000000087e-04,5.999999999999999474e-05,-1.000000000000000082e-05,-2.000000000000000164e-05,5.000000000000000000e+00,8.000000000000000000e+00
2.196200000000000000e+04,-8.000000000000000654e-05,-8.000000000000000654e-05,-3.600000000000000227e-04,-2.000000000000000164e-05,2.100000000000000087e-04,5.999999999999999474e-05,-1.000000000000000082e-05,-2.000000000000000164e-05,5.000000000000000000e+00,8.000000000000000000e+00
2.196300000000000000e+04,-8.000000000000000654e-05,-8.000000000000000654e-05,-3.600000000000000227e-04,-2.000000000000000164e-05,2.100000000000000087e-04,5.999999999999999474e-05,-1.000000000000000082e-05,-2.000000000000000164e-05,5.000000000000000000e+00,8.000000000000000000e+00
2.196400000000000000e+04,-8.000000000000000654e-05,-8.000000000000000654e-05,-3.600000000000000227e-04,-2.000000000000000164e-05,2.100000000000000087e-04,5.999999999999999474e-05,-1.000000000000000082e-05,-2.000000000000000164e-05,5.000000000000000000e+00,8.000000000000000000e+00
2.196500000000000000e+04,-8.000000000000000654e-05,-8.000000000000000654e-05,-3.600000000000000227e-04,-2.000000000000000164e-05,2.100000000000000087e-04,5.999999999999999474e-05,-1.000000000000000082e-05,-2.000000000000000164e-05,5.000000000000000000e+00,8.000000000000000000e+00
2.196600000000000000e+04,-8.000000000000000654e-05,-8.000000000000000654e-05,-3.600000000000000227e-04,-2.000000000000000164e-05,2.100000000000000087e-04,5.999999999999999474e-05,-1.000000000000000082e-05,-2.000000000000000164e-05,5.000000000000000000e+00,8.000000000000000000e+00
2.196700000000000000e+04,-8.000000000000000654e-05,-8.000000000000000654e-05,-3.600000000000000227e-04,-2.000000000000000164e-05,2.100000000000000087e-04,5.999999999999999474e-05,-1.000000000000000082e-05,-2.000000000000000164e-05,5.000000000000000000e+00,8.000000000000000000e+00
2.196800000000000000e+04,-8.000000000000000654e-05,-8.000000000000000654e-05,-3.600000000000000227e-04,-2.000000000000000164e-05,2.100000000000000087e-04,5.999999999999999474e-05,-1.000000000000000082e-05,-2.000000000000000164e-05,5.000000000000000000e+00,8.000000000000000000e+00
2.196900000000000000e+04,-1.800000000000000113e-04,-4.400000000000000157e-04,-4.599999999999999597e-04,3.499999999999999964e-04,1.800000000000000113e-04,-2.200000000000000078e-04,-1.499999999999999869e-04,-1.100000000000000039e-04,5.000000000000000000e+00,8.000000000000000000e+00
2.197000000000000000e+04,-1.800000000000000113e-04,-4.400000000000000157e-04,-4.599999999999999597e-04,3.499999999999999964e-04,1.800000000000000113e-04,-2.200000000000000078e-04,-1.499999999999999869e-04,-1.100000000000000039e-04,5.000000000000000000e+00,8.000000000000000000e+00
2.197100000000000000e+04,-1.800000000000000113e-04,-4.400000000000000157e-04,-4.599999999999999597e-04,3.499999999999999964e-04,1.800000000000000113e-04,-2.200000000000000078e-04,-1.499999999999999869e-04,-1.100000000000000039e-04,5.000000000000000000e+00,8.000000000000000000e+00
2.197200000000000000e+04,-1.800000000000000113e-04,-4.400000000000000157e-04,-4.599999999999999597e-04,3.499999999999999964e-04,1.800000000000000113e-04,-2.200000000000000078e-04,-1.499999999999999869e-04,-1.100000000000000039e-04,5.000000000000000000e+00,8.000000000000000000e+00
2.197300000000000000e+04,-1.800000000000000113e-04,-4.400000000000000157e-04,-4.599999999999999597e-04,3.499999999999999964e-04,1.800000000000000113e-04,-2.200000000000000078e-04,-1.499999999999999869e-04,-1.100000000000000039e-04,5.000000000000000000e+00,8.000000000000000000e+00
2.197400000000000000e+04,-1.800000000000000113e-04,-4.400000000000000157e-04,-4.599999999999999597e-04,3.499999999999999964e-04,1.800000000000000113e-04,-2.200000000000000078e-04,-1.499999999999999869e-04,-1.100000000000000039e-04,5.000000000000000000e+00,8.000000000000000000e+00
2.197500000000000000e+04,-1.800000000000000113e-04,-4.400000000000000157e-04,-4.599999999999999597e-04,3.499999999999999964e-04,1.800000000000000113e-04,-2.200000000000000078e-04,-1.499999999999999869e-04,-1.100000000000000039e-04,5.000000000000000000e+00,8.000000000000000000e+00
2.197600000000000000e+04,-1.800000000000000113e-04,-4.400000000000000157e-04,-4.599999999999999597e-04,3.499999999999999964e-04,1.800000000000000113e-04,-2.200000000000000078e-04,-1.499999999999999869e-04,-1.100000000000000039e-04,5.000000000000000000e+00,8.000000000000000000e+00
2.197700000000000000e+04,-1.800000000000000113e-04,-4.400000000000000157e-04,-4.599999999999999597e-04,3.499999999999999964e-04,1.800000000000000113e-04,-2.200000000000000078e-04,-1.499999999999999869e-04,-1.100000000000000039e-04,5.000000000000000000e+00,8.000000000000000000e+00
2.197800000000000000e+04,-1.800000000000000113e-04,-4.400000000000000157e-04,-4.599999999999999597e-04,3.499999999999999964e-04,1.800000000000000113e-04,-2.200000000000000078e-04,-1.499999999999999869e-04,-1.100000000000000039e-04,5.000000000000000000e+00,8.000000000000000000e+00
2.197900000000000000e+04,-1.800000000000000113e-04,-4.400000000000000157e-04,-4.599999999999999597e-04,3.499999999999999964e-04,1.800000000000000113e-04,-2.200000000000000078e-04,-1.499999999999999869e-04,-1.100000000000000039e-04,5.000000000000000000e+00,8.000000000000000000e+00
2.198000000000000000e+04,-1.800000000000000113e-04,-4.400000000000000157e-04,-4.599999999999999597e-04,3.499999999999999964e-04,1.800000000000000113e-04,-2.200000000000000078e-04,-1.499999999999999869e-04,-1.100000000000000039e-04,5.000000000000000000e+00,8.000000000000000000e+00
2.198100000000000000e+04,-1.800000000000000113e-04,-4.400000000000000157e-04,-4.599999999999999597e-04,3.499999999999999964e-04,1.800000000000000113e-04,-2.200000000000000078e-04,-1.499999999999999869e-04,-1.100000000000000039e-04,5.000000000000000000e+00,8.000000000000000000e+00
2.198200000000000000e+04,-1.000000000000000082e-05,-1.699999999999999851e-04,-1.899999999999999834e-04,8.000000000000000654e-05,2.299999999999999799e-04,1.199999999999999895e-04,2.999999999999999737e-05,2.999999999999999737e-05,5.000000000000000000e+00,8.000000000000000000e+00
2.198300000000000000e+04,-1.000000000000000082e-05,-1.699999999999999851e-04,-1.899999999999999834e-04,8.000000000000000654e-05,2.299999999999999799e-04,1.199999999999999895e-04,2.999999999999999737e-05,2.999999999999999737e-05,5.000000000000000000e+00,8.000000000000000000e+00
2.198400000000000000e+04,-1.000000000000000082e-05,-1.699999999999999851e-04,-1.899999999999999834e-04,8.000000000000000654e-05,2.299999999999999799e-04,1.199999999999999895e-04,2.999999999999999737e-05,2.999999999999999737e-05,5.000000000000000000e+00,8.000000000000000000e+00
2.198500000000000000e+04,-1.000000000000000082e-05,-1.699999999999999851e-04,-1.899999999999999834e-04,8.000000000000000654e-05,2.299999999999999799e-04,1.199999999999999895e-04,2.999999999999999737e-05,2.999999999999999737e-05,5.000000000000000000e+00,8.000000000000000000e+00
2.198600000000000000e+04,-1.000000000000000082e-05,-1.699999999999999851e-04,-1.899999999999999834e-04,8.000000000000000654e-05,2.299999999999999799e-04,1.199999999999999895e-04,2.999999999999999737e-05,2.999999999999999737e-05,5.000000000000000000e+00,8.000000000000000000e+00
2.198800000000000000e+04,-1.000000000000000082e-05,-1.699999999999999851e-04,-1.899999999999999834e-04,8.000000000000000654e-05,2.299999999999999799e-04,1.199999999999999895e-04,2.999999999999999737e-05,2.999999999999999737e-05,5.000000000000000000e+00,8.000000000000000000e+00
2.198900000000000000e+04,-1.000000000000000082e-05,-1.699999999999999851e-04,-1.899999999999999834e-04,8.000000000000000654e-05,2.299999999999999799e-04,1.199999999999999895e-04,2.999999999999999737e-05,2.999999999999999737e-05,5.000000000000000000e+00,8.000000000000000000e+00
2.199000000000000000e+04,-2.999999999999999737e-05,5.999999999999999474e-05,1.000000000000000048e-04,1.699999999999999851e-04,1.300000000000000157e-04,-2.999999999999999737e-05,-5.000000000000000240e-05,-2.000000000000000164e-05,5.000000000000000000e+00,8.000000000000000000e+00
2.199100000000000000e+04,-2.999999999999999737e-05,5.999999999999999474e-05,1.000000000000000048e-04,1.699999999999999851e-04,1.300000000000000157e-04,-2.999999999999999737e-05,-5.000000000000000240e-05,-2.000000000000000164e-05,5.000000000000000000e+00,8.000000000000000000e+00
2.199200000000000000e+04,-2.999999999999999737e-05,5.999999999999999474e-05,1.000000000000000048e-04,1.699999999999999851e-04,1.300000000000000157e-04,-2.999999999999999737e-05,-5.000000000000000240e-05,-2.000000000000000164e-05,5.000000000000000000e+00,8.000000000000000000e+00
2.199300000000000000e+04,-2.999999999999999737e-05,5.999999999999999474e-05,1.000000000000000048e-04,1.699999999999999851e-04,1.300000000000000157e-04,-2.999999999999999737e-05,-5.000000000000000240e-05,-2.000000000000000164e-05,5.000000000000000000e+00,8.000000000000000000e+00
2.199400000000000000e+04,-2.999999999999999737e-05,5.999999999999999474e-05,1.000000000000000048e-04,1.699999999999999851e-04,1.300000000000000157e-04,-2.999999999999999737e-05,-5.000000000000000240e-05,-2.000000000000000164e-05,5.000000000000000000e+00,8.000000000000000000e+00
2.199500000000000000e+04,-2.999999999999999737e-05,5.999999999999999474e-05,1.000000000000000048e-04,1.699999999999999851e-04,1.300000000000000157e-04,-2.999999999999999737e-05,-5.000000000000000240e-05,-2.000000000000000164e-05,5.000000000000000000e+00,8.000000000000000000e+00
2.199600000000000000e+04,-2.999999999999999737e-05,5.999999999999999474e-05,1.000000000000000048e-04,1.699999999999999851e-04,1.300000000000000157e-04,-2.999999999999999737e-05,-5.000000000000000240e-05,-2.000000000000000164e-05,5.000000000000000000e+00,8.000000000000000000e+00
2.199700000000000000e+04,-2.999999999999999737e-05,5.999999999999999474e-05,1.000000000000000048e-04,1.699999999999999851e-04,1.300000000000000157e-04,-2.999999999999999737e-05,-5.000000000000000240e-05,-2.000000000000000164e-05,5.000000000000000000e+00,8.000000000000000000e+00
2.199800000000000000e+04,-2.999999999999999737e-05,5.999999999999999474e-05,1.000000000000000048e-04,1.699999999999999851e-04,1.300000000000000157e-04,-2.999999999999999737e-05,-5.000000000000000240e-05,-2.000000000000000164e-05,5.000000000000000000e+00,8.000000000000000000e+00
2.199900000000000000e+04,-2.999999999999999737e-05,5.999999999999999474e-05,1.000000000000000048e-04,1.699999999999999851e-04,1.300000000000000157e-04,-2.999999999999999737e-05,-5.000000000000000240e-05,-2.000000000000000164e-05,5.000000000000000000e+00,8.000000000000000000e+00
2.200000000000000000e+04,-2.999999999999999737e-05,5.999999999999999474e-05,1.000000000000000048e-04,1.699999999999999851e-04,1.300000000000000157e-04,-2.999999999999999737e-05,-5.000000000000000240e-05,-2.000000000000000164e-05,5.000000000000000000e+00,8.000000000000000000e+00
2.200100000000000000e+04,-2.999999999999999737e-05,5.999999999999999474e-05,1.000000000000000048e-04,1.699999999999999851e-04,1.300000000000000157e-04,-2.999999999999999737e-05,-5.000000000000000240e-05,-2.000000000000000164e-05,5.000000000000000000e+00,8.000000000000000000e+00
2.200200000000000000e+04,-2.999999999999999737e-05,5.999999999999999474e-05,1.000000000000000048e-04,1.699999999999999851e-04,1.300000000000000157e-04,-2.999999999999999737e-05,-5.000000000000000240e-05,-2.000000000000000164e-05,5.000000000000000000e+00,8.000000000000000000e+00
2.200300000000000000e+04,-2.999999999999999737e-05,5.999999999999999474e-05,1.000000000000000048e-04,1.699999999999999851e-04,1.300000000000000157e-04,-2.999999999999999737e-05,-5.000000000000000240e-05,-2.000000000000000164e-05,5.000000000000000000e+00,8.000000000000000000e+00
2.200400000000000000e+04,-2.999999999999999737e-05,5.999999999999999474e-05,1.000000000000000048e-04,1.699999999999999851e-04,1.300000000000000157e-04,-2.999999999999999737e-05,-5.000000000000000240e-05,-2.000000000000000164e-05,5.000000000000000000e+00,8.000000000000000000e+00
2.200500000000000000e+04,2.999999999999999737e-05,-2.000000000000000164e-05,-5.000000000000000104e-04,-2.000000000000000096e-04,-3.600000000000000227e-04,4.000000000000000327e-05,2.000000000000000164e-05,4.000000000000000327e-05,5.000000000000000000e+00,8.000000000000000000e+00
2.200600000000000000e+04,-1.000000000000000048e-04,-1.000000000000000082e-05,-4.000000000000000327e-05,-3.699999999999999947e-04,-1.000000000000000048e-04,-2.999999999999999737e-05,6.999999999999999387e-05,-5.000000000000000240e-05,5.000000000000000000e+00,8.000000000000000000e+00
2.200700000000000000e+04,-1.000000000000000048e-04,-1.000000000000000082e-05,-4.000000000000000327e-05,-3.699999999999999947e-04,-1.000000000000000048e-04,-2.999999999999999737e-05,6.999999999999999387e-05,-5.000000000000000240e-05,5.000000000000000000e+00,8.000000000000000000e+00
2.200800000000000000e+04,-1.000000000000000048e-04,-1.000000000000000082e-05,-4.000000000000000327e-05,-3.699999999999999947e-04,-1.000000000000000048e-04,-2.999999999999999737e-05,6.999999999999999387e-05,-5.000000000000000240e-05,5.000000000000000000e+00,8.000000000000000000e+00
2.200900000000000000e+04,-1.000000000000000048e-04,-1.000000000000000082e-05,-4.000000000000000327e-05,-3.699999999999999947e-04,-1.000000000000000048e-04,-2.999999999999999737e-05,6.999999999999999387e-05,-5.000000000000000240e-05,5.000000000000000000e+00,8.000000000000000000e+00
2.201000000000000000e+04,-1.000000000000000048e-04,-1.000000000000000082e-05,-4.000000000000000327e-05,-3.699999999999999947e-04,-1.000000000000000048e-04,-2.999999999999999737e-05,6.999999999999999387e-05,-5.000000000000000240e-05,5.000000000000000000e+00,8.000000000000000000e+00
2.201100000000000000e+04,-1.000000000000000048e-04,-1.000000000000000082e-05,-4.000000000000000327e-05,-3.699999999999999947e-04,-1.000000000000000048e-04,-2.999999999999999737e-05,6.999999999999999387e-05,-5.000000000000000240e-05,5.000000000000000000e+00,8.000000000000000000e+00
2.201200000000000000e+04,-1.000000000000000048e-04,-1.000000000000000082e-05,-4.000000000000000327e-05,-3.699999999999999947e-04,-1.000000000000000048e-04,-2.999999999999999737e-05,6.999999999999999387e-05,-5.000000000000000240e-05,5.000000000000000000e+00,8.000000000000000000e+00
2.201300000000000000e+04,-1.000000000000000048e-04,-1.000000000000000082e-05,-4.000000000000000327e-05,-3.699999999999999947e-04,-1.000000000000000048e-04,-2.999999999999999737e-05,6.999999999999999387e-05,-5.000000000000000240e-05,5.000000000000000000e+00,8.000000000000000000e+00
2.201400000000000000e+04,-1.000000000000000048e-04,-1.000000000000000082e-05,-4.000000000000000327e-05,-3.699999999999999947e-04,-1.000000000000000048e-04,-2.999999999999999737e-05,6.999999999999999387e-05,-5.000000000000000240e-05,5.000000000000000000e+00,8.000000000000000000e+00
2.201500000000000000e+04,-1.000000000000000048e-04,-1.000000000000000082e-05,-4.000000000000000327e-05,-3.699999999999999947e-04,-1.000000000000000048e-04,-2.999999999999999737e-05,6.999999999999999387e-05,-5.000000000000000240e-05,5.000000000000000000e+00,8.000000000000000000e+00
2.201600000000000000e+04,-1.000000000000000048e-04,-1.000000000000000082e-05,-4.000000000000000327e-05,-3.699999999999999947e-04,-1.000000000000000048e-04,-2.999999999999999737e-05,6.999999999999999387e-05,-5.000000000000000240e-05,5.000000000000000000e+00,8.000000000000000000e+00
2.201700000000000000e+04,-1.000000000000000048e-04,-1.000000000000000082e-05,-4.000000000000000327e-05,-3.699999999999999947e-04,-1.000000000000000048e-04,-2.999999999999999737e-05,6.999999999999999387e-05,-5.000000000000000240e-05,5.000000000000000000e+00,8.000000000000000000e+00
2.201800000000000000e+04,-1.000000000000000048e-04,-1.000000000000000082e-05,-4.000000000000000327e-05,-3.699999999999999947e-04,-1.000000000000000048e-04,-2.999999999999999737e-05,6.999999999999999387e-05,-5.000000000000000240e-05,5.000000000000000000e+00,8.000000000000000000e+00
2.201900000000000000e+04,-1.000000000000000048e-04,-1.000000000000000082e-05,-4.000000000000000327e-05,-3.699999999999999947e-04,-1.000000000000000048e-04,-2.999999999999999737e-05,6.999999999999999387e-05,-5.000000000000000240e-05,5.000000000000000000e+00,8.000000000000000000e+00
2.202000000000000000e+04,-1.000000000000000048e-04,-1.000000000000000082e-05,-4.000000000000000327e-05,-3.699999999999999947e-04,-1.000000000000000048e-04,-2.999999999999999737e-05,6.999999999999999387e-05,-5.000000000000000240e-05,5.000000000000000000e+00,8.000000000000000000e+00
2.202100000000000000e+04,-1.000000000000000048e-04,-1.000000000000000082e-05,-4.000000000000000327e-05,-3.699999999999999947e-04,-1.000000000000000048e-04,-2.999999999999999737e-05,6.999999999999999387e-05,-5.000000000000000240e-05,5.000000000000000000e+00,8.000000000000000000e+00
2.202200000000000000e+04,-1.000000000000000048e-04,-1.000000000000000082e-05,-4.000000000000000327e-05,-3.699999999999999947e-04,-1.000000000000000048e-04,-2.999999999999999737e-05,6.999999999999999387e-05,-5.000000000000000240e-05,5.000000000000000000e+00,8.000000000000000000e+00
2.202300000000000000e+04,-1.000000000000000048e-04,-1.000000000000000082e-05,-4.000000000000000327e-05,-3.699999999999999947e-04,-1.000000000000000048e-04,-2.999999999999999737e-05,6.999999999999999387e-05,-5.000000000000000240e-05,5.000000000000000000e+00,8.000000000000000000e+00
2.202400000000000000e+04,-1.000000000000000048e-04,-1.000000000000000082e-05,-4.000000000000000327e-05,-3.699999999999999947e-04,-1.000000000000000048e-04,-2.999999999999999737e-05,6.999999999999999387e-05,-5.000000000000000240e-05,5.000000000000000000e+00,8.000000000000000000e+00
2.202500000000000000e+04,-1.000000000000000048e-04,-1.000000000000000082e-05,-4.000000000000000327e-05,-3.699999999999999947e-04,-1.000000000000000048e-04,-2.999999999999999737e-05,6.999999999999999387e-05,-5.000000000000000240e-05,5.000000000000000000e+00,8.000000000000000000e+00
2.202600000000000000e+04,-1.000000000000000048e-04,-1.000000000000000082e-05,-4.000000000000000327e-05,-3.699999999999999947e-04,-1.000000000000000048e-04,-2.999999999999999737e-05,6.999999999999999387e-05,-5.000000000000000240e-05,5.000000000000000000e+00,8.000000000000000000e+00
2.202700000000000000e+04,-1.000000000000000048e-04,-1.000000000000000082e-05,-4.000000000000000327e-05,-3.699999999999999947e-04,-1.000000000000000048e-04,-2.999999999999999737e-05,6.999999999999999387e-05,-5.000000000000000240e-05,5.000000000000000000e+00,8.000000000000000000e+00
2.202800000000000000e+04,-1.000000000000000048e-04,-1.000000000000000082e-05,-4.000000000000000327e-05,-3.699999999999999947e-04,-1.000000000000000048e-04,-2.999999999999999737e-05,6.999999999999999387e-05,-5.000000000000000240e-05,5.000000000000000000e+00,8.000000000000000000e+00
2.202900000000000000e+04,-1.600000000000000131e-04,-2.999999999999999737e-05,-8.000000000000000654e-05,-2.799999999999999755e-04,-2.299999999999999799e-04,-8.000000000000000654e-05,-4.000000000000000327e-05,-8.000000000000000654e-05,5.000000000000000000e+00,8.000000000000000000e+00
2.203000000000000000e+04,-1.600000000000000131e-04,-2.999999999999999737e-05,-8.000000000000000654e-05,-2.799999999999999755e-04,-2.299999999999999799e-04,-8.000000000000000654e-05,-4.000000000000000327e-05,-8.000000000000000654e-05,5.000000000000000000e+00,8.000000000000000000e+00
2.203100000000000000e+04,-1.600000000000000131e-04,-2.999999999999999737e-05,-8.000000000000000654e-05,-2.799999999999999755e-04,-2.299999999999999799e-04,-8.000000000000000654e-05,-4.000000000000000327e-05,-8.000000000000000654e-05,5.000000000000000000e+00,8.000000000000000000e+00
2.203200000000000000e+04,-1.600000000000000131e-04,-2.999999999999999737e-05,-8.000000000000000654e-05,-2.799999999999999755e-04,-2.299999999999999799e-04,-8.000000000000000654e-05,-4.000000000000000327e-05,-8.000000000000000654e-05,5.000000000000000000e+00,8.000000000000000000e+00
2.203300000000000000e+04,-1.600000000000000131e-04,-2.999999999999999737e-05,-8.000000000000000654e-05,-2.799999999999999755e-04,-2.299999999999999799e-04,-8.000000000000000654e-05,-4.000000000000000327e-05,-8.000000000000000654e-05,5.000000000000000000e+00,8.000000000000000000e+00
2.203400000000000000e+04,-1.600000000000000131e-04,-2.999999999999999737e-05,-8.000000000000000654e-05,-2.799999999999999755e-04,-2.299999999999999799e-04,-8.000000000000000654e-05,-4.000000000000000327e-05,-8.000000000000000654e-05,5.000000000000000000e+00,8.000000000000000000e+00
2.203500000000000000e+04,-1.600000000000000131e-04,-2.999999999999999737e-05,-8.000000000000000654e-05,-2.799999999999999755e-04,-2.299999999999999799e-04,-8.000000000000000654e-05,-4.000000000000000327e-05,-8.000000000000000654e-05,5.000000000000000000e+00,8.000000000000000000e+00
2.203600000000000000e+04,-1.600000000000000131e-04,-2.999999999999999737e-05,-8.000000000000000654e-05,-2.799999999999999755e-04,-2.299999999999999799e-04,-8.000000000000000654e-05,-4.000000000000000327e-05,-8.000000000000000654e-05,5.000000000000000000e+00,8.000000000000000000e+00
2.203800000000000000e+04,-1.600000000000000131e-04,-2.999999999999999737e-05,-8.000000000000000654e-05,-2.799999999999999755e-04,-2.299999999999999799e-04,-8.000000000000000654e-05,-4.000000000000000327e-05,-8.000000000000000654e-05,5.000000000000000000e+00,8.000000000000000000e+00
2.203900000000000000e+04,-1.600000000000000131e-04,-2.999999999999999737e-05,-8.000000000000000654e-05,-2.799999999999999755e-04,-2.299999999999999799e-04,-8.000000000000000654e-05,-4.000000000000000327e-05,-8.000000000000000654e-05,5.000000000000000000e+00,8.000000000000000000e+00
2.204000000000000000e+04,-1.600000000000000131e-04,-2.999999999999999737e-05,-8.000000000000000654e-05,-2.799999999999999755e-04,-2.299999999999999799e-04,-8.000000000000000654e-05,-4.000000000000000327e-05,-8.000000000000000654e-05,5.000000000000000000e+00,8.000000000000000000e+00
2.204100000000000000e+04,-1.600000000000000131e-04,-2.999999999999999737e-05,-8.000000000000000654e-05,-2.799999999999999755e-04,-2.299999999999999799e-04,-8.000000000000000654e-05,-4.000000000000000327e-05,-8.000000000000000654e-05,5.000000000000000000e+00,8.000000000000000000e+00
2.204200000000000000e+04,-9.000000000000000567e-05,-2.500000000000000052e-04,-4.700000000000000401e-04,-1.100000000000000039e-04,-2.000000000000000164e-05,-3.200000000000000262e-04,-9.000000000000000567e-05,-5.999999999999999474e-05,5.000000000000000000e+00,8.000000000000000000e+00
2.204300000000000000e+04,-9.000000000000000567e-05,-2.500000000000000052e-04,-4.700000000000000401e-04,-1.100000000000000039e-04,-2.000000000000000164e-05,-3.200000000000000262e-04,-9.000000000000000567e-05,-5.999999999999999474e-05,5.000000000000000000e+00,8.000000000000000000e+00
2.204400000000000000e+04,-9.000000000000000567e-05,-2.500000000000000052e-04,-4.700000000000000401e-04,-1.100000000000000039e-04,-2.000000000000000164e-05,-3.200000000000000262e-04,-9.000000000000000567e-05,-5.999999999999999474e-05,5.000000000000000000e+00,8.000000000000000000e+00
2.204500000000000000e+04,-9.000000000000000567e-05,-2.500000000000000052e-04,-4.700000000000000401e-04,-1.100000000000000039e-04,-2.000000000000000164e-05,-3.200000000000000262e-04,-9.000000000000000567e-05,-5.999999999999999474e-05,5.000000000000000000e+00,8.000000000000000000e+00
2.204600000000000000e+04,-9.000000000000000567e-05,-2.500000000000000052e-04,-4.700000000000000401e-04,-1.100000000000000039e-04,-2.000000000000000164e-05,-3.200000000000000262e-04,-9.000000000000000567e-05,-5.999999999999999474e-05,5.000000000000000000e+00,8.000000000000000000e+00
2.204700000000000000e+04,-9.000000000000000567e-05,-2.500000000000000052e-04,-4.700000000000000401e-04,-1.100000000000000039e-04,-2.000000000000000164e-05,-3.200000000000000262e-04,-9.000000000000000567e-05,-5.999999999999999474e-05,5.000000000000000000e+00,8.000000000000000000e+00
2.204800000000000000e+04,-9.000000000000000567e-05,-2.500000000000000052e-04,-4.700000000000000401e-04,-1.100000000000000039e-04,-2.000000000000000164e-05,-3.200000000000000262e-04,-9.000000000000000567e-05,-5.999999999999999474e-05,5.000000000000000000e+00,8.000000000000000000e+00
2.204900000000000000e+04,-9.000000000000000567e-05,-2.500000000000000052e-04,-4.700000000000000401e-04,-1.100000000000000039e-04,-2.000000000000000164e-05,-3.200000000000000262e-04,-9.000000000000000567e-05,-5.999999999999999474e-05,5.000000000000000000e+00,8.000000000000000000e+00
2.205000000000000000e+04,1.000000000000000048e-04,4.000000000000000327e-05,1.800000000000000113e-04,-2.500000000000000052e-04,-5.200000000000000629e-04,-6.199999999999999999e-04,6.999999999999999387e-05,6.999999999999999387e-05,5.000000000000000000e+00,8.000000000000000000e+00
2.205100000000000000e+04,1.000000000000000048e-04,4.000000000000000327e-05,1.800000000000000113e-04,-2.500000000000000052e-04,-5.200000000000000629e-04,-6.199999999999999999e-04,6.999999999999999387e-05,6.999999999999999387e-05,5.000000000000000000e+00,8.000000000000000000e+00
2.205200000000000000e+04,1.000000000000000048e-04,4.000000000000000327e-05,1.800000000000000113e-04,-2.500000000000000052e-04,-5.200000000000000629e-04,-6.199999999999999999e-04,6.999999999999999387e-05,6.999999999999999387e-05,5.000000000000000000e+00,8.000000000000000000e+00
2.205300000000000000e+04,1.000000000000000048e-04,4.000000000000000327e-05,1.800000000000000113e-04,-2.500000000000000052e-04,-5.200000000000000629e-04,-6.199999999999999999e-04,6.999999999999999387e-05,6.999999999999999387e-05,5.000000000000000000e+00,8.000000000000000000e+00
2.205400000000000000e+04,1.000000000000000048e-04,4.000000000000000327e-05,1.800000000000000113e-04,-2.500000000000000052e-04,-5.200000000000000629e-04,-6.199999999999999999e-04,6.999999999999999387e-05,6.999999999999999387e-05,5.000000000000000000e+00,8.000000000000000000e+00
2.205500000000000000e+04,1.000000000000000048e-04,4.000000000000000327e-05,1.800000000000000113e-04,-2.500000000000000052e-04,-5.200000000000000629e-04,-6.199999999999999999e-04,6.999999999999999387e-05,6.999999999999999387e-05,5.000000000000000000e+00,8.000000000000000000e+00
2.205600000000000000e+04,1.000000000000000048e-04,4.000000000000000327e-05,1.800000000000000113e-04,-2.500000000000000052e-04,-5.200000000000000629e-04,-6.199999999999999999e-04,6.999999999999999387e-05,6.999999999999999387e-05,5.000000000000000000e+00,8.000000000000000000e+00
2.205700000000000000e+04,1.000000000000000048e-04,4.000000000000000327e-05,1.800000000000000113e-04,-2.500000000000000052e-04,-5.200000000000000629e-04,-6.199999999999999999e-04,6.999999999999999387e-05,6.999999999999999387e-05,5.000000000000000000e+00,8.000000000000000000e+00
2.205800000000000000e+04,1.000000000000000048e-04,4.000000000000000327e-05,1.800000000000000113e-04,-2.500000000000000052e-04,-5.200000000000000629e-04,-6.199999999999999999e-04,6.999999999999999387e-05,6.999999999999999387e-05,5.000000000000000000e+00,8.000000000000000000e+00
2.205900000000000000e+04,1.000000000000000048e-04,4.000000000000000327e-05,1.800000000000000113e-04,-2.500000000000000052e-04,-5.200000000000000629e-04,-6.199999999999999999e-04,6.999999999999999387e-05,6.999999999999999387e-05,5.000000000000000000e+00,8.000000000000000000e+00
2.206000000000000000e+04,1.000000000000000048e-04,4.000000000000000327e-05,1.800000000000000113e-04,-2.500000000000000052e-04,-5.200000000000000629e-04,-6.199999999999999999e-04,6.999999999999999387e-05,6.999999999999999387e-05,5.000000000000000000e+00,8.000000000000000000e+00
2.206100000000000000e+04,1.000000000000000048e-04,4.000000000000000327e-05,1.800000000000000113e-04,-2.500000000000000052e-04,-5.200000000000000629e-04,-6.199999999999999999e-04,6.999999999999999387e-05,6.999999999999999387e-05,5.000000000000000000e+00,8.000000000000000000e+00
2.206200000000000000e+04,1.000000000000000048e-04,4.000000000000000327e-05,1.800000000000000113e-04,-2.500000000000000052e-04,-5.200000000000000629e-04,-6.199999999999999999e-04,6.999999999999999387e-05,6.999999999999999387e-05,5.000000000000000000e+00,8.000000000000000000e+00
2.206300000000000000e+04,1.000000000000000048e-04,4.000000000000000327e-05,1.800000000000000113e-04,-2.500000000000000052e-04,-5.200000000000000629e-04,-6.199999999999999999e-04,6.999999999999999387e-05,6.999999999999999387e-05,5.000000000000000000e+00,8.000000000000000000e+00
2.206400000000000000e+04,1.000000000000000048e-04,4.000000000000000327e-05,1.800000000000000113e-04,-2.500000000000000052e-04,-5.200000000000000629e-04,-6.199999999999999999e-04,6.999999999999999387e-05,6.999999999999999387e-05,5.000000000000000000e+00,8.000000000000000000e+00
2.206500000000000000e+04,1.000000000000000048e-04,4.000000000000000327e-05,1.800000000000000113e-04,-2.500000000000000052e-04,-5.200000000000000629e-04,-6.199999999999999999e-04,6.999999999999999387e-05,6.999999999999999387e-05,5.000000000000000000e+00,8.000000000000000000e+00
2.206600000000000000e+04,1.000000000000000048e-04,4.000000000000000327e-05,1.800000000000000113e-04,-2.500000000000000052e-04,-5.200000000000000629e-04,-6.199999999999999999e-04,6.999999999999999387e-05,6.999999999999999387e-05,5.000000000000000000e+00,8.000000000000000000e+00
2.206700000000000000e+04,1.000000000000000048e-04,4.000000000000000327e-05,1.800000000000000113e-04,-2.500000000000000052e-04,-5.200000000000000629e-04,-6.199999999999999999e-04,6.999999999999999387e-05,6.999999999999999387e-05,5.000000000000000000e+00,8.000000000000000000e+00
2.206800000000000000e+04,1.000000000000000048e-04,4.000000000000000327e-05,1.800000000000000113e-04,-2.500000000000000052e-04,-5.200000000000000629e-04,-6.199999999999999999e-04,6.999999999999999387e-05,6.999999999999999387e-05,5.000000000000000000e+00,8.000000000000000000e+00
2.206900000000000000e+04,1.000000000000000048e-04,4.000000000000000327e-05,1.800000000000000113e-04,-2.500000000000000052e-04,-5.200000000000000629e-04,-6.199999999999999999e-04,6.999999999999999387e-05,6.999999999999999387e-05,5.000000000000000000e+00,8.000000000000000000e+00
2.207000000000000000e+04,1.000000000000000048e-04,4.000000000000000327e-05,1.800000000000000113e-04,-2.500000000000000052e-04,-5.200000000000000629e-04,-6.199999999999999999e-04,6.999999999999999387e-05,6.999999999999999387e-05,5.000000000000000000e+00,8.000000000000000000e+00
2.207100000000000000e+04,1.000000000000000048e-04,4.000000000000000327e-05,1.800000000000000113e-04,-2.500000000000000052e-04,-5.200000000000000629e-04,-6.199999999999999999e-04,6.999999999999999387e-05,6.999999999999999387e-05,5.000000000000000000e+00,8.000000000000000000e+00
2.207200000000000000e+04,1.000000000000000048e-04,4.000000000000000327e-05,1.800000000000000113e-04,-2.500000000000000052e-04,-5.200000000000000629e-04,-6.199999999999999999e-04,6.999999999999999387e-05,6.999999999999999387e-05,5.000000000000000000e+00,8.000000000000000000e+00
2.207300000000000000e+04,-5.000000000000000240e-05,-1.000000000000000082e-05,1.300000000000000157e-04,2.900000000000000017e-04,1.300000000000000157e-04,2.299999999999999799e-04,-1.399999999999999877e-04,-2.000000000000000164e-05,5.000000000000000000e+00,8.000000000000000000e+00
2.207400000000000000e+04,1.100000000000000039e-04,1.399999999999999877e-04,1.000000000000000082e-05,9.000000000000000567e-05,8.000000000000000654e-05,2.500000000000000052e-04,6.999999999999999387e-05,8.000000000000000654e-05,5.000000000000000000e+00,8.000000000000000000e+00
2.207500000000000000e+04,1.100000000000000039e-04,1.399999999999999877e-04,1.000000000000000082e-05,9.000000000000000567e-05,8.000000000000000654e-05,2.500000000000000052e-04,6.999999999999999387e-05,8.000000000000000654e-05,5.000000000000000000e+00,8.000000000000000000e+00
2.207600000000000000e+04,1.100000000000000039e-04,1.399999999999999877e-04,1.000000000000000082e-05,9.000000000000000567e-05,8.000000000000000654e-05,2.500000000000000052e-04,6.999999999999999387e-05,8.000000000000000654e-05,5.000000000000000000e+00,8.000000000000000000e+00
2.207700000000000000e+04,1.100000000000000039e-04,1.399999999999999877e-04,1.000000000000000082e-05,9.000000000000000567e-05,8.000000000000000654e-05,2.500000000000000052e-04,6.999999999999999387e-05,8.000000000000000654e-05,5.000000000000000000e+00,8.000000000000000000e+00
2.207800000000000000e+04,1.100000000000000039e-04,1.399999999999999877e-04,1.000000000000000082e-05,9.000000000000000567e-05,8.000000000000000654e-05,2.500000000000000052e-04,6.999999999999999387e-05,8.000000000000000654e-05,5.000000000000000000e+00,8.000000000000000000e+00
2.207900000000000000e+04,1.100000000000000039e-04,1.399999999999999877e-04,1.000000000000000082e-05,9.000000000000000567e-05,8.000000000000000654e-05,2.500000000000000052e-04,6.999999999999999387e-05,8.000000000000000654e-05,5.000000000000000000e+00,8.000000000000000000e+00
2.208000000000000000e+04,1.100000000000000039e-04,1.399999999999999877e-04,1.000000000000000082e-05,9.000000000000000567e-05,8.000000000000000654e-05,2.500000000000000052e-04,6.999999999999999387e-05,8.000000000000000654e-05,5.000000000000000000e+00,8.000000000000000000e+00
2.208100000000000000e+04,1.100000000000000039e-04,1.399999999999999877e-04,1.000000000000000082e-05,9.000000000000000567e-05,8.000000000000000654e-05,2.500000000000000052e-04,6.999999999999999387e-05,8.000000000000000654e-05,5.000000000000000000e+00,8.000000000000000000e+00
2.208200000000000000e+04,1.100000000000000039e-04,1.399999999999999877e-04,1.000000000000000082e-05,9.000000000000000567e-05,8.000000000000000654e-05,2.500000000000000052e-04,6.999999999999999387e-05,8.000000000000000654e-05,5.000000000000000000e+00,8.000000000000000000e+00
2.208300000000000000e+04,1.100000000000000039e-04,1.399999999999999877e-04,1.000000000000000082e-05,9.000000000000000567e-05,8.000000000000000654e-05,2.500000000000000052e-04,6.999999999999999387e-05,8.000000000000000654e-05,5.000000000000000000e+00,8.000000000000000000e+00
2.208400000000000000e+04,1.100000000000000039e-04,1.399999999999999877e-04,1.000000000000000082e-05,9.000000000000000567e-05,8.000000000000000654e-05,2.500000000000000052e-04,6.999999999999999387e-05,8.000000000000000654e-05,5.000000000000000000e+00,8.000000000000000000e+00
2.208500000000000000e+04,1.100000000000000039e-04,1.399999999999999877e-04,1.000000000000000082e-05,9.000000000000000567e-05,8.000000000000000654e-05,2.500000000000000052e-04,6.999999999999999387e-05,8.000000000000000654e-05,5.000000000000000000e+00,8.000000000000000000e+00
2.208600000000000000e+04,1.100000000000000039e-04,1.399999999999999877e-04,1.000000000000000082e-05,9.000000000000000567e-05,8.000000000000000654e-05,2.500000000000000052e-04,6.999999999999999387e-05,8.000000000000000654e-05,5.000000000000000000e+00,8.000000000000000000e+00
2.208900000000000000e+04,1.000000000000000048e-04,1.699999999999999851e-04,-4.000000000000000327e-05,-6.099999999999999737e-04,-5.099999999999999282e-04,2.999999999999999737e-05,-1.399999999999999877e-04,0.000000000000000000e+00,5.000000000000000000e+00,8.000000000000000000e+00
2.209000000000000000e+04,1.000000000000000048e-04,1.699999999999999851e-04,-4.000000000000000327e-05,-6.099999999999999737e-04,-5.099999999999999282e-04,2.999999999999999737e-05,-1.399999999999999877e-04,0.000000000000000000e+00,5.000000000000000000e+00,8.000000000000000000e+00
2.209100000000000000e+04,1.000000000000000048e-04,1.699999999999999851e-04,-4.000000000000000327e-05,-6.099999999999999737e-04,-5.099999999999999282e-04,2.999999999999999737e-05,-1.399999999999999877e-04,0.000000000000000000e+00,5.000000000000000000e+00,8.000000000000000000e+00
2.209200000000000000e+04,1.000000000000000048e-04,1.699999999999999851e-04,-4.000000000000000327e-05,-6.099999999999999737e-04,-5.099999999999999282e-04,2.999999999999999737e-05,-1.399999999999999877e-04,0.000000000000000000e+00,5.000000000000000000e+00,8.000000000000000000e+00
2.209300000000000000e+04,1.000000000000000048e-04,1.699999999999999851e-04,-4.000000000000000327e-05,-6.099999999999999737e-04,-5.099999999999999282e-04,2.999999999999999737e-05,-1.399999999999999877e-04,0.000000000000000000e+00,5.000000000000000000e+00,8.000000000000000000e+00
2.209400000000000000e+04,1.000000000000000048e-04,1.699999999999999851e-04,-4.000000000000000327e-05,-6.099999999999999737e-04,-5.099999999999999282e-04,2.999999999999999737e-05,-1.399999999999999877e-04,0.000000000000000000e+00,5.000000000000000000e+00,8.000000000000000000e+00
2.209500000000000000e+04,1.000000000000000048e-04,1.699999999999999851e-04,-4.000000000000000327e-05,-6.099999999999999737e-04,-5.099999999999999282e-04,2.999999999999999737e-05,-1.399999999999999877e-04,0.000000000000000000e+00,5.000000000000000000e+00,8.000000000000000000e+00
2.209600000000000000e+04,1.000000000000000048e-04,1.699999999999999851e-04,-4.000000000000000327e-05,-6.099999999999999737e-04,-5.099999999999999282e-04,2.999999999999999737e-05,-1.399999999999999877e-04,0.000000000000000000e+00,5.000000000000000000e+00,8.000000000000000000e+00
2.209700000000000000e+04,1.000000000000000048e-04,1.699999999999999851e-04,-4.000000000000000327e-05,-6.099999999999999737e-04,-5.099999999999999282e-04,2.999999999999999737e-05,-1.399999999999999877e-04,0.000000000000000000e+00,5.000000000000000000e+00,8.000000000000000000e+00
2.209800000000000000e+04,1.000000000000000048e-04,1.699999999999999851e-04,-4.000000000000000327e-05,-6.099999999999999737e-04,-5.099999999999999282e-04,2.999999999999999737e-05,-1.399999999999999877e-04,0.000000000000000000e+00,5.000000000000000000e+00,8.000000000000000000e+00
2.209900000000000000e+04,1.000000000000000048e-04,1.699999999999999851e-04,-4.000000000000000327e-05,-6.099999999999999737e-04,-5.099999999999999282e-04,2.999999999999999737e-05,-1.399999999999999877e-04,0.000000000000000000e+00,5.000000000000000000e+00,8.000000000000000000e+00
2.210000000000000000e+04,1.000000000000000048e-04,1.699999999999999851e-04,-4.000000000000000327e-05,-6.099999999999999737e-04,-5.099999999999999282e-04,2.999999999999999737e-05,-1.399999999999999877e-04,0.000000000000000000e+00,5.000000000000000000e+00,8.000000000000000000e+00
2.210100000000000000e+04,1.000000000000000048e-04,1.699999999999999851e-04,-4.000000000000000327e-05,-6.099999999999999737e-04,-5.099999999999999282e-04,2.999999999999999737e-05,-1.399999999999999877e-04,0.000000000000000000e+00,5.000000000000000000e+00,8.000000000000000000e+00
2.210200000000000000e+04,0.000000000000000000e+00,1.399999999999999877e-04,2.100000000000000087e-04,8.099999999999999561e-04,2.000000000000000164e-05,2.399999999999999790e-04,5.000000000000000240e-05,2.999999999999999737e-05,5.000000000000000000e+00,8.000000000000000000e+00
2.210300000000000000e+04,0.000000000000000000e+00,1.399999999999999877e-04,2.100000000000000087e-04,8.099999999999999561e-04,2.000000000000000164e-05,2.399999999999999790e-04,5.000000000000000240e-05,2.999999999999999737e-05,5.000000000000000000e+00,8.000000000000000000e+00
2.210400000000000000e+04,0.000000000000000000e+00,1.399999999999999877e-04,2.100000000000000087e-04,8.099999999999999561e-04,2.000000000000000164e-05,2.399999999999999790e-04,5.000000000000000240e-05,2.999999999999999737e-05,5.000000000000000000e+00,8.000000000000000000e+00
2.210500000000000000e+04,0.000000000000000000e+00,1.399999999999999877e-04,2.100000000000000087e-04,8.099999999999999561e-04,2.000000000000000164e-05,2.399999999999999790e-04,5.000000000000000240e-05,2.999999999999999737e-05,5.000000000000000000e+00,8.000000000000000000e+00
2.210600000000000000e+04,0.000000000000000000e+00,1.399999999999999877e-04,2.100000000000000087e-04,8.099999999999999561e-04,2.000000000000000164e-05,2.399999999999999790e-04,5.000000000000000240e-05,2.999999999999999737e-05,5.000000000000000000e+00,8.000000000000000000e+00
2.210700000000000000e+04,0.000000000000000000e+00,1.399999999999999877e-04,2.100000000000000087e-04,8.099999999999999561e-04,2.000000000000000164e-05,2.399999999999999790e-04,5.000000000000000240e-05,2.999999999999999737e-05,5.000000000000000000e+00,8.000000000000000000e+00
2.210800000000000000e+04,0.000000000000000000e+00,1.399999999999999877e-04,2.100000000000000087e-04,8.099999999999999561e-04,2.000000000000000164e-05,2.399999999999999790e-04,5.000000000000000240e-05,2.999999999999999737e-05,5.000000000000000000e+00,8.000000000000000000e+00
2.210900000000000000e+04,0.000000000000000000e+00,1.399999999999999877e-04,2.100000000000000087e-04,8.099999999999999561e-04,2.000000000000000164e-05,2.399999999999999790e-04,5.000000000000000240e-05,2.999999999999999737e-05,5.000000000000000000e+00,8.000000000000000000e+00
2.211000000000000000e+04,-2.000000000000000096e-04,-2.999999999999999737e-04,-3.099999999999999999e-04,-3.200000000000000262e-04,-4.700000000000000401e-04,9.000000000000000567e-05,-2.999999999999999737e-05,-1.000000000000000048e-04,5.000000000000000000e+00,8.000000000000000000e+00
2.211100000000000000e+04,-2.000000000000000096e-04,-2.999999999999999737e-04,-3.099999999999999999e-04,-3.200000000000000262e-04,-4.700000000000000401e-04,9.000000000000000567e-05,-2.999999999999999737e-05,-1.000000000000000048e-04,5.000000000000000000e+00,8.000000000000000000e+00
2.211200000000000000e+04,-2.000000000000000096e-04,-2.999999999999999737e-04,-3.099999999999999999e-04,-3.200000000000000262e-04,-4.700000000000000401e-04,9.000000000000000567e-05,-2.999999999999999737e-05,-1.000000000000000048e-04,5.000000000000000000e+00,8.000000000000000000e+00
2.211300000000000000e+04,-2.000000000000000096e-04,-2.999999999999999737e-04,-3.099999999999999999e-04,-3.200000000000000262e-04,-4.700000000000000401e-04,9.000000000000000567e-05,-2.999999999999999737e-05,-1.000000000000000048e-04,5.000000000000000000e+00,8.000000000000000000e+00
2.211400000000000000e+04,-2.000000000000000096e-04,-2.999999999999999737e-04,-3.099999999999999999e-04,-3.200000000000000262e-04,-4.700000000000000401e-04,9.000000000000000567e-05,-2.999999999999999737e-05,-1.000000000000000048e-04,5.000000000000000000e+00,8.000000000000000000e+00
2.211500000000000000e+04,-2.000000000000000096e-04,-2.999999999999999737e-04,-3.099999999999999999e-04,-3.200000000000000262e-04,-4.700000000000000401e-04,9.000000000000000567e-05,-2.999999999999999737e-05,-1.000000000000000048e-04,5.000000000000000000e+00,8.000000000000000000e+00
2.211600000000000000e+04,-2.000000000000000096e-04,-2.999999999999999737e-04,-3.099999999999999999e-04,-3.200000000000000262e-04,-4.700000000000000401e-04,9.000000000000000567e-05,-2.999999999999999737e-05,-1.000000000000000048e-04,5.000000000000000000e+00,8.000000000000000000e+00
2.211700000000000000e+04,-2.000000000000000096e-04,-2.999999999999999737e-04,-3.099999999999999999e-04,-3.200000000000000262e-04,-4.700000000000000401e-04,9.000000000000000567e-05,-2.999999999999999737e-05,-1.000000000000000048e-04,5.000000000000000000e+00,8.000000000000000000e+00
2.211800000000000000e+04,-2.000000000000000096e-04,-2.999999999999999737e-04,-3.099999999999999999e-04,-3.200000000000000262e-04,-4.700000000000000401e-04,9.000000000000000567e-05,-2.999999999999999737e-05,-1.000000000000000048e-04,5.000000000000000000e+00,8.000000000000000000e+00
2.211900000000000000e+04,-2.000000000000000096e-04,-2.999999999999999737e-04,-3.099999999999999999e-04,-3.200000000000000262e-04,-4.700000000000000401e-04,9.000000000000000567e-05,-2.999999999999999737e-05,-1.000000000000000048e-04,5.000000000000000000e+00,8.000000000000000000e+00
2.212000000000000000e+04,-2.000000000000000096e-04,-2.999999999999999737e-04,-3.099999999999999999e-04,-3.200000000000000262e-04,-4.700000000000000401e-04,9.000000000000000567e-05,-2.999999999999999737e-05,-1.000000000000000048e-04,5.000000000000000000e+00,8.000000000000000000e+00
2.212100000000000000e+04,-2.000000000000000096e-04,-2.999999999999999737e-04,-3.099999999999999999e-04,-3.200000000000000262e-04,-4.700000000000000401e-04,9.000000000000000567e-05,-2.999999999999999737e-05,-1.000000000000000048e-04,5.000000000000000000e+00,8.000000000000000000e+00
2.212200000000000000e+04,-2.000000000000000096e-04,-2.999999999999999737e-04,-3.099999999999999999e-04,-3.200000000000000262e-04,-4.700000000000000401e-04,9.000000000000000567e-05,-2.999999999999999737e-05,-1.000000000000000048e-04,5.000000000000000000e+00,8.000000000000000000e+00
2.212300000000000000e+04,-2.000000000000000096e-04,-2.999999999999999737e-04,-3.099999999999999999e-04,-3.200000000000000262e-04,-4.700000000000000401e-04,9.000000000000000567e-05,-2.999999999999999737e-05,-1.000000000000000048e-04,5.000000000000000000e+00,8.000000000000000000e+00
2.212400000000000000e+04,-2.000000000000000096e-04,-2.999999999999999737e-04,-3.099999999999999999e-04,-3.200000000000000262e-04,-4.700000000000000401e-04,9.000000000000000567e-05,-2.999999999999999737e-05,-1.000000000000000048e-04,5.000000000000000000e+00,8.000000000000000000e+00
2.212500000000000000e+04,0.000000000000000000e+00,-5.999999999999999474e-05,-5.599999999999999509e-04,-5.599999999999999509e-04,1.199999999999999895e-04,2.100000000000000087e-04,-6.999999999999999387e-05,-1.000000000000000082e-05,5.000000000000000000e+00,8.000000000000000000e+00
2.212600000000000000e+04,5.999999999999999474e-05,1.800000000000000113e-04,3.899999999999999929e-04,4.599999999999999597e-04,2.600000000000000314e-04,5.000000000000000240e-05,0.000000000000000000e+00,1.000000000000000082e-05,5.000000000000000000e+00,8.000000000000000000e+00
2.212700000000000000e+04,5.999999999999999474e-05,1.800000000000000113e-04,3.899999999999999929e-04,4.599999999999999597e-04,2.600000000000000314e-04,5.000000000000000240e-05,0.000000000000000000e+00,1.000000000000000082e-05,5.000000000000000000e+00,8.000000000000000000e+00
2.212800000000000000e+04,5.999999999999999474e-05,1.800000000000000113e-04,3.899999999999999929e-04,4.599999999999999597e-04,2.600000000000000314e-04,5.000000000000000240e-05,0.000000000000000000e+00,1.000000000000000082e-05,5.000000000000000000e+00,8.000000000000000000e+00
2.212900000000000000e+04,5.999999999999999474e-05,1.800000000000000113e-04,3.899999999999999929e-04,4.599999999999999597e-04,2.600000000000000314e-04,5.000000000000000240e-05,0.000000000000000000e+00,1.000000000000000082e-05,5.000000000000000000e+00,8.000000000000000000e+00
2.213000000000000000e+04,5.999999999999999474e-05,1.800000000000000113e-04,3.899999999999999929e-04,4.599999999999999597e-04,2.600000000000000314e-04,5.000000000000000240e-05,0.000000000000000000e+00,1.000000000000000082e-05,5.000000000000000000e+00,8.000000000000000000e+00
2.213100000000000000e+04,5.999999999999999474e-05,1.800000000000000113e-04,3.899999999999999929e-04,4.599999999999999597e-04,2.600000000000000314e-04,5.000000000000000240e-05,0.000000000000000000e+00,1.000000000000000082e-05,5.000000000000000000e+00,8.000000000000000000e+00
2.213200000000000000e+04,5.999999999999999474e-05,1.800000000000000113e-04,3.899999999999999929e-04,4.599999999999999597e-04,2.600000000000000314e-04,5.000000000000000240e-05,0.000000000000000000e+00,1.000000000000000082e-05,5.000000000000000000e+00,8.000000000000000000e+00
2.213300000000000000e+04,5.999999999999999474e-05,1.800000000000000113e-04,3.899999999999999929e-04,4.599999999999999597e-04,2.600000000000000314e-04,5.000000000000000240e-05,0.000000000000000000e+00,1.000000000000000082e-05,5.000000000000000000e+00,8.000000000000000000e+00
2.213400000000000000e+04,5.999999999999999474e-05,1.800000000000000113e-04,3.899999999999999929e-04,4.599999999999999597e-04,2.600000000000000314e-04,5.000000000000000240e-05,0.000000000000000000e+00,1.000000000000000082e-05,5.000000000000000000e+00,8.000000000000000000e+00
2.213500000000000000e+04,5.999999999999999474e-05,1.800000000000000113e-04,3.899999999999999929e-04,4.599999999999999597e-04,2.600000000000000314e-04,5.000000000000000240e-05,0.000000000000000000e+00,1.000000000000000082e-05,5.000000000000000000e+00,8.000000000000000000e+00
2.213600000000000000e+04,5.999999999999999474e-05,1.800000000000000113e-04,3.899999999999999929e-04,4.599999999999999597e-04,2.600000000000000314e-04,5.000000000000000240e-05,0.000000000000000000e+00,1.000000000000000082e-05,5.000000000000000000e+00,8.000000000000000000e+00
2.213800000000000000e+04,5.999999999999999474e-05,1.800000000000000113e-04,3.899999999999999929e-04,4.599999999999999597e-04,2.600000000000000314e-04,5.000000000000000240e-05,0.000000000000000000e+00,1.000000000000000082e-05,5.000000000000000000e+00,8.000000000000000000e+00
2.213900000000000000e+04,5.999999999999999474e-05,1.800000000000000113e-04,3.899999999999999929e-04,4.599999999999999597e-04,2.600000000000000314e-04,5.000000000000000240e-05,0.000000000000000000e+00,1.000000000000000082e-05,5.000000000000000000e+00,8.000000000000000000e+00
2.214000000000000000e+04,5.999999999999999474e-05,1.800000000000000113e-04,3.899999999999999929e-04,4.599999999999999597e-04,2.600000000000000314e-04,5.000000000000000240e-05,0.000000000000000000e+00,1.000000000000000082e-05,5.000000000000000000e+00,8.000000000000000000e+00
2.214200000000000000e+04,5.999999999999999474e-05,1.800000000000000113e-04,3.899999999999999929e-04,4.599999999999999597e-04,2.600000000000000314e-04,5.000000000000000240e-05,0.000000000000000000e+00,1.000000000000000082e-05,5.000000000000000000e+00,8.000000000000000000e+00
2.214300000000000000e+04,5.999999999999999474e-05,1.800000000000000113e-04,3.899999999999999929e-04,4.599999999999999597e-04,2.600000000000000314e-04,5.000000000000000240e-05,0.000000000000000000e+00,1.000000000000000082e-05,5.000000000000000000e+00,8.000000000000000000e+00
2.214400000000000000e+04,5.999999999999999474e-05,1.800000000000000113e-04,3.899999999999999929e-04,4.599999999999999597e-04,2.600000000000000314e-04,5.000000000000000240e-05,0.000000000000000000e+00,1.000000000000000082e-05,5.000000000000000000e+00,8.000000000000000000e+00
2.214500000000000000e+04,5.999999999999999474e-05,1.800000000000000113e-04,3.899999999999999929e-04,4.599999999999999597e-04,2.600000000000000314e-04,5.000000000000000240e-05,0.000000000000000000e+00,1.000000000000000082e-05,5.000000000000000000e+00,8.000000000000000000e+00
2.214600000000000000e+04,5.999999999999999474e-05,1.800000000000000113e-04,3.899999999999999929e-04,4.599999999999999597e-04,2.600000000000000314e-04,5.000000000000000240e-05,0.000000000000000000e+00,1.000000000000000082e-05,5.000000000000000000e+00,8.000000000000000000e+00
2.214700000000000000e+04,5.999999999999999474e-05,1.800000000000000113e-04,3.899999999999999929e-04,4.599999999999999597e-04,2.600000000000000314e-04,5.000000000000000240e-05,0.000000000000000000e+00,1.000000000000000082e-05,5.000000000000000000e+00,8.000000000000000000e+00
2.214800000000000000e+04,5.999999999999999474e-05,1.800000000000000113e-04,3.899999999999999929e-04,4.599999999999999597e-04,2.600000000000000314e-04,5.000000000000000240e-05,0.000000000000000000e+00,1.000000000000000082e-05,5.000000000000000000e+00,8.000000000000000000e+00
2.214900000000000000e+04,-5.999999999999999474e-05,-1.499999999999999869e-04,5.000000000000000240e-05,-4.000000000000000327e-05,-1.499999999999999869e-04,5.000000000000000240e-05,5.999999999999999474e-05,-2.999999999999999737e-05,5.000000000000000000e+00,8.000000000000000000e+00
2.215000000000000000e+04,5.000000000000000240e-05,1.100000000000000039e-04,4.700000000000000401e-04,9.599999999999999159e-04,3.299999999999999982e-04,9.000000000000000567e-05,5.000000000000000240e-05,5.000000000000000240e-05,5.000000000000000000e+00,8.000000000000000000e+00
2.215100000000000000e+04,5.000000000000000240e-05,1.100000000000000039e-04,4.700000000000000401e-04,9.599999999999999159e-04,3.299999999999999982e-04,9.000000000000000567e-05,5.000000000000000240e-05,5.000000000000000240e-05,5.000000000000000000e+00,8.000000000000000000e+00
2.215200000000000000e+04,5.000000000000000240e-05,1.100000000000000039e-04,4.700000000000000401e-04,9.599999999999999159e-04,3.299999999999999982e-04,9.000000000000000567e-05,5.000000000000000240e-05,5.000000000000000240e-05,5.000000000000000000e+00,8.000000000000000000e+00
2.215300000000000000e+04,5.000000000000000240e-05,1.100000000000000039e-04,4.700000000000000401e-04,9.599999999999999159e-04,3.299999999999999982e-04,9.000000000000000567e-05,5.000000000000000240e-05,5.000000000000000240e-05,5.000000000000000000e+00,8.000000000000000000e+00
2.215400000000000000e+04,5.000000000000000240e-05,1.100000000000000039e-04,4.700000000000000401e-04,9.599999999999999159e-04,3.299999999999999982e-04,9.000000000000000567e-05,5.000000000000000240e-05,5.000000000000000240e-05,5.000000000000000000e+00,8.000000000000000000e+00
2.215500000000000000e+04,5.000000000000000240e-05,1.100000000000000039e-04,4.700000000000000401e-04,9.599999999999999159e-04,3.299999999999999982e-04,9.000000000000000567e-05,5.000000000000000240e-05,5.000000000000000240e-05,5.000000000000000000e+00,8.000000000000000000e+00
2.215600000000000000e+04,5.000000000000000240e-05,1.100000000000000039e-04,4.700000000000000401e-04,9.599999999999999159e-04,3.299999999999999982e-04,9.000000000000000567e-05,5.000000000000000240e-05,5.000000000000000240e-05,5.000000000000000000e+00,8.000000000000000000e+00
2.215700000000000000e+04,5.000000000000000240e-05,1.100000000000000039e-04,4.700000000000000401e-04,9.599999999999999159e-04,3.299999999999999982e-04,9.000000000000000567e-05,5.000000000000000240e-05,5.000000000000000240e-05,5.000000000000000000e+00,8.000000000000000000e+00
2.215800000000000000e+04,5.000000000000000240e-05,1.100000000000000039e-04,4.700000000000000401e-04,9.599999999999999159e-04,3.299999999999999982e-04,9.000000000000000567e-05,5.000000000000000240e-05,5.000000000000000240e-05,5.000000000000000000e+00,8.000000000000000000e+00
2.215900000000000000e+04,5.000000000000000240e-05,1.100000000000000039e-04,4.700000000000000401e-04,9.599999999999999159e-04,3.299999999999999982e-04,9.000000000000000567e-05,5.000000000000000240e-05,5.000000000000000240e-05,5.000000000000000000e+00,8.000000000000000000e+00
2.216000000000000000e+04,5.000000000000000240e-05,1.100000000000000039e-04,4.700000000000000401e-04,9.599999999999999159e-04,3.299999999999999982e-04,9.000000000000000567e-05,5.000000000000000240e-05,5.000000000000000240e-05,5.000000000000000000e+00,8.000000000000000000e+00
2.216100000000000000e+04,5.000000000000000240e-05,1.100000000000000039e-04,4.700000000000000401e-04,9.599999999999999159e-04,3.299999999999999982e-04,9.000000000000000567e-05,5.000000000000000240e-05,5.000000000000000240e-05,5.000000000000000000e+00,8.000000000000000000e+00
2.216200000000000000e+04,5.000000000000000240e-05,1.100000000000000039e-04,4.700000000000000401e-04,9.599999999999999159e-04,3.299999999999999982e-04,9.000000000000000567e-05,5.000000000000000240e-05,5.000000000000000240e-05,5.000000000000000000e+00,8.000000000000000000e+00
2.216300000000000000e+04,5.000000000000000240e-05,1.100000000000000039e-04,4.700000000000000401e-04,9.599999999999999159e-04,3.299999999999999982e-04,9.000000000000000567e-05,5.000000000000000240e-05,5.000000000000000240e-05,5.000000000000000000e+00,8.000000000000000000e+00
2.216400000000000000e+04,5.000000000000000240e-05,1.100000000000000039e-04,4.700000000000000401e-04,9.599999999999999159e-04,3.299999999999999982e-04,9.000000000000000567e-05,5.000000000000000240e-05,5.000000000000000240e-05,5.000000000000000000e+00,8.000000000000000000e+00
2.216500000000000000e+04,5.000000000000000240e-05,1.100000000000000039e-04,4.700000000000000401e-04,9.599999999999999159e-04,3.299999999999999982e-04,9.000000000000000567e-05,5.000000000000000240e-05,5.000000000000000240e-05,5.000000000000000000e+00,8.000000000000000000e+00
2.216600000000000000e+04,5.000000000000000240e-05,1.100000000000000039e-04,4.700000000000000401e-04,9.599999999999999159e-04,3.299999999999999982e-04,9.000000000000000567e-05,5.000000000000000240e-05,5.000000000000000240e-05,5.000000000000000000e+00,8.000000000000000000e+00
2.216700000000000000e+04,5.000000000000000240e-05,1.100000000000000039e-04,4.700000000000000401e-04,9.599999999999999159e-04,3.299999999999999982e-04,9.000000000000000567e-05,5.000000000000000240e-05,5.000000000000000240e-05,5.000000000000000000e+00,8.000000000000000000e+00
2.216800000000000000e+04,5.000000000000000240e-05,1.100000000000000039e-04,4.700000000000000401e-04,9.599999999999999159e-04,3.299999999999999982e-04,9.000000000000000567e-05,5.000000000000000240e-05,5.000000000000000240e-05,5.000000000000000000e+00,8.000000000000000000e+00
2.216900000000000000e+04,5.000000000000000240e-05,1.100000000000000039e-04,4.700000000000000401e-04,9.599999999999999159e-04,3.299999999999999982e-04,9.000000000000000567e-05,5.000000000000000240e-05,5.000000000000000240e-05,5.000000000000000000e+00,8.000000000000000000e+00
2.217000000000000000e+04,5.000000000000000240e-05,1.100000000000000039e-04,4.700000000000000401e-04,9.599999999999999159e-04,3.299999999999999982e-04,9.000000000000000567e-05,5.000000000000000240e-05,5.000000000000000240e-05,5.000000000000000000e+00,8.000000000000000000e+00
2.217100000000000000e+04,2.999999999999999737e-05,1.800000000000000113e-04,2.399999999999999790e-04,4.400000000000000157e-04,2.000000000000000096e-04,4.000000000000000327e-05,-6.999999999999999387e-05,-1.000000000000000082e-05,5.000000000000000000e+00,8.000000000000000000e+00
2.217200000000000000e+04,4.000000000000000327e-05,2.000000000000000164e-05,0.000000000000000000e+00,2.700000000000000035e-04,6.599999999999999964e-04,5.999999999999999474e-05,1.800000000000000113e-04,6.999999999999999387e-05,5.000000000000000000e+00,8.000000000000000000e+00
2.217300000000000000e+04,4.000000000000000327e-05,2.000000000000000164e-05,0.000000000000000000e+00,2.700000000000000035e-04,6.599999999999999964e-04,5.999999999999999474e-05,1.800000000000000113e-04,6.999999999999999387e-05,5.000000000000000000e+00,8.000000000000000000e+00
2.217400000000000000e+04,4.000000000000000327e-05,2.000000000000000164e-05,0.000000000000000000e+00,2.700000000000000035e-04,6.599999999999999964e-04,5.999999999999999474e-05,1.800000000000000113e-04,6.999999999999999387e-05,5.000000000000000000e+00,8.000000000000000000e+00
2.217500000000000000e+04,4.000000000000000327e-05,2.000000000000000164e-05,0.000000000000000000e+00,2.700000000000000035e-04,6.599999999999999964e-04,5.999999999999999474e-05,1.800000000000000113e-04,6.999999999999999387e-05,5.000000000000000000e+00,8.000000000000000000e+00
2.217600000000000000e+04,4.000000000000000327e-05,2.000000000000000164e-05,0.000000000000000000e+00,2.700000000000000035e-04,6.599999999999999964e-04,5.999999999999999474e-05,1.800000000000000113e-04,6.999999999999999387e-05,5.000000000000000000e+00,8.000000000000000000e+00
2.217700000000000000e+04,4.000000000000000327e-05,2.000000000000000164e-05,0.000000000000000000e+00,2.700000000000000035e-04,6.599999999999999964e-04,5.999999999999999474e-05,1.800000000000000113e-04,6.999999999999999387e-05,5.000000000000000000e+00,8.000000000000000000e+00
2.217800000000000000e+04,4.000000000000000327e-05,2.000000000000000164e-05,0.000000000000000000e+00,2.700000000000000035e-04,6.599999999999999964e-04,5.999999999999999474e-05,1.800000000000000113e-04,6.999999999999999387e-05,5.000000000000000000e+00,8.000000000000000000e+00
2.217900000000000000e+04,4.000000000000000327e-05,2.000000000000000164e-05,0.000000000000000000e+00,2.700000000000000035e-04,6.599999999999999964e-04,5.999999999999999474e-05,1.800000000000000113e-04,6.999999999999999387e-05,5.000000000000000000e+00,8.000000000000000000e+00
2.218000000000000000e+04,4.000000000000000327e-05,2.000000000000000164e-05,0.000000000000000000e+00,2.700000000000000035e-04,6.599999999999999964e-04,5.999999999999999474e-05,1.800000000000000113e-04,6.999999999999999387e-05,5.000000000000000000e+00,8.000000000000000000e+00
2.218100000000000000e+04,4.000000000000000327e-05,2.000000000000000164e-05,0.000000000000000000e+00,2.700000000000000035e-04,6.599999999999999964e-04,5.999999999999999474e-05,1.800000000000000113e-04,6.999999999999999387e-05,5.000000000000000000e+00,8.000000000000000000e+00
2.218200000000000000e+04,4.000000000000000327e-05,2.000000000000000164e-05,0.000000000000000000e+00,2.700000000000000035e-04,6.599999999999999964e-04,5.999999999999999474e-05,1.800000000000000113e-04,6.999999999999999387e-05,5.000000000000000000e+00,8.000000000000000000e+00
2.218300000000000000e+04,4.000000000000000327e-05,2.000000000000000164e-05,0.000000000000000000e+00,2.700000000000000035e-04,6.599999999999999964e-04,5.999999999999999474e-05,1.800000000000000113e-04,6.999999999999999387e-05,5.000000000000000000e+00,8.000000000000000000e+00
2.218400000000000000e+04,4.000000000000000327e-05,2.000000000000000164e-05,0.000000000000000000e+00,2.700000000000000035e-04,6.599999999999999964e-04,5.999999999999999474e-05,1.800000000000000113e-04,6.999999999999999387e-05,5.000000000000000000e+00,8.000000000000000000e+00
2.218500000000000000e+04,-5.999999999999999474e-05,0.000000000000000000e+00,-5.000000000000000240e-05,3.899999999999999929e-04,-1.399999999999999877e-04,-4.000000000000000327e-05,-1.399999999999999877e-04,-1.199999999999999895e-04,5.000000000000000000e+00,8.000000000000000000e+00
2.218600000000000000e+04,1.000000000000000048e-04,9.000000000000000567e-05,6.999999999999999387e-05,2.000000000000000096e-04,4.299999999999999894e-04,1.899999999999999834e-04,2.000000000000000164e-05,9.000000000000000567e-05,5.000000000000000000e+00,8.000000000000000000e+00
2.219000000000000000e+04,1.000000000000000048e-04,9.000000000000000567e-05,6.999999999999999387e-05,2.000000000000000096e-04,4.299999999999999894e-04,1.899999999999999834e-04,2.000000000000000164e-05,9.000000000000000567e-05,5.000000000000000000e+00,8.000000000000000000e+00
2.219100000000000000e+04,1.000000000000000048e-04,9.000000000000000567e-05,6.999999999999999387e-05,2.000000000000000096e-04,4.299999999999999894e-04,1.899999999999999834e-04,2.000000000000000164e-05,9.000000000000000567e-05,5.000000000000000000e+00,8.000000000000000000e+00
2.219200000000000000e+04,1.000000000000000048e-04,9.000000000000000567e-05,6.999999999999999387e-05,2.000000000000000096e-04,4.299999999999999894e-04,1.899999999999999834e-04,2.000000000000000164e-05,9.000000000000000567e-05,5.000000000000000000e+00,8.000000000000000000e+00
2.219400000000000000e+04,1.000000000000000048e-04,9.000000000000000567e-05,6.999999999999999387e-05,2.000000000000000096e-04,4.299999999999999894e-04,1.899999999999999834e-04,2.000000000000000164e-05,9.000000000000000567e-05,5.000000000000000000e+00,8.000000000000000000e+00
2.219500000000000000e+04,1.000000000000000048e-04,9.000000000000000567e-05,6.999999999999999387e-05,2.000000000000000096e-04,4.299999999999999894e-04,1.899999999999999834e-04,2.000000000000000164e-05,9.000000000000000567e-05,5.000000000000000000e+00,8.000000000000000000e+00
2.219600000000000000e+04,1.000000000000000048e-04,9.000000000000000567e-05,6.999999999999999387e-05,2.000000000000000096e-04,4.299999999999999894e-04,1.899999999999999834e-04,2.000000000000000164e-05,9.000000000000000567e-05,5.000000000000000000e+00,8.000000000000000000e+00
2.219700000000000000e+04,1.000000000000000048e-04,9.000000000000000567e-05,6.999999999999999387e-05,2.000000000000000096e-04,4.299999999999999894e-04,1.899999999999999834e-04,2.000000000000000164e-05,9.000000000000000567e-05,5.000000000000000000e+00,8.000000000000000000e+00
2.219800000000000000e+04,1.000000000000000048e-04,9.000000000000000567e-05,6.999999999999999387e-05,2.000000000000000096e-04,4.299999999999999894e-04,1.899999999999999834e-04,2.000000000000000164e-05,9.000000000000000567e-05,5.000000000000000000e+00,8.000000000000000000e+00
2.219900000000000000e+04,1.000000000000000048e-04,9.000000000000000567e-05,6.999999999999999387e-05,2.000000000000000096e-04,4.299999999999999894e-04,1.899999999999999834e-04,2.000000000000000164e-05,9.000000000000000567e-05,5.000000000000000000e+00,8.000000000000000000e+00
2.220000000000000000e+04,1.000000000000000048e-04,9.000000000000000567e-05,6.999999999999999387e-05,2.000000000000000096e-04,4.299999999999999894e-04,1.899999999999999834e-04,2.000000000000000164e-05,9.000000000000000567e-05,5.000000000000000000e+00,8.000000000000000000e+00
2.220100000000000000e+04,1.000000000000000048e-04,9.000000000000000567e-05,6.999999999999999387e-05,2.000000000000000096e-04,4.299999999999999894e-04,1.899999999999999834e-04,2.000000000000000164e-05,9.000000000000000567e-05,5.000000000000000000e+00,8.000000000000000000e+00
2.220300000000000000e+04,1.000000000000000048e-04,9.000000000000000567e-05,6.999999999999999387e-05,2.000000000000000096e-04,4.299999999999999894e-04,1.899999999999999834e-04,2.000000000000000164e-05,9.000000000000000567e-05,5.000000000000000000e+00,8.000000000000000000e+00
2.220400000000000000e+04,1.000000000000000048e-04,9.000000000000000567e-05,6.999999999999999387e-05,2.000000000000000096e-04,4.299999999999999894e-04,1.899999999999999834e-04,2.000000000000000164e-05,9.000000000000000567e-05,5.000000000000000000e+00,8.000000000000000000e+00
2.220500000000000000e+04,1.000000000000000048e-04,9.000000000000000567e-05,6.999999999999999387e-05,2.000000000000000096e-04,4.299999999999999894e-04,1.899999999999999834e-04,2.000000000000000164e-05,9.000000000000000567e-05,5.000000000000000000e+00,8.000000000000000000e+00
2.220600000000000000e+04,1.000000000000000048e-04,9.000000000000000567e-05,6.999999999999999387e-05,2.000000000000000096e-04,4.299999999999999894e-04,1.899999999999999834e-04,2.000000000000000164e-05,9.000000000000000567e-05,5.000000000000000000e+00,8.000000000000000000e+00
2.220700000000000000e+04,1.000000000000000048e-04,9.000000000000000567e-05,6.999999999999999387e-05,2.000000000000000096e-04,4.299999999999999894e-04,1.899999999999999834e-04,2.000000000000000164e-05,9.000000000000000567e-05,5.000000000000000000e+00,8.000000000000000000e+00
2.220800000000000000e+04,6.999999999999999387e-05,2.100000000000000087e-04,4.200000000000000174e-04,5.999999999999999474e-05,-1.399999999999999877e-04,-8.000000000000000654e-05,-6.999999999999999387e-05,1.000000000000000082e-05,5.000000000000000000e+00,8.000000000000000000e+00
2.220900000000000000e+04,4.000000000000000327e-05,-1.199999999999999895e-04,2.000000000000000096e-04,1.499999999999999869e-04,-2.700000000000000035e-04,2.000000000000000164e-05,-2.999999999999999737e-05,9.000000000000000567e-05,5.000000000000000000e+00,8.000000000000000000e+00
2.221000000000000000e+04,4.000000000000000327e-05,-1.199999999999999895e-04,2.000000000000000096e-04,1.499999999999999869e-04,-2.700000000000000035e-04,2.000000000000000164e-05,-2.999999999999999737e-05,9.000000000000000567e-05,5.000000000000000000e+00,8.000000000000000000e+00
2.221100000000000000e+04,4.000000000000000327e-05,-1.199999999999999895e-04,2.000000000000000096e-04,1.499999999999999869e-04,-2.700000000000000035e-04,2.000000000000000164e-05,-2.999999999999999737e-05,9.000000000000000567e-05,5.000000000000000000e+00,8.000000000000000000e+00
2.221200000000000000e+04,4.000000000000000327e-05,-1.199999999999999895e-04,2.000000000000000096e-04,1.499999999999999869e-04,-2.700000000000000035e-04,2.000000000000000164e-05,-2.999999999999999737e-05,9.000000000000000567e-05,5.000000000000000000e+00,8.000000000000000000e+00
2.221300000000000000e+04,4.000000000000000327e-05,-1.199999999999999895e-04,2.000000000000000096e-04,1.499999999999999869e-04,-2.700000000000000035e-04,2.000000000000000164e-05,-2.999999999999999737e-05,9.000000000000000567e-05,5.000000000000000000e+00,8.000000000000000000e+00
2.221400000000000000e+04,4.000000000000000327e-05,-1.199999999999999895e-04,2.000000000000000096e-04,1.499999999999999869e-04,-2.700000000000000035e-04,2.000000000000000164e-05,-2.999999999999999737e-05,9.000000000000000567e-05,5.000000000000000000e+00,8.000000000000000000e+00
2.221500000000000000e+04,4.000000000000000327e-05,-1.199999999999999895e-04,2.000000000000000096e-04,1.499999999999999869e-04,-2.700000000000000035e-04,2.000000000000000164e-05,-2.999999999999999737e-05,9.000000000000000567e-05,5.000000000000000000e+00,8.000000000000000000e+00
2.221600000000000000e+04,4.000000000000000327e-05,-1.199999999999999895e-04,2.000000000000000096e-04,1.499999999999999869e-04,-2.700000000000000035e-04,2.000000000000000164e-05,-2.999999999999999737e-05,9.000000000000000567e-05,5.000000000000000000e+00,8.000000000000000000e+00
2.221700000000000000e+04,4.000000000000000327e-05,-1.199999999999999895e-04,2.000000000000000096e-04,1.499999999999999869e-04,-2.700000000000000035e-04,2.000000000000000164e-05,-2.999999999999999737e-05,9.000000000000000567e-05,5.000000000000000000e+00,8.000000000000000000e+00
2.221800000000000000e+04,4.000000000000000327e-05,-1.199999999999999895e-04,2.000000000000000096e-04,1.499999999999999869e-04,-2.700000000000000035e-04,2.000000000000000164e-05,-2.999999999999999737e-05,9.000000000000000567e-05,5.000000000000000000e+00,8.000000000000000000e+00
2.221900000000000000e+04,4.000000000000000327e-05,-1.199999999999999895e-04,2.000000000000000096e-04,1.499999999999999869e-04,-2.700000000000000035e-04,2.000000000000000164e-05,-2.999999999999999737e-05,9.000000000000000567e-05,5.000000000000000000e+00,8.000000000000000000e+00
2.222000000000000000e+04,4.000000000000000327e-05,-1.199999999999999895e-04,2.000000000000000096e-04,1.499999999999999869e-04,-2.700000000000000035e-04,2.000000000000000164e-05,-2.999999999999999737e-05,9.000000000000000567e-05,5.000000000000000000e+00,8.000000000000000000e+00
2.222100000000000000e+04,4.000000000000000327e-05,-1.199999999999999895e-04,2.000000000000000096e-04,1.499999999999999869e-04,-2.700000000000000035e-04,2.000000000000000164e-05,-2.999999999999999737e-05,9.000000000000000567e-05,5.000000000000000000e+00,8.000000000000000000e+00
2.222200000000000000e+04,4.000000000000000327e-05,-1.199999999999999895e-04,2.000000000000000096e-04,1.499999999999999869e-04,-2.700000000000000035e-04,2.000000000000000164e-05,-2.999999999999999737e-05,9.000000000000000567e-05,5.000000000000000000e+00,8.000000000000000000e+00
2.222300000000000000e+04,4.000000000000000327e-05,-1.199999999999999895e-04,2.000000000000000096e-04,1.499999999999999869e-04,-2.700000000000000035e-04,2.000000000000000164e-05,-2.999999999999999737e-05,9.000000000000000567e-05,5.000000000000000000e+00,8.000000000000000000e+00
2.222400000000000000e+04,4.000000000000000327e-05,-1.199999999999999895e-04,2.000000000000000096e-04,1.499999999999999869e-04,-2.700000000000000035e-04,2.000000000000000164e-05,-2.999999999999999737e-05,9.000000000000000567e-05,5.000000000000000000e+00,8.000000000000000000e+00
2.222500000000000000e+04,4.000000000000000327e-05,-1.199999999999999895e-04,2.000000000000000096e-04,1.499999999999999869e-04,-2.700000000000000035e-04,2.000000000000000164e-05,-2.999999999999999737e-05,9.000000000000000567e-05,5.000000000000000000e+00,8.000000000000000000e+00
2.222600000000000000e+04,4.000000000000000327e-05,-1.199999999999999895e-04,2.000000000000000096e-04,1.499999999999999869e-04,-2.700000000000000035e-04,2.000000000000000164e-05,-2.999999999999999737e-05,9.000000000000000567e-05,5.000000000000000000e+00,8.000000000000000000e+00
2.222700000000000000e+04,4.000000000000000327e-05,-1.199999999999999895e-04,2.000000000000000096e-04,1.499999999999999869e-04,-2.700000000000000035e-04,2.000000000000000164e-05,-2.999999999999999737e-05,9.000000000000000567e-05,5.000000000000000000e+00,8.000000000000000000e+00
2.222800000000000000e+04,4.000000000000000327e-05,-1.199999999999999895e-04,2.000000000000000096e-04,1.499999999999999869e-04,-2.700000000000000035e-04,2.000000000000000164e-05,-2.999999999999999737e-05,9.000000000000000567e-05,5.000000000000000000e+00,8.000000000000000000e+00
2.222900000000000000e+04,4.000000000000000327e-05,-1.199999999999999895e-04,2.000000000000000096e-04,1.499999999999999869e-04,-2.700000000000000035e-04,2.000000000000000164e-05,-2.999999999999999737e-05,9.000000000000000567e-05,5.000000000000000000e+00,8.000000000000000000e+00
2.223000000000000000e+04,4.000000000000000327e-05,-1.199999999999999895e-04,2.000000000000000096e-04,1.499999999999999869e-04,-2.700000000000000035e-04,2.000000000000000164e-05,-2.999999999999999737e-05,9.000000000000000567e-05,5.000000000000000000e+00,8.000000000000000000e+00
2.223100000000000000e+04,9.000000000000000567e-05,2.299999999999999799e-04,1.899999999999999834e-04,-1.899999999999999834e-04,-6.999999999999999387e-05,-2.200000000000000078e-04,1.000000000000000082e-05,-1.000000000000000082e-05,5.000000000000000000e+00,8.000000000000000000e+00
2.223200000000000000e+04,-1.100000000000000039e-04,-2.000000000000000096e-04,-1.800000000000000113e-04,-3.200000000000000262e-04,-1.100000000000000039e-04,2.000000000000000164e-05,5.000000000000000240e-05,-8.000000000000000654e-05,5.000000000000000000e+00,8.000000000000000000e+00
2.223300000000000000e+04,-1.100000000000000039e-04,-2.000000000000000096e-04,-1.800000000000000113e-04,-3.200000000000000262e-04,-1.100000000000000039e-04,2.000000000000000164e-05,5.000000000000000240e-05,-8.000000000000000654e-05,5.000000000000000000e+00,8.000000000000000000e+00
2.223400000000000000e+04,-1.100000000000000039e-04,-2.000000000000000096e-04,-1.800000000000000113e-04,-3.200000000000000262e-04,-1.100000000000000039e-04,2.000000000000000164e-05,5.000000000000000240e-05,-8.000000000000000654e-05,5.000000000000000000e+00,8.000000000000000000e+00
2.223500000000000000e+04,-1.100000000000000039e-04,-2.000000000000000096e-04,-1.800000000000000113e-04,-3.200000000000000262e-04,-1.100000000000000039e-04,2.000000000000000164e-05,5.000000000000000240e-05,-8.000000000000000654e-05,5.000000000000000000e+00,8.000000000000000000e+00
2.223600000000000000e+04,-1.100000000000000039e-04,-2.000000000000000096e-04,-1.800000000000000113e-04,-3.200000000000000262e-04,-1.100000000000000039e-04,2.000000000000000164e-05,5.000000000000000240e-05,-8.000000000000000654e-05,5.000000000000000000e+00,8.000000000000000000e+00
2.223900000000000000e+04,-1.100000000000000039e-04,-2.000000000000000096e-04,-1.800000000000000113e-04,-3.200000000000000262e-04,-1.100000000000000039e-04,2.000000000000000164e-05,5.000000000000000240e-05,-8.000000000000000654e-05,5.000000000000000000e+00,8.000000000000000000e+00
2.224000000000000000e+04,-1.100000000000000039e-04,-2.000000000000000096e-04,-1.800000000000000113e-04,-3.200000000000000262e-04,-1.100000000000000039e-04,2.000000000000000164e-05,5.000000000000000240e-05,-8.000000000000000654e-05,5.000000000000000000e+00,8.000000000000000000e+00
2.224100000000000000e+04,-1.100000000000000039e-04,-2.000000000000000096e-04,-1.800000000000000113e-04,-3.200000000000000262e-04,-1.100000000000000039e-04,2.000000000000000164e-05,5.000000000000000240e-05,-8.000000000000000654e-05,5.000000000000000000e+00,8.000000000000000000e+00
2.224200000000000000e+04,-1.100000000000000039e-04,-2.000000000000000096e-04,-1.800000000000000113e-04,-3.200000000000000262e-04,-1.100000000000000039e-04,2.000000000000000164e-05,5.000000000000000240e-05,-8.000000000000000654e-05,5.000000000000000000e+00,8.000000000000000000e+00
2.224300000000000000e+04,-1.100000000000000039e-04,-2.000000000000000096e-04,-1.800000000000000113e-04,-3.200000000000000262e-04,-1.100000000000000039e-04,2.000000000000000164e-05,5.000000000000000240e-05,-8.000000000000000654e-05,5.000000000000000000e+00,8.000000000000000000e+00
2.224400000000000000e+04,-1.100000000000000039e-04,-2.000000000000000096e-04,-1.800000000000000113e-04,-3.200000000000000262e-04,-1.100000000000000039e-04,2.000000000000000164e-05,5.000000000000000240e-05,-8.000000000000000654e-05,5.000000000000000000e+00,8.000000000000000000e+00
2.224500000000000000e+04,-1.100000000000000039e-04,-2.000000000000000096e-04,-1.800000000000000113e-04,-3.200000000000000262e-04,-1.100000000000000039e-04,2.000000000000000164e-05,5.000000000000000240e-05,-8.000000000000000654e-05,5.000000000000000000e+00,8.000000000000000000e+00
2.224600000000000000e+04,9.000000000000000567e-05,-8.000000000000000654e-05,-1.399999999999999877e-04,-6.499999999999999702e-04,-2.299999999999999799e-04,-1.000000000000000082e-05,5.000000000000000240e-05,5.000000000000000240e-05,5.000000000000000000e+00,8.000000000000000000e+00
2.224700000000000000e+04,9.000000000000000567e-05,-8.000000000000000654e-05,-1.399999999999999877e-04,-6.499999999999999702e-04,-2.299999999999999799e-04,-1.000000000000000082e-05,5.000000000000000240e-05,5.000000000000000240e-05,5.000000000000000000e+00,8.000000000000000000e+00
2.224800000000000000e+04,9.000000000000000567e-05,-8.000000000000000654e-05,-1.399999999999999877e-04,-6.499999999999999702e-04,-2.299999999999999799e-04,-1.000000000000000082e-05,5.000000000000000240e-05,5.000000000000000240e-05,5.000000000000000000e+00,8.000000000000000000e+00
2.224900000000000000e+04,9.000000000000000567e-05,-8.000000000000000654e-05,-1.399999999999999877e-04,-6.499999999999999702e-04,-2.299999999999999799e-04,-1.000000000000000082e-05,5.000000000000000240e-05,5.000000000000000240e-05,5.000000000000000000e+00,8.000000000000000000e+00
2.225000000000000000e+04,9.000000000000000567e-05,-8.000000000000000654e-05,-1.399999999999999877e-04,-6.499999999999999702e-04,-2.299999999999999799e-04,-1.000000000000000082e-05,5.000000000000000240e-05,5.000000000000000240e-05,5.000000000000000000e+00,8.000000000000000000e+00
2.225100000000000000e+04,9.000000000000000567e-05,-8.000000000000000654e-05,-1.399999999999999877e-04,-6.499999999999999702e-04,-2.299999999999999799e-04,-1.000000000000000082e-05,5.000000000000000240e-05,5.000000000000000240e-05,5.000000000000000000e+00,8.000000000000000000e+00
2.225200000000000000e+04,9.000000000000000567e-05,-8.000000000000000654e-05,-1.399999999999999877e-04,-6.499999999999999702e-04,-2.299999999999999799e-04,-1.000000000000000082e-05,5.000000000000000240e-05,5.000000000000000240e-05,5.000000000000000000e+00,8.000000000000000000e+00
2.225300000000000000e+04,-8.000000000000000654e-05,-9.000000000000000567e-05,-5.200000000000000629e-04,-5.400000000000000069e-04,-3.299999999999999982e-04,0.000000000000000000e+00,4.000000000000000327e-05,-2.999999999999999737e-05,5.000000000000000000e+00,8.000000000000000000e+00
2.225400000000000000e+04,-8.000000000000000654e-05,-9.000000000000000567e-05,-5.200000000000000629e-04,-5.400000000000000069e-04,-3.299999999999999982e-04,0.000000000000000000e+00,4.000000000000000327e-05,-2.999999999999999737e-05,5.000000000000000000e+00,8.000000000000000000e+00
2.225500000000000000e+04,-8.000000000000000654e-05,-9.000000000000000567e-05,-5.200000000000000629e-04,-5.400000000000000069e-04,-3.299999999999999982e-04,0.000000000000000000e+00,4.000000000000000327e-05,-2.999999999999999737e-05,5.000000000000000000e+00,8.000000000000000000e+00
2.225600000000000000e+04,-8.000000000000000654e-05,-9.000000000000000567e-05,-5.200000000000000629e-04,-5.400000000000000069e-04,-3.299999999999999982e-04,0.000000000000000000e+00,4.000000000000000327e-05,-2.999999999999999737e-05,5.000000000000000000e+00,8.000000000000000000e+00
2.225700000000000000e+04,-8.000000000000000654e-05,-9.000000000000000567e-05,-5.200000000000000629e-04,-5.400000000000000069e-04,-3.299999999999999982e-04,0.000000000000000000e+00,4.000000000000000327e-05,-2.999999999999999737e-05,5.000000000000000000e+00,8.000000000000000000e+00
2.225800000000000000e+04,-8.000000000000000654e-05,-9.000000000000000567e-05,-5.200000000000000629e-04,-5.400000000000000069e-04,-3.299999999999999982e-04,0.000000000000000000e+00,4.000000000000000327e-05,-2.999999999999999737e-05,5.000000000000000000e+00,8.000000000000000000e+00
2.225900000000000000e+04,-8.000000000000000654e-05,-9.000000000000000567e-05,-5.200000000000000629e-04,-5.400000000000000069e-04,-3.299999999999999982e-04,0.000000000000000000e+00,4.000000000000000327e-05,-2.999999999999999737e-05,5.000000000000000000e+00,8.000000000000000000e+00
2.226000000000000000e+04,-8.000000000000000654e-05,-9.000000000000000567e-05,-5.200000000000000629e-04,-5.400000000000000069e-04,-3.299999999999999982e-04,0.000000000000000000e+00,4.000000000000000327e-05,-2.999999999999999737e-05,5.000000000000000000e+00,8.000000000000000000e+00
2.226100000000000000e+04,-8.000000000000000654e-05,-9.000000000000000567e-05,-5.200000000000000629e-04,-5.400000000000000069e-04,-3.299999999999999982e-04,0.000000000000000000e+00,4.000000000000000327e-05,-2.999999999999999737e-05,5.000000000000000000e+00,8.000000000000000000e+00
2.226200000000000000e+04,-8.000000000000000654e-05,-9.000000000000000567e-05,-5.200000000000000629e-04,-5.400000000000000069e-04,-3.299999999999999982e-04,0.000000000000000000e+00,4.000000000000000327e-05,-2.999999999999999737e-05,5.000000000000000000e+00,8.000000000000000000e+00
2.226300000000000000e+04,-8.000000000000000654e-05,-9.000000000000000567e-05,-5.200000000000000629e-04,-5.400000000000000069e-04,-3.299999999999999982e-04,0.000000000000000000e+00,4.000000000000000327e-05,-2.999999999999999737e-05,5.000000000000000000e+00,8.000000000000000000e+00
2.226400000000000000e+04,-8.000000000000000654e-05,-9.000000000000000567e-05,-5.200000000000000629e-04,-5.400000000000000069e-04,-3.299999999999999982e-04,0.000000000000000000e+00,4.000000000000000327e-05,-2.999999999999999737e-05,5.000000000000000000e+00,8.000000000000000000e+00
2.226500000000000000e+04,-8.000000000000000654e-05,-9.000000000000000567e-05,-5.200000000000000629e-04,-5.400000000000000069e-04,-3.299999999999999982e-04,0.000000000000000000e+00,4.000000000000000327e-05,-2.999999999999999737e-05,5.000000000000000000e+00,8.000000000000000000e+00
2.226600000000000000e+04,-8.000000000000000654e-05,-9.000000000000000567e-05,-5.200000000000000629e-04,-5.400000000000000069e-04,-3.299999999999999982e-04,0.000000000000000000e+00,4.000000000000000327e-05,-2.999999999999999737e-05,5.000000000000000000e+00,8.000000000000000000e+00
2.226700000000000000e+04,-8.000000000000000654e-05,-9.000000000000000567e-05,-5.200000000000000629e-04,-5.400000000000000069e-04,-3.299999999999999982e-04,0.000000000000000000e+00,4.000000000000000327e-05,-2.999999999999999737e-05,5.000000000000000000e+00,8.000000000000000000e+00
2.226800000000000000e+04,9.000000000000000567e-05,1.699999999999999851e-04,2.200000000000000078e-04,3.499999999999999964e-04,2.299999999999999799e-04,-6.999999999999999387e-05,-2.000000000000000164e-05,-1.000000000000000082e-05,5.000000000000000000e+00,8.000000000000000000e+00
2.226900000000000000e+04,-1.000000000000000082e-05,-1.499999999999999869e-04,-1.600000000000000131e-04,4.899999999999999842e-04,2.900000000000000017e-04,2.000000000000000164e-05,0.000000000000000000e+00,0.000000000000000000e+00,5.000000000000000000e+00,8.000000000000000000e+00
2.227000000000000000e+04,-1.000000000000000082e-05,-1.499999999999999869e-04,-1.600000000000000131e-04,4.899999999999999842e-04,2.900000000000000017e-04,2.000000000000000164e-05,0.000000000000000000e+00,0.000000000000000000e+00,5.000000000000000000e+00,8.000000000000000000e+00
2.227100000000000000e+04,-1.000000000000000082e-05,-1.499999999999999869e-04,-1.600000000000000131e-04,4.899999999999999842e-04,2.900000000000000017e-04,2.000000000000000164e-05,0.000000000000000000e+00,0.000000000000000000e+00,5.000000000000000000e+00,8.000000000000000000e+00
2.227200000000000000e+04,-1.000000000000000082e-05,-1.499999999999999869e-04,-1.600000000000000131e-04,4.899999999999999842e-04,2.900000000000000017e-04,2.000000000000000164e-05,0.000000000000000000e+00,0.000000000000000000e+00,5.000000000000000000e+00,8.000000000000000000e+00
2.227300000000000000e+04,-1.000000000000000082e-05,-1.499999999999999869e-04,-1.600000000000000131e-04,4.899999999999999842e-04,2.900000000000000017e-04,2.000000000000000164e-05,0.000000000000000000e+00,0.000000000000000000e+00,5.000000000000000000e+00,8.000000000000000000e+00
2.227400000000000000e+04,-1.000000000000000082e-05,-1.499999999999999869e-04,-1.600000000000000131e-04,4.899999999999999842e-04,2.900000000000000017e-04,2.000000000000000164e-05,0.000000000000000000e+00,0.000000000000000000e+00,5.000000000000000000e+00,8.000000000000000000e+00
2.227500000000000000e+04,-1.000000000000000082e-05,-1.499999999999999869e-04,-1.600000000000000131e-04,4.899999999999999842e-04,2.900000000000000017e-04,2.000000000000000164e-05,0.000000000000000000e+00,0.000000000000000000e+00,5.000000000000000000e+00,8.000000000000000000e+00
2.227600000000000000e+04,-1.000000000000000082e-05,-1.499999999999999869e-04,-1.600000000000000131e-04,4.899999999999999842e-04,2.900000000000000017e-04,2.000000000000000164e-05,0.000000000000000000e+00,0.000000000000000000e+00,5.000000000000000000e+00,8.000000000000000000e+00
2.227700000000000000e+04,-1.000000000000000082e-05,-1.499999999999999869e-04,-1.600000000000000131e-04,4.899999999999999842e-04,2.900000000000000017e-04,2.000000000000000164e-05,0.000000000000000000e+00,0.000000000000000000e+00,5.000000000000000000e+00,8.000000000000000000e+00
2.227800000000000000e+04,-1.000000000000000082e-05,-1.499999999999999869e-04,-1.600000000000000131e-04,4.899999999999999842e-04,2.900000000000000017e-04,2.000000000000000164e-05,0.000000000000000000e+00,0.000000000000000000e+00,5.000000000000000000e+00,8.000000000000000000e+00
2.227900000000000000e+04,-1.000000000000000082e-05,-1.499999999999999869e-04,-1.600000000000000131e-04,4.899999999999999842e-04,2.900000000000000017e-04,2.000000000000000164e-05,0.000000000000000000e+00,0.000000000000000000e+00,5.000000000000000000e+00,8.000000000000000000e+00
2.228000000000000000e+04,-1.000000000000000082e-05,-1.499999999999999869e-04,-1.600000000000000131e-04,4.899999999999999842e-04,2.900000000000000017e-04,2.000000000000000164e-05,0.000000000000000000e+00,0.000000000000000000e+00,5.000000000000000000e+00,8.000000000000000000e+00
2.228200000000000000e+04,-1.000000000000000082e-05,-1.499999999999999869e-04,-1.600000000000000131e-04,4.899999999999999842e-04,2.900000000000000017e-04,2.000000000000000164e-05,0.000000000000000000e+00,0.000000000000000000e+00,5.000000000000000000e+00,8.000000000000000000e+00
2.228300000000000000e+04,-1.000000000000000082e-05,-1.499999999999999869e-04,-1.600000000000000131e-04,4.899999999999999842e-04,2.900000000000000017e-04,2.000000000000000164e-05,0.000000000000000000e+00,0.000000000000000000e+00,5.000000000000000000e+00,8.000000000000000000e+00
2.228400000000000000e+04,-1.000000000000000082e-05,-1.499999999999999869e-04,-1.600000000000000131e-04,4.899999999999999842e-04,2.900000000000000017e-04,2.000000000000000164e-05,0.000000000000000000e+00,0.000000000000000000e+00,5.000000000000000000e+00,8.000000000000000000e+00
2.228500000000000000e+04,-1.000000000000000082e-05,-1.499999999999999869e-04,-1.600000000000000131e-04,4.899999999999999842e-04,2.900000000000000017e-04,2.000000000000000164e-05,0.000000000000000000e+00,0.000000000000000000e+00,5.000000000000000000e+00,8.000000000000000000e+00
2.228600000000000000e+04,-1.000000000000000082e-05,-1.499999999999999869e-04,-1.600000000000000131e-04,4.899999999999999842e-04,2.900000000000000017e-04,2.000000000000000164e-05,0.000000000000000000e+00,0.000000000000000000e+00,5.000000000000000000e+00,8.000000000000000000e+00
2.228800000000000000e+04,-1.000000000000000082e-05,-1.499999999999999869e-04,-1.600000000000000131e-04,4.899999999999999842e-04,2.900000000000000017e-04,2.000000000000000164e-05,0.000000000000000000e+00,0.000000000000000000e+00,5.000000000000000000e+00,8.000000000000000000e+00
2.229000000000000000e+04,-1.000000000000000082e-05,-1.499999999999999869e-04,-1.600000000000000131e-04,4.899999999999999842e-04,2.900000000000000017e-04,2.000000000000000164e-05,0.000000000000000000e+00,0.000000000000000000e+00,5.000000000000000000e+00,8.000000000000000000e+00
2.229100000000000000e+04,-9.000000000000000567e-05,-1.699999999999999851e-04,-2.999999999999999737e-05,3.299999999999999982e-04,3.299999999999999982e-04,-2.700000000000000035e-04,0.000000000000000000e+00,-2.999999999999999737e-05,5.000000000000000000e+00,8.000000000000000000e+00
2.229200000000000000e+04,1.300000000000000157e-04,3.099999999999999999e-04,5.900000000000000296e-04,6.300000000000000261e-04,3.399999999999999702e-04,1.499999999999999869e-04,-5.000000000000000240e-05,1.000000000000000082e-05,5.000000000000000000e+00,8.000000000000000000e+00
2.229300000000000000e+04,1.300000000000000157e-04,3.099999999999999999e-04,5.900000000000000296e-04,6.300000000000000261e-04,3.399999999999999702e-04,1.499999999999999869e-04,-5.000000000000000240e-05,1.000000000000000082e-05,5.000000000000000000e+00,8.000000000000000000e+00
2.229400000000000000e+04,1.300000000000000157e-04,3.099999999999999999e-04,5.900000000000000296e-04,6.300000000000000261e-04,3.399999999999999702e-04,1.499999999999999869e-04,-5.000000000000000240e-05,1.000000000000000082e-05,5.000000000000000000e+00,8.000000000000000000e+00
2.229500000000000000e+04,1.300000000000000157e-04,3.099999999999999999e-04,5.900000000000000296e-04,6.300000000000000261e-04,3.399999999999999702e-04,1.499999999999999869e-04,-5.000000000000000240e-05,1.000000000000000082e-05,5.000000000000000000e+00,8.000000000000000000e+00
2.229600000000000000e+04,1.300000000000000157e-04,3.099999999999999999e-04,5.900000000000000296e-04,6.300000000000000261e-04,3.399999999999999702e-04,1.499999999999999869e-04,-5.000000000000000240e-05,1.000000000000000082e-05,5.000000000000000000e+00,8.000000000000000000e+00
