5.480000000000000000e+04,5.999999999999999474e-05,-9.000000000000000567e-05,-2.200000000000000078e-04,-5.999999999999999474e-05,-1.300000000000000157e-04,1.800000000000000113e-04,-2.000000000000000164e-05,-9.799999999999999684e-04,6.000000000000000000e+00,2.300000000000000000e+01
5.480100000000000000e+04,5.999999999999999474e-05,-9.000000000000000567e-05,-2.200000000000000078e-04,-5.999999999999999474e-05,-1.300000000000000157e-04,1.800000000000000113e-04,-2.000000000000000164e-05,-9.799999999999999684e-04,6.000000000000000000e+00,2.300000000000000000e+01
5.480200000000000000e+04,5.999999999999999474e-05,-9.000000000000000567e-05,-2.200000000000000078e-04,-5.999999999999999474e-05,-1.300000000000000157e-04,1.800000000000000113e-04,-2.000000000000000164e-05,-9.799999999999999684e-04,6.000000000000000000e+00,2.300000000000000000e+01
5.480300000000000000e+04,5.999999999999999474e-05,-9.000000000000000567e-05,-2.200000000000000078e-04,-5.999999999999999474e-05,-1.300000000000000157e-04,1.800000000000000113e-04,-2.000000000000000164e-05,-9.799999999999999684e-04,6.000000000000000000e+00,2.300000000000000000e+01
5.480400000000000000e+04,5.999999999999999474e-05,-9.000000000000000567e-05,-2.200000000000000078e-04,-5.999999999999999474e-05,-1.300000000000000157e-04,1.800000000000000113e-04,-2.000000000000000164e-05,-9.799999999999999684e-04,6.000000000000000000e+00,2.300000000000000000e+01
5.480500000000000000e+04,5.999999999999999474e-05,-9.000000000000000567e-05,-2.200000000000000078e-04,-5.999999999999999474e-05,-1.300000000000000157e-04,1.800000000000000113e-04,-2.000000000000000164e-05,-9.799999999999999684e-04,6.000000000000000000e+00,2.300000000000000000e+01
5.480600000000000000e+04,5.999999999999999474e-05,-9.000000000000000567e-05,-2.200000000000000078e-04,-5.999999999999999474e-05,-1.300000000000000157e-04,1.800000000000000113e-04,-2.000000000000000164e-05,-9.799999999999999684e-04,6.000000000000000000e+00,2.300000000000000000e+01
5.480700000000000000e+04,5.999999999999999474e-05,-9.000000000000000567e-05,-2.200000000000000078e-04,-5.999999999999999474e-05,-1.300000000000000157e-04,1.800000000000000113e-04,-2.000000000000000164e-05,-9.799999999999999684e-04,6.000000000000000000e+00,2.300000000000000000e+01
5.480800000000000000e+04,5.999999999999999474e-05,-9.000000000000000567e-05,-2.200000000000000078e-04,-5.999999999999999474e-05,-1.300000000000000157e-04,1.800000000000000113e-04,-2.000000000000000164e-05,-9.799999999999999684e-04,6.000000000000000000e+00,2.300000000000000000e+01
5.480900000000000000e+04,5.999999999999999474e-05,-9.000000000000000567e-05,-2.200000000000000078e-04,-5.999999999999999474e-05,-1.300000000000000157e-04,1.800000000000000113e-04,-2.000000000000000164e-05,-9.799999999999999684e-04,6.000000000000000000e+00,2.300000000000000000e+01
5.481000000000000000e+04,5.999999999999999474e-05,-9.000000000000000567e-05,-2.200000000000000078e-04,-5.999999999999999474e-05,-1.300000000000000157e-04,1.800000000000000113e-04,-2.000000000000000164e-05,-9.799999999999999684e-04,6.000000000000000000e+00,2.300000000000000000e+01
5.481100000000000000e+04,5.999999999999999474e-05,-9.000000000000000567e-05,-2.200000000000000078e-04,-5.999999999999999474e-05,-1.300000000000000157e-04,1.800000000000000113e-04,-2.000000000000000164e-05,-9.799999999999999684e-04,6.000000000000000000e+00,2.300000000000000000e+01
5.481200000000000000e+04,5.999999999999999474e-05,-9.000000000000000567e-05,-2.200000000000000078e-04,-5.999999999999999474e-05,-1.300000000000000157e-04,1.800000000000000113e-04,-2.000000000000000164e-05,-9.799999999999999684e-04,6.000000000000000000e+00,2.300000000000000000e+01
5.481300000000000000e+04,5.999999999999999474e-05,-9.000000000000000567e-05,-2.200000000000000078e-04,-5.999999999999999474e-05,-1.300000000000000157e-04,1.800000000000000113e-04,-2.000000000000000164e-05,-9.799999999999999684e-04,6.000000000000000000e+00,2.300000000000000000e+01
5.481400000000000000e+04,5.999999999999999474e-05,-9.000000000000000567e-05,-2.200000000000000078e-04,-5.999999999999999474e-05,-1.300000000000000157e-04,1.800000000000000113e-04,-2.000000000000000164e-05,-9.799999999999999684e-04,6.000000000000000000e+00,2.300000000000000000e+01
5.481500000000000000e+04,5.999999999999999474e-05,-9.000000000000000567e-05,-2.200000000000000078e-04,-5.999999999999999474e-05,-1.300000000000000157e-04,1.800000000000000113e-04,-2.000000000000000164e-05,-9.799999999999999684e-04,6.000000000000000000e+00,2.300000000000000000e+01
5.481600000000000000e+04,5.999999999999999474e-05,-9.000000000000000567e-05,-2.200000000000000078e-04,-5.999999999999999474e-05,-1.300000000000000157e-04,1.800000000000000113e-04,-2.000000000000000164e-05,-9.799999999999999684e-04,6.000000000000000000e+00,2.300000000000000000e+01
5.481700000000000000e+04,-4.400000000000000157e-04,-1.100000000000000039e-04,1.000000000000000082e-05,2.299999999999999799e-04,2.600000000000000314e-04,-2.799999999999999755e-04,-2.700000000000000035e-04,1.499999999999999869e-04,6.000000000000000000e+00,2.300000000000000000e+01
5.481800000000000000e+04,-2.299999999999999799e-04,-5.000000000000000240e-05,-1.899999999999999834e-04,-4.000000000000000327e-05,-5.500000000000000331e-04,-6.700000000000000226e-04,1.800000000000000113e-04,-2.799999999999999755e-04,6.000000000000000000e+00,2.300000000000000000e+01
5.481900000000000000e+04,-2.299999999999999799e-04,-5.000000000000000240e-05,-1.899999999999999834e-04,-4.000000000000000327e-05,-5.500000000000000331e-04,-6.700000000000000226e-04,1.800000000000000113e-04,-2.799999999999999755e-04,6.000000000000000000e+00,2.300000000000000000e+01
5.482000000000000000e+04,-2.299999999999999799e-04,-5.000000000000000240e-05,-1.899999999999999834e-04,-4.000000000000000327e-05,-5.500000000000000331e-04,-6.700000000000000226e-04,1.800000000000000113e-04,-2.799999999999999755e-04,6.000000000000000000e+00,2.300000000000000000e+01
5.482100000000000000e+04,-2.299999999999999799e-04,-5.000000000000000240e-05,-1.899999999999999834e-04,-4.000000000000000327e-05,-5.500000000000000331e-04,-6.700000000000000226e-04,1.800000000000000113e-04,-2.799999999999999755e-04,6.000000000000000000e+00,2.300000000000000000e+01
5.482200000000000000e+04,-2.299999999999999799e-04,-5.000000000000000240e-05,-1.899999999999999834e-04,-4.000000000000000327e-05,-5.500000000000000331e-04,-6.700000000000000226e-04,1.800000000000000113e-04,-2.799999999999999755e-04,6.000000000000000000e+00,2.300000000000000000e+01
5.482300000000000000e+04,-2.299999999999999799e-04,-5.000000000000000240e-05,-1.899999999999999834e-04,-4.000000000000000327e-05,-5.500000000000000331e-04,-6.700000000000000226e-04,1.800000000000000113e-04,-2.799999999999999755e-04,6.000000000000000000e+00,2.300000000000000000e+01
5.482400000000000000e+04,-2.299999999999999799e-04,-5.000000000000000240e-05,-1.899999999999999834e-04,-4.000000000000000327e-05,-5.500000000000000331e-04,-6.700000000000000226e-04,1.800000000000000113e-04,-2.799999999999999755e-04,6.000000000000000000e+00,2.300000000000000000e+01
5.482500000000000000e+04,-2.299999999999999799e-04,-5.000000000000000240e-05,-1.899999999999999834e-04,-4.000000000000000327e-05,-5.500000000000000331e-04,-6.700000000000000226e-04,1.800000000000000113e-04,-2.799999999999999755e-04,6.000000000000000000e+00,2.300000000000000000e+01
5.482600000000000000e+04,-2.299999999999999799e-04,-5.000000000000000240e-05,-1.899999999999999834e-04,-4.000000000000000327e-05,-5.500000000000000331e-04,-6.700000000000000226e-04,1.800000000000000113e-04,-2.799999999999999755e-04,6.000000000000000000e+00,2.300000000000000000e+01
5.482700000000000000e+04,-2.299999999999999799e-04,-5.000000000000000240e-05,-1.899999999999999834e-04,-4.000000000000000327e-05,-5.500000000000000331e-04,-6.700000000000000226e-04,1.800000000000000113e-04,-2.799999999999999755e-04,6.000000000000000000e+00,2.300000000000000000e+01
5.482800000000000000e+04,-2.299999999999999799e-04,-5.000000000000000240e-05,-1.899999999999999834e-04,-4.000000000000000327e-05,-5.500000000000000331e-04,-6.700000000000000226e-04,1.800000000000000113e-04,-2.799999999999999755e-04,6.000000000000000000e+00,2.300000000000000000e+01
5.482900000000000000e+04,-2.299999999999999799e-04,-5.000000000000000240e-05,-1.899999999999999834e-04,-4.000000000000000327e-05,-5.500000000000000331e-04,-6.700000000000000226e-04,1.800000000000000113e-04,-2.799999999999999755e-04,6.000000000000000000e+00,2.300000000000000000e+01
5.483000000000000000e+04,-2.299999999999999799e-04,-5.000000000000000240e-05,-1.899999999999999834e-04,-4.000000000000000327e-05,-5.500000000000000331e-04,-6.700000000000000226e-04,1.800000000000000113e-04,-2.799999999999999755e-04,6.000000000000000000e+00,2.300000000000000000e+01
5.483100000000000000e+04,-2.299999999999999799e-04,-5.000000000000000240e-05,-1.899999999999999834e-04,-4.000000000000000327e-05,-5.500000000000000331e-04,-6.700000000000000226e-04,1.800000000000000113e-04,-2.799999999999999755e-04,6.000000000000000000e+00,2.300000000000000000e+01
5.483200000000000000e+04,-2.299999999999999799e-04,-5.000000000000000240e-05,-1.899999999999999834e-04,-4.000000000000000327e-05,-5.500000000000000331e-04,-6.700000000000000226e-04,1.800000000000000113e-04,-2.799999999999999755e-04,6.000000000000000000e+00,2.300000000000000000e+01
5.483300000000000000e+04,-2.299999999999999799e-04,-5.000000000000000240e-05,-1.899999999999999834e-04,-4.000000000000000327e-05,-5.500000000000000331e-04,-6.700000000000000226e-04,1.800000000000000113e-04,-2.799999999999999755e-04,6.000000000000000000e+00,2.300000000000000000e+01
5.483400000000000000e+04,-2.299999999999999799e-04,-5.000000000000000240e-05,-1.899999999999999834e-04,-4.000000000000000327e-05,-5.500000000000000331e-04,-6.700000000000000226e-04,1.800000000000000113e-04,-2.799999999999999755e-04,6.000000000000000000e+00,2.300000000000000000e+01
5.483500000000000000e+04,-2.299999999999999799e-04,-5.000000000000000240e-05,-1.899999999999999834e-04,-4.000000000000000327e-05,-5.500000000000000331e-04,-6.700000000000000226e-04,1.800000000000000113e-04,-2.799999999999999755e-04,6.000000000000000000e+00,2.300000000000000000e+01
5.483600000000000000e+04,-2.299999999999999799e-04,-5.000000000000000240e-05,-1.899999999999999834e-04,-4.000000000000000327e-05,-5.500000000000000331e-04,-6.700000000000000226e-04,1.800000000000000113e-04,-2.799999999999999755e-04,6.000000000000000000e+00,2.300000000000000000e+01
5.483800000000000000e+04,-2.299999999999999799e-04,-5.000000000000000240e-05,-1.899999999999999834e-04,-4.000000000000000327e-05,-5.500000000000000331e-04,-6.700000000000000226e-04,1.800000000000000113e-04,-2.799999999999999755e-04,6.000000000000000000e+00,2.300000000000000000e+01
5.483900000000000000e+04,-2.299999999999999799e-04,-5.000000000000000240e-05,-1.899999999999999834e-04,-4.000000000000000327e-05,-5.500000000000000331e-04,-6.700000000000000226e-04,1.800000000000000113e-04,-2.799999999999999755e-04,6.000000000000000000e+00,2.300000000000000000e+01
5.484000000000000000e+04,5.800000000000000034e-04,1.499999999999999869e-04,-9.000000000000000567e-05,-2.500000000000000052e-04,-3.799999999999999667e-04,-8.999999999999999754e-04,-8.000000000000000654e-05,1.899999999999999834e-04,6.000000000000000000e+00,2.300000000000000000e+01
5.484100000000000000e+04,5.200000000000000629e-04,2.100000000000000087e-04,2.999999999999999737e-05,2.799999999999999755e-04,9.699999999999999421e-04,-4.000000000000000327e-05,0.000000000000000000e+00,2.999999999999999737e-04,6.000000000000000000e+00,2.300000000000000000e+01
5.484200000000000000e+04,5.200000000000000629e-04,2.100000000000000087e-04,2.999999999999999737e-05,2.799999999999999755e-04,9.699999999999999421e-04,-4.000000000000000327e-05,0.000000000000000000e+00,2.999999999999999737e-04,6.000000000000000000e+00,2.300000000000000000e+01
5.484300000000000000e+04,5.200000000000000629e-04,2.100000000000000087e-04,2.999999999999999737e-05,2.799999999999999755e-04,9.699999999999999421e-04,-4.000000000000000327e-05,0.000000000000000000e+00,2.999999999999999737e-04,6.000000000000000000e+00,2.300000000000000000e+01
5.484400000000000000e+04,5.200000000000000629e-04,2.100000000000000087e-04,2.999999999999999737e-05,2.799999999999999755e-04,9.699999999999999421e-04,-4.000000000000000327e-05,0.000000000000000000e+00,2.999999999999999737e-04,6.000000000000000000e+00,2.300000000000000000e+01
5.484500000000000000e+04,5.200000000000000629e-04,2.100000000000000087e-04,2.999999999999999737e-05,2.799999999999999755e-04,9.699999999999999421e-04,-4.000000000000000327e-05,0.000000000000000000e+00,2.999999999999999737e-04,6.000000000000000000e+00,2.300000000000000000e+01
5.484600000000000000e+04,5.200000000000000629e-04,2.100000000000000087e-04,2.999999999999999737e-05,2.799999999999999755e-04,9.699999999999999421e-04,-4.000000000000000327e-05,0.000000000000000000e+00,2.999999999999999737e-04,6.000000000000000000e+00,2.300000000000000000e+01
5.484700000000000000e+04,5.200000000000000629e-04,2.100000000000000087e-04,2.999999999999999737e-05,2.799999999999999755e-04,9.699999999999999421e-04,-4.000000000000000327e-05,0.000000000000000000e+00,2.999999999999999737e-04,6.000000000000000000e+00,2.300000000000000000e+01
5.484800000000000000e+04,5.200000000000000629e-04,2.100000000000000087e-04,2.999999999999999737e-05,2.799999999999999755e-04,9.699999999999999421e-04,-4.000000000000000327e-05,0.000000000000000000e+00,2.999999999999999737e-04,6.000000000000000000e+00,2.300000000000000000e+01
5.484900000000000000e+04,5.200000000000000629e-04,2.100000000000000087e-04,2.999999999999999737e-05,2.799999999999999755e-04,9.699999999999999421e-04,-4.000000000000000327e-05,0.000000000000000000e+00,2.999999999999999737e-04,6.000000000000000000e+00,2.300000000000000000e+01
5.485000000000000000e+04,5.200000000000000629e-04,2.100000000000000087e-04,2.999999999999999737e-05,2.799999999999999755e-04,9.699999999999999421e-04,-4.000000000000000327e-05,0.000000000000000000e+00,2.999999999999999737e-04,6.000000000000000000e+00,2.300000000000000000e+01
5.485100000000000000e+04,5.200000000000000629e-04,2.100000000000000087e-04,2.999999999999999737e-05,2.799999999999999755e-04,9.699999999999999421e-04,-4.000000000000000327e-05,0.000000000000000000e+00,2.999999999999999737e-04,6.000000000000000000e+00,2.300000000000000000e+01
5.485200000000000000e+04,5.200000000000000629e-04,2.100000000000000087e-04,2.999999999999999737e-05,2.799999999999999755e-04,9.699999999999999421e-04,-4.000000000000000327e-05,0.000000000000000000e+00,2.999999999999999737e-04,6.000000000000000000e+00,2.300000000000000000e+01
5.485300000000000000e+04,5.200000000000000629e-04,2.100000000000000087e-04,2.999999999999999737e-05,2.799999999999999755e-04,9.699999999999999421e-04,-4.000000000000000327e-05,0.000000000000000000e+00,2.999999999999999737e-04,6.000000000000000000e+00,2.300000000000000000e+01
5.485400000000000000e+04,5.200000000000000629e-04,2.100000000000000087e-04,2.999999999999999737e-05,2.799999999999999755e-04,9.699999999999999421e-04,-4.000000000000000327e-05,0.000000000000000000e+00,2.999999999999999737e-04,6.000000000000000000e+00,2.300000000000000000e+01
5.485500000000000000e+04,4.899999999999999842e-04,1.800000000000000113e-04,0.000000000000000000e+00,-2.600000000000000314e-04,-1.699999999999999851e-04,1.000000000000000048e-04,2.999999999999999737e-04,8.999999999999999754e-04,6.000000000000000000e+00,2.300000000000000000e+01
5.485600000000000000e+04,-7.200000000000000453e-04,-1.600000000000000131e-04,5.999999999999999474e-05,-3.099999999999999999e-04,-1.399999999999999877e-04,1.600000000000000131e-04,-4.299999999999999894e-04,-8.499999999999999526e-04,6.000000000000000000e+00,2.300000000000000000e+01
5.485700000000000000e+04,-7.200000000000000453e-04,-1.600000000000000131e-04,5.999999999999999474e-05,-3.099999999999999999e-04,-1.399999999999999877e-04,1.600000000000000131e-04,-4.299999999999999894e-04,-8.499999999999999526e-04,6.000000000000000000e+00,2.300000000000000000e+01
5.485800000000000000e+04,-7.200000000000000453e-04,-1.600000000000000131e-04,5.999999999999999474e-05,-3.099999999999999999e-04,-1.399999999999999877e-04,1.600000000000000131e-04,-4.299999999999999894e-04,-8.499999999999999526e-04,6.000000000000000000e+00,2.300000000000000000e+01
5.485900000000000000e+04,-7.200000000000000453e-04,-1.600000000000000131e-04,5.999999999999999474e-05,-3.099999999999999999e-04,-1.399999999999999877e-04,1.600000000000000131e-04,-4.299999999999999894e-04,-8.499999999999999526e-04,6.000000000000000000e+00,2.300000000000000000e+01
5.486000000000000000e+04,-7.200000000000000453e-04,-1.600000000000000131e-04,5.999999999999999474e-05,-3.099999999999999999e-04,-1.399999999999999877e-04,1.600000000000000131e-04,-4.299999999999999894e-04,-8.499999999999999526e-04,6.000000000000000000e+00,2.300000000000000000e+01
5.486100000000000000e+04,-7.200000000000000453e-04,-1.600000000000000131e-04,5.999999999999999474e-05,-3.099999999999999999e-04,-1.399999999999999877e-04,1.600000000000000131e-04,-4.299999999999999894e-04,-8.499999999999999526e-04,6.000000000000000000e+00,2.300000000000000000e+01
5.486200000000000000e+04,-7.200000000000000453e-04,-1.600000000000000131e-04,5.999999999999999474e-05,-3.099999999999999999e-04,-1.399999999999999877e-04,1.600000000000000131e-04,-4.299999999999999894e-04,-8.499999999999999526e-04,6.000000000000000000e+00,2.300000000000000000e+01
5.486300000000000000e+04,-7.200000000000000453e-04,-1.600000000000000131e-04,5.999999999999999474e-05,-3.099999999999999999e-04,-1.399999999999999877e-04,1.600000000000000131e-04,-4.299999999999999894e-04,-8.499999999999999526e-04,6.000000000000000000e+00,2.300000000000000000e+01
5.486400000000000000e+04,-7.200000000000000453e-04,-1.600000000000000131e-04,5.999999999999999474e-05,-3.099999999999999999e-04,-1.399999999999999877e-04,1.600000000000000131e-04,-4.299999999999999894e-04,-8.499999999999999526e-04,6.000000000000000000e+00,2.300000000000000000e+01
5.486500000000000000e+04,-7.200000000000000453e-04,-1.600000000000000131e-04,5.999999999999999474e-05,-3.099999999999999999e-04,-1.399999999999999877e-04,1.600000000000000131e-04,-4.299999999999999894e-04,-8.499999999999999526e-04,6.000000000000000000e+00,2.300000000000000000e+01
5.486600000000000000e+04,-7.200000000000000453e-04,-1.600000000000000131e-04,5.999999999999999474e-05,-3.099999999999999999e-04,-1.399999999999999877e-04,1.600000000000000131e-04,-4.299999999999999894e-04,-8.499999999999999526e-04,6.000000000000000000e+00,2.300000000000000000e+01
5.486700000000000000e+04,-7.200000000000000453e-04,-1.600000000000000131e-04,5.999999999999999474e-05,-3.099999999999999999e-04,-1.399999999999999877e-04,1.600000000000000131e-04,-4.299999999999999894e-04,-8.499999999999999526e-04,6.000000000000000000e+00,2.300000000000000000e+01
5.486800000000000000e+04,-7.200000000000000453e-04,-1.600000000000000131e-04,5.999999999999999474e-05,-3.099999999999999999e-04,-1.399999999999999877e-04,1.600000000000000131e-04,-4.299999999999999894e-04,-8.499999999999999526e-04,6.000000000000000000e+00,2.300000000000000000e+01
5.486900000000000000e+04,-7.200000000000000453e-04,-1.600000000000000131e-04,5.999999999999999474e-05,-3.099999999999999999e-04,-1.399999999999999877e-04,1.600000000000000131e-04,-4.299999999999999894e-04,-8.499999999999999526e-04,6.000000000000000000e+00,2.300000000000000000e+01
5.487000000000000000e+04,-7.200000000000000453e-04,-1.600000000000000131e-04,5.999999999999999474e-05,-3.099999999999999999e-04,-1.399999999999999877e-04,1.600000000000000131e-04,-4.299999999999999894e-04,-8.499999999999999526e-04,6.000000000000000000e+00,2.300000000000000000e+01
5.487100000000000000e+04,-7.200000000000000453e-04,-1.600000000000000131e-04,5.999999999999999474e-05,-3.099999999999999999e-04,-1.399999999999999877e-04,1.600000000000000131e-04,-4.299999999999999894e-04,-8.499999999999999526e-04,6.000000000000000000e+00,2.300000000000000000e+01
5.487200000000000000e+04,-7.200000000000000453e-04,-1.600000000000000131e-04,5.999999999999999474e-05,-3.099999999999999999e-04,-1.399999999999999877e-04,1.600000000000000131e-04,-4.299999999999999894e-04,-8.499999999999999526e-04,6.000000000000000000e+00,2.300000000000000000e+01
5.487300000000000000e+04,-7.200000000000000453e-04,-1.600000000000000131e-04,5.999999999999999474e-05,-3.099999999999999999e-04,-1.399999999999999877e-04,1.600000000000000131e-04,-4.299999999999999894e-04,-8.499999999999999526e-04,6.000000000000000000e+00,2.300000000000000000e+01
5.487400000000000000e+04,-7.200000000000000453e-04,-1.600000000000000131e-04,5.999999999999999474e-05,-3.099999999999999999e-04,-1.399999999999999877e-04,1.600000000000000131e-04,-4.299999999999999894e-04,-8.499999999999999526e-04,6.000000000000000000e+00,2.300000000000000000e+01
5.487500000000000000e+04,-7.200000000000000453e-04,-1.600000000000000131e-04,5.999999999999999474e-05,-3.099999999999999999e-04,-1.399999999999999877e-04,1.600000000000000131e-04,-4.299999999999999894e-04,-8.499999999999999526e-04,6.000000000000000000e+00,2.300000000000000000e+01
5.487600000000000000e+04,-7.200000000000000453e-04,-1.600000000000000131e-04,5.999999999999999474e-05,-3.099999999999999999e-04,-1.399999999999999877e-04,1.600000000000000131e-04,-4.299999999999999894e-04,-8.499999999999999526e-04,6.000000000000000000e+00,2.300000000000000000e+01
5.487700000000000000e+04,4.299999999999999894e-04,-8.000000000000000654e-05,9.000000000000000567e-05,2.999999999999999737e-05,-2.100000000000000087e-04,3.699999999999999947e-04,4.099999999999999912e-04,-2.299999999999999799e-04,6.000000000000000000e+00,2.300000000000000000e+01
5.487800000000000000e+04,6.799999999999999404e-04,2.000000000000000164e-05,2.399999999999999790e-04,2.999999999999999737e-05,-1.000000000000000048e-04,5.900000000000000296e-04,1.000000000000000082e-05,-1.499999999999999869e-04,6.000000000000000000e+00,2.300000000000000000e+01
5.487900000000000000e+04,6.799999999999999404e-04,2.000000000000000164e-05,2.399999999999999790e-04,2.999999999999999737e-05,-1.000000000000000048e-04,5.900000000000000296e-04,1.000000000000000082e-05,-1.499999999999999869e-04,6.000000000000000000e+00,2.300000000000000000e+01
5.488000000000000000e+04,6.799999999999999404e-04,2.000000000000000164e-05,2.399999999999999790e-04,2.999999999999999737e-05,-1.000000000000000048e-04,5.900000000000000296e-04,1.000000000000000082e-05,-1.499999999999999869e-04,6.000000000000000000e+00,2.300000000000000000e+01
5.488100000000000000e+04,6.799999999999999404e-04,2.000000000000000164e-05,2.399999999999999790e-04,2.999999999999999737e-05,-1.000000000000000048e-04,5.900000000000000296e-04,1.000000000000000082e-05,-1.499999999999999869e-04,6.000000000000000000e+00,2.300000000000000000e+01
5.488200000000000000e+04,6.799999999999999404e-04,2.000000000000000164e-05,2.399999999999999790e-04,2.999999999999999737e-05,-1.000000000000000048e-04,5.900000000000000296e-04,1.000000000000000082e-05,-1.499999999999999869e-04,6.000000000000000000e+00,2.300000000000000000e+01
5.488300000000000000e+04,6.799999999999999404e-04,2.000000000000000164e-05,2.399999999999999790e-04,2.999999999999999737e-05,-1.000000000000000048e-04,5.900000000000000296e-04,1.000000000000000082e-05,-1.499999999999999869e-04,6.000000000000000000e+00,2.300000000000000000e+01
5.488400000000000000e+04,6.799999999999999404e-04,2.000000000000000164e-05,2.399999999999999790e-04,2.999999999999999737e-05,-1.000000000000000048e-04,5.900000000000000296e-04,1.000000000000000082e-05,-1.499999999999999869e-04,6.000000000000000000e+00,2.300000000000000000e+01
5.488500000000000000e+04,6.799999999999999404e-04,2.000000000000000164e-05,2.399999999999999790e-04,2.999999999999999737e-05,-1.000000000000000048e-04,5.900000000000000296e-04,1.000000000000000082e-05,-1.499999999999999869e-04,6.000000000000000000e+00,2.300000000000000000e+01
5.488600000000000000e+04,6.799999999999999404e-04,2.000000000000000164e-05,2.399999999999999790e-04,2.999999999999999737e-05,-1.000000000000000048e-04,5.900000000000000296e-04,1.000000000000000082e-05,-1.499999999999999869e-04,6.000000000000000000e+00,2.300000000000000000e+01
5.488700000000000000e+04,6.799999999999999404e-04,2.000000000000000164e-05,2.399999999999999790e-04,2.999999999999999737e-05,-1.000000000000000048e-04,5.900000000000000296e-04,1.000000000000000082e-05,-1.499999999999999869e-04,6.000000000000000000e+00,2.300000000000000000e+01
5.488800000000000000e+04,6.799999999999999404e-04,2.000000000000000164e-05,2.399999999999999790e-04,2.999999999999999737e-05,-1.000000000000000048e-04,5.900000000000000296e-04,1.000000000000000082e-05,-1.499999999999999869e-04,6.000000000000000000e+00,2.300000000000000000e+01
5.488900000000000000e+04,6.799999999999999404e-04,2.000000000000000164e-05,2.399999999999999790e-04,2.999999999999999737e-05,-1.000000000000000048e-04,5.900000000000000296e-04,1.000000000000000082e-05,-1.499999999999999869e-04,6.000000000000000000e+00,2.300000000000000000e+01
5.489000000000000000e+04,6.799999999999999404e-04,2.000000000000000164e-05,2.399999999999999790e-04,2.999999999999999737e-05,-1.000000000000000048e-04,5.900000000000000296e-04,1.000000000000000082e-05,-1.499999999999999869e-04,6.000000000000000000e+00,2.300000000000000000e+01
5.489100000000000000e+04,6.799999999999999404e-04,2.000000000000000164e-05,2.399999999999999790e-04,2.999999999999999737e-05,-1.000000000000000048e-04,5.900000000000000296e-04,1.000000000000000082e-05,-1.499999999999999869e-04,6.000000000000000000e+00,2.300000000000000000e+01
5.489200000000000000e+04,6.799999999999999404e-04,2.000000000000000164e-05,2.399999999999999790e-04,2.999999999999999737e-05,-1.000000000000000048e-04,5.900000000000000296e-04,1.000000000000000082e-05,-1.499999999999999869e-04,6.000000000000000000e+00,2.300000000000000000e+01
5.489300000000000000e+04,6.799999999999999404e-04,2.000000000000000164e-05,2.399999999999999790e-04,2.999999999999999737e-05,-1.000000000000000048e-04,5.900000000000000296e-04,1.000000000000000082e-05,-1.499999999999999869e-04,6.000000000000000000e+00,2.300000000000000000e+01
5.489400000000000000e+04,6.799999999999999404e-04,2.000000000000000164e-05,2.399999999999999790e-04,2.999999999999999737e-05,-1.000000000000000048e-04,5.900000000000000296e-04,1.000000000000000082e-05,-1.499999999999999869e-04,6.000000000000000000e+00,2.300000000000000000e+01
5.489500000000000000e+04,6.799999999999999404e-04,2.000000000000000164e-05,2.399999999999999790e-04,2.999999999999999737e-05,-1.000000000000000048e-04,5.900000000000000296e-04,1.000000000000000082e-05,-1.499999999999999869e-04,6.000000000000000000e+00,2.300000000000000000e+01
5.489600000000000000e+04,6.799999999999999404e-04,2.000000000000000164e-05,2.399999999999999790e-04,2.999999999999999737e-05,-1.000000000000000048e-04,5.900000000000000296e-04,1.000000000000000082e-05,-1.499999999999999869e-04,6.000000000000000000e+00,2.300000000000000000e+01
5.489700000000000000e+04,6.799999999999999404e-04,2.000000000000000164e-05,2.399999999999999790e-04,2.999999999999999737e-05,-1.000000000000000048e-04,5.900000000000000296e-04,1.000000000000000082e-05,-1.499999999999999869e-04,6.000000000000000000e+00,2.300000000000000000e+01
5.489800000000000000e+04,6.799999999999999404e-04,2.000000000000000164e-05,2.399999999999999790e-04,2.999999999999999737e-05,-1.000000000000000048e-04,5.900000000000000296e-04,1.000000000000000082e-05,-1.499999999999999869e-04,6.000000000000000000e+00,2.300000000000000000e+01
5.489900000000000000e+04,6.799999999999999404e-04,2.000000000000000164e-05,2.399999999999999790e-04,2.999999999999999737e-05,-1.000000000000000048e-04,5.900000000000000296e-04,1.000000000000000082e-05,-1.499999999999999869e-04,6.000000000000000000e+00,2.300000000000000000e+01
5.490000000000000000e+04,3.399999999999999702e-04,1.300000000000000157e-04,-6.999999999999999387e-05,2.999999999999999737e-05,-3.200000000000000262e-04,5.500000000000000331e-04,-3.099999999999999999e-04,-2.500000000000000052e-04,6.000000000000000000e+00,2.300000000000000000e+01
5.490100000000000000e+04,1.000000000000000048e-04,-1.399999999999999877e-04,-5.000000000000000240e-05,-1.499999999999999869e-04,-5.400000000000000069e-04,-2.399999999999999790e-04,-2.600000000000000314e-04,1.100000000000000039e-04,6.000000000000000000e+00,2.300000000000000000e+01
5.490200000000000000e+04,1.000000000000000048e-04,-1.399999999999999877e-04,-5.000000000000000240e-05,-1.499999999999999869e-04,-5.400000000000000069e-04,-2.399999999999999790e-04,-2.600000000000000314e-04,1.100000000000000039e-04,6.000000000000000000e+00,2.300000000000000000e+01
5.490300000000000000e+04,1.000000000000000048e-04,-1.399999999999999877e-04,-5.000000000000000240e-05,-1.499999999999999869e-04,-5.400000000000000069e-04,-2.399999999999999790e-04,-2.600000000000000314e-04,1.100000000000000039e-04,6.000000000000000000e+00,2.300000000000000000e+01
5.490400000000000000e+04,1.000000000000000048e-04,-1.399999999999999877e-04,-5.000000000000000240e-05,-1.499999999999999869e-04,-5.400000000000000069e-04,-2.399999999999999790e-04,-2.600000000000000314e-04,1.100000000000000039e-04,6.000000000000000000e+00,2.300000000000000000e+01
5.490500000000000000e+04,1.000000000000000048e-04,-1.399999999999999877e-04,-5.000000000000000240e-05,-1.499999999999999869e-04,-5.400000000000000069e-04,-2.399999999999999790e-04,-2.600000000000000314e-04,1.100000000000000039e-04,6.000000000000000000e+00,2.300000000000000000e+01
5.490600000000000000e+04,1.000000000000000048e-04,-1.399999999999999877e-04,-5.000000000000000240e-05,-1.499999999999999869e-04,-5.400000000000000069e-04,-2.399999999999999790e-04,-2.600000000000000314e-04,1.100000000000000039e-04,6.000000000000000000e+00,2.300000000000000000e+01
5.490700000000000000e+04,1.000000000000000048e-04,-1.399999999999999877e-04,-5.000000000000000240e-05,-1.499999999999999869e-04,-5.400000000000000069e-04,-2.399999999999999790e-04,-2.600000000000000314e-04,1.100000000000000039e-04,6.000000000000000000e+00,2.300000000000000000e+01
5.490800000000000000e+04,1.000000000000000048e-04,-1.399999999999999877e-04,-5.000000000000000240e-05,-1.499999999999999869e-04,-5.400000000000000069e-04,-2.399999999999999790e-04,-2.600000000000000314e-04,1.100000000000000039e-04,6.000000000000000000e+00,2.300000000000000000e+01
5.490900000000000000e+04,1.000000000000000048e-04,-1.399999999999999877e-04,-5.000000000000000240e-05,-1.499999999999999869e-04,-5.400000000000000069e-04,-2.399999999999999790e-04,-2.600000000000000314e-04,1.100000000000000039e-04,6.000000000000000000e+00,2.300000000000000000e+01
5.491000000000000000e+04,1.000000000000000048e-04,-1.399999999999999877e-04,-5.000000000000000240e-05,-1.499999999999999869e-04,-5.400000000000000069e-04,-2.399999999999999790e-04,-2.600000000000000314e-04,1.100000000000000039e-04,6.000000000000000000e+00,2.300000000000000000e+01
5.491100000000000000e+04,1.000000000000000048e-04,-1.399999999999999877e-04,-5.000000000000000240e-05,-1.499999999999999869e-04,-5.400000000000000069e-04,-2.399999999999999790e-04,-2.600000000000000314e-04,1.100000000000000039e-04,6.000000000000000000e+00,2.300000000000000000e+01
5.491200000000000000e+04,1.000000000000000048e-04,-1.399999999999999877e-04,-5.000000000000000240e-05,-1.499999999999999869e-04,-5.400000000000000069e-04,-2.399999999999999790e-04,-2.600000000000000314e-04,1.100000000000000039e-04,6.000000000000000000e+00,2.300000000000000000e+01
5.491300000000000000e+04,1.000000000000000048e-04,-1.399999999999999877e-04,-5.000000000000000240e-05,-1.499999999999999869e-04,-5.400000000000000069e-04,-2.399999999999999790e-04,-2.600000000000000314e-04,1.100000000000000039e-04,6.000000000000000000e+00,2.300000000000000000e+01
5.491400000000000000e+04,1.000000000000000048e-04,-1.399999999999999877e-04,-5.000000000000000240e-05,-1.499999999999999869e-04,-5.400000000000000069e-04,-2.399999999999999790e-04,-2.600000000000000314e-04,1.100000000000000039e-04,6.000000000000000000e+00,2.300000000000000000e+01
5.491500000000000000e+04,-3.499999999999999964e-04,2.000000000000000164e-05,-1.000000000000000082e-05,2.399999999999999790e-04,6.400000000000000524e-04,-4.799999999999999580e-04,-2.000000000000000096e-04,-9.000000000000000567e-05,6.000000000000000000e+00,2.300000000000000000e+01
5.491600000000000000e+04,-3.499999999999999964e-04,2.000000000000000164e-05,-1.000000000000000082e-05,2.399999999999999790e-04,6.400000000000000524e-04,-4.799999999999999580e-04,-2.000000000000000096e-04,-9.000000000000000567e-05,6.000000000000000000e+00,2.300000000000000000e+01
5.491700000000000000e+04,-3.499999999999999964e-04,2.000000000000000164e-05,-1.000000000000000082e-05,2.399999999999999790e-04,6.400000000000000524e-04,-4.799999999999999580e-04,-2.000000000000000096e-04,-9.000000000000000567e-05,6.000000000000000000e+00,2.300000000000000000e+01
5.491800000000000000e+04,-3.499999999999999964e-04,2.000000000000000164e-05,-1.000000000000000082e-05,2.399999999999999790e-04,6.400000000000000524e-04,-4.799999999999999580e-04,-2.000000000000000096e-04,-9.000000000000000567e-05,6.000000000000000000e+00,2.300000000000000000e+01
5.491900000000000000e+04,-3.499999999999999964e-04,2.000000000000000164e-05,-1.000000000000000082e-05,2.399999999999999790e-04,6.400000000000000524e-04,-4.799999999999999580e-04,-2.000000000000000096e-04,-9.000000000000000567e-05,6.000000000000000000e+00,2.300000000000000000e+01
5.492000000000000000e+04,-3.499999999999999964e-04,2.000000000000000164e-05,-1.000000000000000082e-05,2.399999999999999790e-04,6.400000000000000524e-04,-4.799999999999999580e-04,-2.000000000000000096e-04,-9.000000000000000567e-05,6.000000000000000000e+00,2.300000000000000000e+01
5.492100000000000000e+04,-3.499999999999999964e-04,2.000000000000000164e-05,-1.000000000000000082e-05,2.399999999999999790e-04,6.400000000000000524e-04,-4.799999999999999580e-04,-2.000000000000000096e-04,-9.000000000000000567e-05,6.000000000000000000e+00,2.300000000000000000e+01
5.492200000000000000e+04,-3.499999999999999964e-04,2.000000000000000164e-05,-1.000000000000000082e-05,2.399999999999999790e-04,6.400000000000000524e-04,-4.799999999999999580e-04,-2.000000000000000096e-04,-9.000000000000000567e-05,6.000000000000000000e+00,2.300000000000000000e+01
5.492300000000000000e+04,-3.499999999999999964e-04,2.000000000000000164e-05,-1.000000000000000082e-05,2.399999999999999790e-04,6.400000000000000524e-04,-4.799999999999999580e-04,-2.000000000000000096e-04,-9.000000000000000567e-05,6.000000000000000000e+00,2.300000000000000000e+01
5.492400000000000000e+04,-3.499999999999999964e-04,2.000000000000000164e-05,-1.000000000000000082e-05,2.399999999999999790e-04,6.400000000000000524e-04,-4.799999999999999580e-04,-2.000000000000000096e-04,-9.000000000000000567e-05,6.000000000000000000e+00,2.300000000000000000e+01
5.492500000000000000e+04,-3.499999999999999964e-04,2.000000000000000164e-05,-1.000000000000000082e-05,2.399999999999999790e-04,6.400000000000000524e-04,-4.799999999999999580e-04,-2.000000000000000096e-04,-9.000000000000000567e-05,6.000000000000000000e+00,2.300000000000000000e+01
5.492600000000000000e+04,-3.499999999999999964e-04,2.000000000000000164e-05,-1.000000000000000082e-05,2.399999999999999790e-04,6.400000000000000524e-04,-4.799999999999999580e-04,-2.000000000000000096e-04,-9.000000000000000567e-05,6.000000000000000000e+00,2.300000000000000000e+01
5.492700000000000000e+04,-3.499999999999999964e-04,2.000000000000000164e-05,-1.000000000000000082e-05,2.399999999999999790e-04,6.400000000000000524e-04,-4.799999999999999580e-04,-2.000000000000000096e-04,-9.000000000000000567e-05,6.000000000000000000e+00,2.300000000000000000e+01
5.492800000000000000e+04,-3.499999999999999964e-04,2.000000000000000164e-05,-1.000000000000000082e-05,2.399999999999999790e-04,6.400000000000000524e-04,-4.799999999999999580e-04,-2.000000000000000096e-04,-9.000000000000000567e-05,6.000000000000000000e+00,2.300000000000000000e+01
5.492900000000000000e+04,-3.499999999999999964e-04,2.000000000000000164e-05,-1.000000000000000082e-05,2.399999999999999790e-04,6.400000000000000524e-04,-4.799999999999999580e-04,-2.000000000000000096e-04,-9.000000000000000567e-05,6.000000000000000000e+00,2.300000000000000000e+01
5.493000000000000000e+04,-3.499999999999999964e-04,2.000000000000000164e-05,-1.000000000000000082e-05,2.399999999999999790e-04,6.400000000000000524e-04,-4.799999999999999580e-04,-2.000000000000000096e-04,-9.000000000000000567e-05,6.000000000000000000e+00,2.300000000000000000e+01
5.493100000000000000e+04,-3.499999999999999964e-04,2.000000000000000164e-05,-1.000000000000000082e-05,2.399999999999999790e-04,6.400000000000000524e-04,-4.799999999999999580e-04,-2.000000000000000096e-04,-9.000000000000000567e-05,6.000000000000000000e+00,2.300000000000000000e+01
5.493200000000000000e+04,-3.499999999999999964e-04,2.000000000000000164e-05,-1.000000000000000082e-05,2.399999999999999790e-04,6.400000000000000524e-04,-4.799999999999999580e-04,-2.000000000000000096e-04,-9.000000000000000567e-05,6.000000000000000000e+00,2.300000000000000000e+01
5.493300000000000000e+04,-3.499999999999999964e-04,2.000000000000000164e-05,-1.000000000000000082e-05,2.399999999999999790e-04,6.400000000000000524e-04,-4.799999999999999580e-04,-2.000000000000000096e-04,-9.000000000000000567e-05,6.000000000000000000e+00,2.300000000000000000e+01
5.493400000000000000e+04,-3.499999999999999964e-04,2.000000000000000164e-05,-1.000000000000000082e-05,2.399999999999999790e-04,6.400000000000000524e-04,-4.799999999999999580e-04,-2.000000000000000096e-04,-9.000000000000000567e-05,6.000000000000000000e+00,2.300000000000000000e+01
5.493500000000000000e+04,-3.499999999999999964e-04,2.000000000000000164e-05,-1.000000000000000082e-05,2.399999999999999790e-04,6.400000000000000524e-04,-4.799999999999999580e-04,-2.000000000000000096e-04,-9.000000000000000567e-05,6.000000000000000000e+00,2.300000000000000000e+01
5.493600000000000000e+04,-3.499999999999999964e-04,2.000000000000000164e-05,-1.000000000000000082e-05,2.399999999999999790e-04,6.400000000000000524e-04,-4.799999999999999580e-04,-2.000000000000000096e-04,-9.000000000000000567e-05,6.000000000000000000e+00,2.300000000000000000e+01
5.493800000000000000e+04,1.000000000000000048e-04,-1.000000000000000082e-05,-2.000000000000000164e-05,6.999999999999999387e-05,2.399999999999999790e-04,1.000000000000000082e-05,1.899999999999999834e-04,3.600000000000000227e-04,6.000000000000000000e+00,2.300000000000000000e+01
5.493900000000000000e+04,1.000000000000000048e-04,-1.000000000000000082e-05,-2.000000000000000164e-05,6.999999999999999387e-05,2.399999999999999790e-04,1.000000000000000082e-05,1.899999999999999834e-04,3.600000000000000227e-04,6.000000000000000000e+00,2.300000000000000000e+01
5.494000000000000000e+04,1.000000000000000048e-04,-1.000000000000000082e-05,-2.000000000000000164e-05,6.999999999999999387e-05,2.399999999999999790e-04,1.000000000000000082e-05,1.899999999999999834e-04,3.600000000000000227e-04,6.000000000000000000e+00,2.300000000000000000e+01
5.494100000000000000e+04,1.000000000000000048e-04,-1.000000000000000082e-05,-2.000000000000000164e-05,6.999999999999999387e-05,2.399999999999999790e-04,1.000000000000000082e-05,1.899999999999999834e-04,3.600000000000000227e-04,6.000000000000000000e+00,2.300000000000000000e+01
5.494200000000000000e+04,1.000000000000000048e-04,-1.000000000000000082e-05,-2.000000000000000164e-05,6.999999999999999387e-05,2.399999999999999790e-04,1.000000000000000082e-05,1.899999999999999834e-04,3.600000000000000227e-04,6.000000000000000000e+00,2.300000000000000000e+01
5.494300000000000000e+04,1.000000000000000048e-04,-1.000000000000000082e-05,-2.000000000000000164e-05,6.999999999999999387e-05,2.399999999999999790e-04,1.000000000000000082e-05,1.899999999999999834e-04,3.600000000000000227e-04,6.000000000000000000e+00,2.300000000000000000e+01
5.494400000000000000e+04,1.000000000000000048e-04,-1.000000000000000082e-05,-2.000000000000000164e-05,6.999999999999999387e-05,2.399999999999999790e-04,1.000000000000000082e-05,1.899999999999999834e-04,3.600000000000000227e-04,6.000000000000000000e+00,2.300000000000000000e+01
5.494500000000000000e+04,1.000000000000000048e-04,-1.000000000000000082e-05,-2.000000000000000164e-05,6.999999999999999387e-05,2.399999999999999790e-04,1.000000000000000082e-05,1.899999999999999834e-04,3.600000000000000227e-04,6.000000000000000000e+00,2.300000000000000000e+01
5.494600000000000000e+04,1.000000000000000048e-04,-1.000000000000000082e-05,-2.000000000000000164e-05,6.999999999999999387e-05,2.399999999999999790e-04,1.000000000000000082e-05,1.899999999999999834e-04,3.600000000000000227e-04,6.000000000000000000e+00,2.300000000000000000e+01
5.494700000000000000e+04,1.000000000000000048e-04,-1.000000000000000082e-05,-2.000000000000000164e-05,6.999999999999999387e-05,2.399999999999999790e-04,1.000000000000000082e-05,1.899999999999999834e-04,3.600000000000000227e-04,6.000000000000000000e+00,2.300000000000000000e+01
5.494800000000000000e+04,1.000000000000000048e-04,-1.000000000000000082e-05,-2.000000000000000164e-05,6.999999999999999387e-05,2.399999999999999790e-04,1.000000000000000082e-05,1.899999999999999834e-04,3.600000000000000227e-04,6.000000000000000000e+00,2.300000000000000000e+01
5.494900000000000000e+04,1.000000000000000048e-04,-1.000000000000000082e-05,-2.000000000000000164e-05,6.999999999999999387e-05,2.399999999999999790e-04,1.000000000000000082e-05,1.899999999999999834e-04,3.600000000000000227e-04,6.000000000000000000e+00,2.300000000000000000e+01
5.495000000000000000e+04,1.000000000000000048e-04,-1.000000000000000082e-05,-2.000000000000000164e-05,6.999999999999999387e-05,2.399999999999999790e-04,1.000000000000000082e-05,1.899999999999999834e-04,3.600000000000000227e-04,6.000000000000000000e+00,2.300000000000000000e+01
5.495100000000000000e+04,1.000000000000000048e-04,-1.000000000000000082e-05,-2.000000000000000164e-05,6.999999999999999387e-05,2.399999999999999790e-04,1.000000000000000082e-05,1.899999999999999834e-04,3.600000000000000227e-04,6.000000000000000000e+00,2.300000000000000000e+01
5.495200000000000000e+04,1.000000000000000048e-04,-1.000000000000000082e-05,-2.000000000000000164e-05,6.999999999999999387e-05,2.399999999999999790e-04,1.000000000000000082e-05,1.899999999999999834e-04,3.600000000000000227e-04,6.000000000000000000e+00,2.300000000000000000e+01
5.495300000000000000e+04,1.000000000000000048e-04,-1.000000000000000082e-05,-2.000000000000000164e-05,6.999999999999999387e-05,2.399999999999999790e-04,1.000000000000000082e-05,1.899999999999999834e-04,3.600000000000000227e-04,6.000000000000000000e+00,2.300000000000000000e+01
5.495400000000000000e+04,1.000000000000000048e-04,-1.000000000000000082e-05,-2.000000000000000164e-05,6.999999999999999387e-05,2.399999999999999790e-04,1.000000000000000082e-05,1.899999999999999834e-04,3.600000000000000227e-04,6.000000000000000000e+00,2.300000000000000000e+01
5.495500000000000000e+04,1.000000000000000048e-04,-1.000000000000000082e-05,-2.000000000000000164e-05,6.999999999999999387e-05,2.399999999999999790e-04,1.000000000000000082e-05,1.899999999999999834e-04,3.600000000000000227e-04,6.000000000000000000e+00,2.300000000000000000e+01
5.495600000000000000e+04,1.000000000000000048e-04,-1.000000000000000082e-05,-2.000000000000000164e-05,6.999999999999999387e-05,2.399999999999999790e-04,1.000000000000000082e-05,1.899999999999999834e-04,3.600000000000000227e-04,6.000000000000000000e+00,2.300000000000000000e+01
5.495700000000000000e+04,1.000000000000000048e-04,-1.000000000000000082e-05,-2.000000000000000164e-05,6.999999999999999387e-05,2.399999999999999790e-04,1.000000000000000082e-05,1.899999999999999834e-04,3.600000000000000227e-04,6.000000000000000000e+00,2.300000000000000000e+01
5.495800000000000000e+04,1.000000000000000048e-04,-1.000000000000000082e-05,-2.000000000000000164e-05,6.999999999999999387e-05,2.399999999999999790e-04,1.000000000000000082e-05,1.899999999999999834e-04,3.600000000000000227e-04,6.000000000000000000e+00,2.300000000000000000e+01
5.495900000000000000e+04,1.000000000000000048e-04,-1.000000000000000082e-05,-2.000000000000000164e-05,6.999999999999999387e-05,2.399999999999999790e-04,1.000000000000000082e-05,1.899999999999999834e-04,3.600000000000000227e-04,6.000000000000000000e+00,2.300000000000000000e+01
5.496000000000000000e+04,1.899999999999999834e-04,-1.000000000000000082e-05,5.000000000000000240e-05,1.199999999999999895e-04,2.900000000000000017e-04,1.600000000000000131e-04,-1.100000000000000039e-04,-8.000000000000000654e-05,6.000000000000000000e+00,2.300000000000000000e+01
5.496100000000000000e+04,6.999999999999999929e-04,6.999999999999999387e-05,-1.100000000000000039e-04,-3.299999999999999982e-04,-4.599999999999999597e-04,5.000000000000000240e-05,-2.999999999999999737e-05,6.999999999999999387e-05,6.000000000000000000e+00,2.300000000000000000e+01
5.496200000000000000e+04,6.999999999999999929e-04,6.999999999999999387e-05,-1.100000000000000039e-04,-3.299999999999999982e-04,-4.599999999999999597e-04,5.000000000000000240e-05,-2.999999999999999737e-05,6.999999999999999387e-05,6.000000000000000000e+00,2.300000000000000000e+01
5.496300000000000000e+04,6.999999999999999929e-04,6.999999999999999387e-05,-1.100000000000000039e-04,-3.299999999999999982e-04,-4.599999999999999597e-04,5.000000000000000240e-05,-2.999999999999999737e-05,6.999999999999999387e-05,6.000000000000000000e+00,2.300000000000000000e+01
5.496400000000000000e+04,6.999999999999999929e-04,6.999999999999999387e-05,-1.100000000000000039e-04,-3.299999999999999982e-04,-4.599999999999999597e-04,5.000000000000000240e-05,-2.999999999999999737e-05,6.999999999999999387e-05,6.000000000000000000e+00,2.300000000000000000e+01
5.496500000000000000e+04,6.999999999999999929e-04,6.999999999999999387e-05,-1.100000000000000039e-04,-3.299999999999999982e-04,-4.599999999999999597e-04,5.000000000000000240e-05,-2.999999999999999737e-05,6.999999999999999387e-05,6.000000000000000000e+00,2.300000000000000000e+01
5.496600000000000000e+04,6.999999999999999929e-04,6.999999999999999387e-05,-1.100000000000000039e-04,-3.299999999999999982e-04,-4.599999999999999597e-04,5.000000000000000240e-05,-2.999999999999999737e-05,6.999999999999999387e-05,6.000000000000000000e+00,2.300000000000000000e+01
5.496700000000000000e+04,6.999999999999999929e-04,6.999999999999999387e-05,-1.100000000000000039e-04,-3.299999999999999982e-04,-4.599999999999999597e-04,5.000000000000000240e-05,-2.999999999999999737e-05,6.999999999999999387e-05,6.000000000000000000e+00,2.300000000000000000e+01
5.496800000000000000e+04,6.999999999999999929e-04,6.999999999999999387e-05,-1.100000000000000039e-04,-3.299999999999999982e-04,-4.599999999999999597e-04,5.000000000000000240e-05,-2.999999999999999737e-05,6.999999999999999387e-05,6.000000000000000000e+00,2.300000000000000000e+01
5.496900000000000000e+04,6.999999999999999929e-04,6.999999999999999387e-05,-1.100000000000000039e-04,-3.299999999999999982e-04,-4.599999999999999597e-04,5.000000000000000240e-05,-2.999999999999999737e-05,6.999999999999999387e-05,6.000000000000000000e+00,2.300000000000000000e+01
5.497000000000000000e+04,6.999999999999999929e-04,6.999999999999999387e-05,-1.100000000000000039e-04,-3.299999999999999982e-04,-4.599999999999999597e-04,5.000000000000000240e-05,-2.999999999999999737e-05,6.999999999999999387e-05,6.000000000000000000e+00,2.300000000000000000e+01
5.497100000000000000e+04,6.999999999999999929e-04,6.999999999999999387e-05,-1.100000000000000039e-04,-3.299999999999999982e-04,-4.599999999999999597e-04,5.000000000000000240e-05,-2.999999999999999737e-05,6.999999999999999387e-05,6.000000000000000000e+00,2.300000000000000000e+01
5.497200000000000000e+04,6.999999999999999929e-04,6.999999999999999387e-05,-1.100000000000000039e-04,-3.299999999999999982e-04,-4.599999999999999597e-04,5.000000000000000240e-05,-2.999999999999999737e-05,6.999999999999999387e-05,6.000000000000000000e+00,2.300000000000000000e+01
5.497300000000000000e+04,6.999999999999999929e-04,6.999999999999999387e-05,-1.100000000000000039e-04,-3.299999999999999982e-04,-4.599999999999999597e-04,5.000000000000000240e-05,-2.999999999999999737e-05,6.999999999999999387e-05,6.000000000000000000e+00,2.300000000000000000e+01
5.497400000000000000e+04,-2.900000000000000017e-04,-2.000000000000000164e-05,1.600000000000000131e-04,2.299999999999999799e-04,5.800000000000000034e-04,1.000000000000000048e-04,-2.999999999999999737e-04,-2.000000000000000164e-05,6.000000000000000000e+00,2.300000000000000000e+01
5.497500000000000000e+04,-5.599999999999999509e-04,-1.199999999999999895e-04,-1.399999999999999877e-04,-2.900000000000000017e-04,-5.699999999999999772e-04,-1.600000000000000131e-04,-1.399999999999999877e-04,-3.399999999999999702e-04,6.000000000000000000e+00,2.300000000000000000e+01
5.497600000000000000e+04,-5.599999999999999509e-04,-1.199999999999999895e-04,-1.399999999999999877e-04,-2.900000000000000017e-04,-5.699999999999999772e-04,-1.600000000000000131e-04,-1.399999999999999877e-04,-3.399999999999999702e-04,6.000000000000000000e+00,2.300000000000000000e+01
5.497700000000000000e+04,-5.599999999999999509e-04,-1.199999999999999895e-04,-1.399999999999999877e-04,-2.900000000000000017e-04,-5.699999999999999772e-04,-1.600000000000000131e-04,-1.399999999999999877e-04,-3.399999999999999702e-04,6.000000000000000000e+00,2.300000000000000000e+01
5.497800000000000000e+04,-5.599999999999999509e-04,-1.199999999999999895e-04,-1.399999999999999877e-04,-2.900000000000000017e-04,-5.699999999999999772e-04,-1.600000000000000131e-04,-1.399999999999999877e-04,-3.399999999999999702e-04,6.000000000000000000e+00,2.300000000000000000e+01
5.497900000000000000e+04,-5.599999999999999509e-04,-1.199999999999999895e-04,-1.399999999999999877e-04,-2.900000000000000017e-04,-5.699999999999999772e-04,-1.600000000000000131e-04,-1.399999999999999877e-04,-3.399999999999999702e-04,6.000000000000000000e+00,2.300000000000000000e+01
5.498000000000000000e+04,-5.599999999999999509e-04,-1.199999999999999895e-04,-1.399999999999999877e-04,-2.900000000000000017e-04,-5.699999999999999772e-04,-1.600000000000000131e-04,-1.399999999999999877e-04,-3.399999999999999702e-04,6.000000000000000000e+00,2.300000000000000000e+01
5.498100000000000000e+04,-5.599999999999999509e-04,-1.199999999999999895e-04,-1.399999999999999877e-04,-2.900000000000000017e-04,-5.699999999999999772e-04,-1.600000000000000131e-04,-1.399999999999999877e-04,-3.399999999999999702e-04,6.000000000000000000e+00,2.300000000000000000e+01
5.498200000000000000e+04,-5.599999999999999509e-04,-1.199999999999999895e-04,-1.399999999999999877e-04,-2.900000000000000017e-04,-5.699999999999999772e-04,-1.600000000000000131e-04,-1.399999999999999877e-04,-3.399999999999999702e-04,6.000000000000000000e+00,2.300000000000000000e+01
5.498300000000000000e+04,-5.599999999999999509e-04,-1.199999999999999895e-04,-1.399999999999999877e-04,-2.900000000000000017e-04,-5.699999999999999772e-04,-1.600000000000000131e-04,-1.399999999999999877e-04,-3.399999999999999702e-04,6.000000000000000000e+00,2.300000000000000000e+01
5.498400000000000000e+04,-5.599999999999999509e-04,-1.199999999999999895e-04,-1.399999999999999877e-04,-2.900000000000000017e-04,-5.699999999999999772e-04,-1.600000000000000131e-04,-1.399999999999999877e-04,-3.399999999999999702e-04,6.000000000000000000e+00,2.300000000000000000e+01
5.498500000000000000e+04,-5.599999999999999509e-04,-1.199999999999999895e-04,-1.399999999999999877e-04,-2.900000000000000017e-04,-5.699999999999999772e-04,-1.600000000000000131e-04,-1.399999999999999877e-04,-3.399999999999999702e-04,6.000000000000000000e+00,2.300000000000000000e+01
5.498600000000000000e+04,-5.599999999999999509e-04,-1.199999999999999895e-04,-1.399999999999999877e-04,-2.900000000000000017e-04,-5.699999999999999772e-04,-1.600000000000000131e-04,-1.399999999999999877e-04,-3.399999999999999702e-04,6.000000000000000000e+00,2.300000000000000000e+01
5.498800000000000000e+04,-5.599999999999999509e-04,-1.199999999999999895e-04,-1.399999999999999877e-04,-2.900000000000000017e-04,-5.699999999999999772e-04,-1.600000000000000131e-04,-1.399999999999999877e-04,-3.399999999999999702e-04,6.000000000000000000e+00,2.300000000000000000e+01
5.498900000000000000e+04,-5.599999999999999509e-04,-1.199999999999999895e-04,-1.399999999999999877e-04,-2.900000000000000017e-04,-5.699999999999999772e-04,-1.600000000000000131e-04,-1.399999999999999877e-04,-3.399999999999999702e-04,6.000000000000000000e+00,2.300000000000000000e+01
5.499000000000000000e+04,-5.599999999999999509e-04,-1.199999999999999895e-04,-1.399999999999999877e-04,-2.900000000000000017e-04,-5.699999999999999772e-04,-1.600000000000000131e-04,-1.399999999999999877e-04,-3.399999999999999702e-04,6.000000000000000000e+00,2.300000000000000000e+01
5.499100000000000000e+04,-5.599999999999999509e-04,-1.199999999999999895e-04,-1.399999999999999877e-04,-2.900000000000000017e-04,-5.699999999999999772e-04,-1.600000000000000131e-04,-1.399999999999999877e-04,-3.399999999999999702e-04,6.000000000000000000e+00,2.300000000000000000e+01
5.499200000000000000e+04,-5.599999999999999509e-04,-1.199999999999999895e-04,-1.399999999999999877e-04,-2.900000000000000017e-04,-5.699999999999999772e-04,-1.600000000000000131e-04,-1.399999999999999877e-04,-3.399999999999999702e-04,6.000000000000000000e+00,2.300000000000000000e+01
5.499300000000000000e+04,-5.599999999999999509e-04,-1.199999999999999895e-04,-1.399999999999999877e-04,-2.900000000000000017e-04,-5.699999999999999772e-04,-1.600000000000000131e-04,-1.399999999999999877e-04,-3.399999999999999702e-04,6.000000000000000000e+00,2.300000000000000000e+01
5.499400000000000000e+04,-5.599999999999999509e-04,-1.199999999999999895e-04,-1.399999999999999877e-04,-2.900000000000000017e-04,-5.699999999999999772e-04,-1.600000000000000131e-04,-1.399999999999999877e-04,-3.399999999999999702e-04,6.000000000000000000e+00,2.300000000000000000e+01
5.499500000000000000e+04,-5.599999999999999509e-04,-1.199999999999999895e-04,-1.399999999999999877e-04,-2.900000000000000017e-04,-5.699999999999999772e-04,-1.600000000000000131e-04,-1.399999999999999877e-04,-3.399999999999999702e-04,6.000000000000000000e+00,2.300000000000000000e+01
5.499600000000000000e+04,-5.599999999999999509e-04,-1.199999999999999895e-04,-1.399999999999999877e-04,-2.900000000000000017e-04,-5.699999999999999772e-04,-1.600000000000000131e-04,-1.399999999999999877e-04,-3.399999999999999702e-04,6.000000000000000000e+00,2.300000000000000000e+01
5.499700000000000000e+04,-5.000000000000000104e-04,-1.600000000000000131e-04,-6.999999999999999387e-05,-2.299999999999999799e-04,-7.099999999999999107e-04,5.999999999999999474e-05,5.999999999999999474e-05,-2.900000000000000017e-04,6.000000000000000000e+00,2.300000000000000000e+01
5.499800000000000000e+04,-6.499999999999999702e-04,-6.700000000000000226e-04,-9.000000000000000567e-05,-1.000000000000000082e-05,-6.900000000000000751e-04,-7.399999999999999894e-04,-2.000000000000000096e-04,2.000000000000000164e-05,6.000000000000000000e+00,2.300000000000000000e+01
5.499900000000000000e+04,-6.499999999999999702e-04,-6.700000000000000226e-04,-9.000000000000000567e-05,-1.000000000000000082e-05,-6.900000000000000751e-04,-7.399999999999999894e-04,-2.000000000000000096e-04,2.000000000000000164e-05,6.000000000000000000e+00,2.300000000000000000e+01
5.500000000000000000e+04,-6.499999999999999702e-04,-6.700000000000000226e-04,-9.000000000000000567e-05,-1.000000000000000082e-05,-6.900000000000000751e-04,-7.399999999999999894e-04,-2.000000000000000096e-04,2.000000000000000164e-05,6.000000000000000000e+00,2.300000000000000000e+01
5.500100000000000000e+04,-6.499999999999999702e-04,-6.700000000000000226e-04,-9.000000000000000567e-05,-1.000000000000000082e-05,-6.900000000000000751e-04,-7.399999999999999894e-04,-2.000000000000000096e-04,2.000000000000000164e-05,6.000000000000000000e+00,2.300000000000000000e+01
5.500200000000000000e+04,-6.499999999999999702e-04,-6.700000000000000226e-04,-9.000000000000000567e-05,-1.000000000000000082e-05,-6.900000000000000751e-04,-7.399999999999999894e-04,-2.000000000000000096e-04,2.000000000000000164e-05,6.000000000000000000e+00,2.300000000000000000e+01
5.500300000000000000e+04,-6.499999999999999702e-04,-6.700000000000000226e-04,-9.000000000000000567e-05,-1.000000000000000082e-05,-6.900000000000000751e-04,-7.399999999999999894e-04,-2.000000000000000096e-04,2.000000000000000164e-05,6.000000000000000000e+00,2.300000000000000000e+01
5.500400000000000000e+04,-6.499999999999999702e-04,-6.700000000000000226e-04,-9.000000000000000567e-05,-1.000000000000000082e-05,-6.900000000000000751e-04,-7.399999999999999894e-04,-2.000000000000000096e-04,2.000000000000000164e-05,6.000000000000000000e+00,2.300000000000000000e+01
5.500500000000000000e+04,-6.499999999999999702e-04,-6.700000000000000226e-04,-9.000000000000000567e-05,-1.000000000000000082e-05,-6.900000000000000751e-04,-7.399999999999999894e-04,-2.000000000000000096e-04,2.000000000000000164e-05,6.000000000000000000e+00,2.300000000000000000e+01
5.500600000000000000e+04,-6.499999999999999702e-04,-6.700000000000000226e-04,-9.000000000000000567e-05,-1.000000000000000082e-05,-6.900000000000000751e-04,-7.399999999999999894e-04,-2.000000000000000096e-04,2.000000000000000164e-05,6.000000000000000000e+00,2.300000000000000000e+01
5.500700000000000000e+04,-6.499999999999999702e-04,-6.700000000000000226e-04,-9.000000000000000567e-05,-1.000000000000000082e-05,-6.900000000000000751e-04,-7.399999999999999894e-04,-2.000000000000000096e-04,2.000000000000000164e-05,6.000000000000000000e+00,2.300000000000000000e+01
5.500800000000000000e+04,-6.499999999999999702e-04,-6.700000000000000226e-04,-9.000000000000000567e-05,-1.000000000000000082e-05,-6.900000000000000751e-04,-7.399999999999999894e-04,-2.000000000000000096e-04,2.000000000000000164e-05,6.000000000000000000e+00,2.300000000000000000e+01
5.500900000000000000e+04,-6.499999999999999702e-04,-6.700000000000000226e-04,-9.000000000000000567e-05,-1.000000000000000082e-05,-6.900000000000000751e-04,-7.399999999999999894e-04,-2.000000000000000096e-04,2.000000000000000164e-05,6.000000000000000000e+00,2.300000000000000000e+01
5.501000000000000000e+04,-6.499999999999999702e-04,-6.700000000000000226e-04,-9.000000000000000567e-05,-1.000000000000000082e-05,-6.900000000000000751e-04,-7.399999999999999894e-04,-2.000000000000000096e-04,2.000000000000000164e-05,6.000000000000000000e+00,2.300000000000000000e+01
5.501100000000000000e+04,-6.499999999999999702e-04,-6.700000000000000226e-04,-9.000000000000000567e-05,-1.000000000000000082e-05,-6.900000000000000751e-04,-7.399999999999999894e-04,-2.000000000000000096e-04,2.000000000000000164e-05,6.000000000000000000e+00,2.300000000000000000e+01
5.501200000000000000e+04,-6.499999999999999702e-04,-6.700000000000000226e-04,-9.000000000000000567e-05,-1.000000000000000082e-05,-6.900000000000000751e-04,-7.399999999999999894e-04,-2.000000000000000096e-04,2.000000000000000164e-05,6.000000000000000000e+00,2.300000000000000000e+01
5.501300000000000000e+04,-6.499999999999999702e-04,-6.700000000000000226e-04,-9.000000000000000567e-05,-1.000000000000000082e-05,-6.900000000000000751e-04,-7.399999999999999894e-04,-2.000000000000000096e-04,2.000000000000000164e-05,6.000000000000000000e+00,2.300000000000000000e+01
5.501400000000000000e+04,-6.499999999999999702e-04,-6.700000000000000226e-04,-9.000000000000000567e-05,-1.000000000000000082e-05,-6.900000000000000751e-04,-7.399999999999999894e-04,-2.000000000000000096e-04,2.000000000000000164e-05,6.000000000000000000e+00,2.300000000000000000e+01
5.501500000000000000e+04,-6.499999999999999702e-04,-6.700000000000000226e-04,-9.000000000000000567e-05,-1.000000000000000082e-05,-6.900000000000000751e-04,-7.399999999999999894e-04,-2.000000000000000096e-04,2.000000000000000164e-05,6.000000000000000000e+00,2.300000000000000000e+01
5.501600000000000000e+04,-6.499999999999999702e-04,-6.700000000000000226e-04,-9.000000000000000567e-05,-1.000000000000000082e-05,-6.900000000000000751e-04,-7.399999999999999894e-04,-2.000000000000000096e-04,2.000000000000000164e-05,6.000000000000000000e+00,2.300000000000000000e+01
5.501700000000000000e+04,-6.499999999999999702e-04,-6.700000000000000226e-04,-9.000000000000000567e-05,-1.000000000000000082e-05,-6.900000000000000751e-04,-7.399999999999999894e-04,-2.000000000000000096e-04,2.000000000000000164e-05,6.000000000000000000e+00,2.300000000000000000e+01
5.501800000000000000e+04,-6.499999999999999702e-04,-6.700000000000000226e-04,-9.000000000000000567e-05,-1.000000000000000082e-05,-6.900000000000000751e-04,-7.399999999999999894e-04,-2.000000000000000096e-04,2.000000000000000164e-05,6.000000000000000000e+00,2.300000000000000000e+01
5.501900000000000000e+04,-6.499999999999999702e-04,-6.700000000000000226e-04,-9.000000000000000567e-05,-1.000000000000000082e-05,-6.900000000000000751e-04,-7.399999999999999894e-04,-2.000000000000000096e-04,2.000000000000000164e-05,6.000000000000000000e+00,2.300000000000000000e+01
5.502000000000000000e+04,-5.800000000000000034e-04,-1.399999999999999877e-04,-2.999999999999999737e-05,-2.000000000000000096e-04,-1.699999999999999851e-04,-3.200000000000000262e-04,-4.700000000000000401e-04,-4.700000000000000401e-04,6.000000000000000000e+00,2.300000000000000000e+01
5.502100000000000000e+04,5.999999999999999474e-04,2.799999999999999755e-04,1.000000000000000082e-05,2.000000000000000164e-05,3.099999999999999999e-04,8.099999999999999561e-04,-2.000000000000000164e-05,-2.799999999999999755e-04,6.000000000000000000e+00,2.300000000000000000e+01
5.502200000000000000e+04,5.999999999999999474e-04,2.799999999999999755e-04,1.000000000000000082e-05,2.000000000000000164e-05,3.099999999999999999e-04,8.099999999999999561e-04,-2.000000000000000164e-05,-2.799999999999999755e-04,6.000000000000000000e+00,2.300000000000000000e+01
5.502300000000000000e+04,5.999999999999999474e-04,2.799999999999999755e-04,1.000000000000000082e-05,2.000000000000000164e-05,3.099999999999999999e-04,8.099999999999999561e-04,-2.000000000000000164e-05,-2.799999999999999755e-04,6.000000000000000000e+00,2.300000000000000000e+01
5.502400000000000000e+04,5.999999999999999474e-04,2.799999999999999755e-04,1.000000000000000082e-05,2.000000000000000164e-05,3.099999999999999999e-04,8.099999999999999561e-04,-2.000000000000000164e-05,-2.799999999999999755e-04,6.000000000000000000e+00,2.300000000000000000e+01
5.502500000000000000e+04,5.999999999999999474e-04,2.799999999999999755e-04,1.000000000000000082e-05,2.000000000000000164e-05,3.099999999999999999e-04,8.099999999999999561e-04,-2.000000000000000164e-05,-2.799999999999999755e-04,6.000000000000000000e+00,2.300000000000000000e+01
5.502600000000000000e+04,5.999999999999999474e-04,2.799999999999999755e-04,1.000000000000000082e-05,2.000000000000000164e-05,3.099999999999999999e-04,8.099999999999999561e-04,-2.000000000000000164e-05,-2.799999999999999755e-04,6.000000000000000000e+00,2.300000000000000000e+01
5.502700000000000000e+04,5.999999999999999474e-04,2.799999999999999755e-04,1.000000000000000082e-05,2.000000000000000164e-05,3.099999999999999999e-04,8.099999999999999561e-04,-2.000000000000000164e-05,-2.799999999999999755e-04,6.000000000000000000e+00,2.300000000000000000e+01
5.502800000000000000e+04,5.999999999999999474e-04,2.799999999999999755e-04,1.000000000000000082e-05,2.000000000000000164e-05,3.099999999999999999e-04,8.099999999999999561e-04,-2.000000000000000164e-05,-2.799999999999999755e-04,6.000000000000000000e+00,2.300000000000000000e+01
5.502900000000000000e+04,5.999999999999999474e-04,2.799999999999999755e-04,1.000000000000000082e-05,2.000000000000000164e-05,3.099999999999999999e-04,8.099999999999999561e-04,-2.000000000000000164e-05,-2.799999999999999755e-04,6.000000000000000000e+00,2.300000000000000000e+01
5.503000000000000000e+04,5.999999999999999474e-04,2.799999999999999755e-04,1.000000000000000082e-05,2.000000000000000164e-05,3.099999999999999999e-04,8.099999999999999561e-04,-2.000000000000000164e-05,-2.799999999999999755e-04,6.000000000000000000e+00,2.300000000000000000e+01
5.503100000000000000e+04,5.999999999999999474e-04,2.799999999999999755e-04,1.000000000000000082e-05,2.000000000000000164e-05,3.099999999999999999e-04,8.099999999999999561e-04,-2.000000000000000164e-05,-2.799999999999999755e-04,6.000000000000000000e+00,2.300000000000000000e+01
5.503200000000000000e+04,5.999999999999999474e-04,2.799999999999999755e-04,1.000000000000000082e-05,2.000000000000000164e-05,3.099999999999999999e-04,8.099999999999999561e-04,-2.000000000000000164e-05,-2.799999999999999755e-04,6.000000000000000000e+00,2.300000000000000000e+01
5.503300000000000000e+04,5.999999999999999474e-04,2.799999999999999755e-04,1.000000000000000082e-05,2.000000000000000164e-05,3.099999999999999999e-04,8.099999999999999561e-04,-2.000000000000000164e-05,-2.799999999999999755e-04,6.000000000000000000e+00,2.300000000000000000e+01
5.503400000000000000e+04,-5.800000000000000034e-04,-2.000000000000000096e-04,-6.999999999999999387e-05,2.999999999999999737e-05,2.000000000000000096e-04,3.099999999999999999e-04,-6.999999999999999387e-05,-6.999999999999999387e-05,6.000000000000000000e+00,2.300000000000000000e+01
5.503500000000000000e+04,-5.500000000000000331e-04,1.600000000000000131e-04,-1.699999999999999851e-04,-9.000000000000000567e-05,9.000000000000000567e-05,3.699999999999999947e-04,-5.999999999999999474e-05,5.999999999999999474e-05,6.000000000000000000e+00,2.300000000000000000e+01
5.503600000000000000e+04,-5.500000000000000331e-04,1.600000000000000131e-04,-1.699999999999999851e-04,-9.000000000000000567e-05,9.000000000000000567e-05,3.699999999999999947e-04,-5.999999999999999474e-05,5.999999999999999474e-05,6.000000000000000000e+00,2.300000000000000000e+01
5.503700000000000000e+04,-5.500000000000000331e-04,1.600000000000000131e-04,-1.699999999999999851e-04,-9.000000000000000567e-05,9.000000000000000567e-05,3.699999999999999947e-04,-5.999999999999999474e-05,5.999999999999999474e-05,6.000000000000000000e+00,2.300000000000000000e+01
5.503900000000000000e+04,-5.500000000000000331e-04,1.600000000000000131e-04,-1.699999999999999851e-04,-9.000000000000000567e-05,9.000000000000000567e-05,3.699999999999999947e-04,-5.999999999999999474e-05,5.999999999999999474e-05,6.000000000000000000e+00,2.300000000000000000e+01
5.504000000000000000e+04,-5.500000000000000331e-04,1.600000000000000131e-04,-1.699999999999999851e-04,-9.000000000000000567e-05,9.000000000000000567e-05,3.699999999999999947e-04,-5.999999999999999474e-05,5.999999999999999474e-05,6.000000000000000000e+00,2.300000000000000000e+01
5.504100000000000000e+04,-5.500000000000000331e-04,1.600000000000000131e-04,-1.699999999999999851e-04,-9.000000000000000567e-05,9.000000000000000567e-05,3.699999999999999947e-04,-5.999999999999999474e-05,5.999999999999999474e-05,6.000000000000000000e+00,2.300000000000000000e+01
5.504200000000000000e+04,-5.500000000000000331e-04,1.600000000000000131e-04,-1.699999999999999851e-04,-9.000000000000000567e-05,9.000000000000000567e-05,3.699999999999999947e-04,-5.999999999999999474e-05,5.999999999999999474e-05,6.000000000000000000e+00,2.300000000000000000e+01
5.504300000000000000e+04,-5.500000000000000331e-04,1.600000000000000131e-04,-1.699999999999999851e-04,-9.000000000000000567e-05,9.000000000000000567e-05,3.699999999999999947e-04,-5.999999999999999474e-05,5.999999999999999474e-05,6.000000000000000000e+00,2.300000000000000000e+01
5.504400000000000000e+04,-5.500000000000000331e-04,1.600000000000000131e-04,-1.699999999999999851e-04,-9.000000000000000567e-05,9.000000000000000567e-05,3.699999999999999947e-04,-5.999999999999999474e-05,5.999999999999999474e-05,6.000000000000000000e+00,2.300000000000000000e+01
5.504500000000000000e+04,-5.500000000000000331e-04,1.600000000000000131e-04,-1.699999999999999851e-04,-9.000000000000000567e-05,9.000000000000000567e-05,3.699999999999999947e-04,-5.999999999999999474e-05,5.999999999999999474e-05,6.000000000000000000e+00,2.300000000000000000e+01
5.504600000000000000e+04,-5.500000000000000331e-04,1.600000000000000131e-04,-1.699999999999999851e-04,-9.000000000000000567e-05,9.000000000000000567e-05,3.699999999999999947e-04,-5.999999999999999474e-05,5.999999999999999474e-05,6.000000000000000000e+00,2.300000000000000000e+01
5.504700000000000000e+04,-5.500000000000000331e-04,1.600000000000000131e-04,-1.699999999999999851e-04,-9.000000000000000567e-05,9.000000000000000567e-05,3.699999999999999947e-04,-5.999999999999999474e-05,5.999999999999999474e-05,6.000000000000000000e+00,2.300000000000000000e+01
5.504800000000000000e+04,-5.500000000000000331e-04,1.600000000000000131e-04,-1.699999999999999851e-04,-9.000000000000000567e-05,9.000000000000000567e-05,3.699999999999999947e-04,-5.999999999999999474e-05,5.999999999999999474e-05,6.000000000000000000e+00,2.300000000000000000e+01
5.504900000000000000e+04,-5.500000000000000331e-04,1.600000000000000131e-04,-1.699999999999999851e-04,-9.000000000000000567e-05,9.000000000000000567e-05,3.699999999999999947e-04,-5.999999999999999474e-05,5.999999999999999474e-05,6.000000000000000000e+00,2.300000000000000000e+01
5.505000000000000000e+04,-5.500000000000000331e-04,1.600000000000000131e-04,-1.699999999999999851e-04,-9.000000000000000567e-05,9.000000000000000567e-05,3.699999999999999947e-04,-5.999999999999999474e-05,5.999999999999999474e-05,6.000000000000000000e+00,2.300000000000000000e+01
5.505100000000000000e+04,-5.500000000000000331e-04,1.600000000000000131e-04,-1.699999999999999851e-04,-9.000000000000000567e-05,9.000000000000000567e-05,3.699999999999999947e-04,-5.999999999999999474e-05,5.999999999999999474e-05,6.000000000000000000e+00,2.300000000000000000e+01
5.505200000000000000e+04,-5.500000000000000331e-04,1.600000000000000131e-04,-1.699999999999999851e-04,-9.000000000000000567e-05,9.000000000000000567e-05,3.699999999999999947e-04,-5.999999999999999474e-05,5.999999999999999474e-05,6.000000000000000000e+00,2.300000000000000000e+01
5.505300000000000000e+04,-5.500000000000000331e-04,1.600000000000000131e-04,-1.699999999999999851e-04,-9.000000000000000567e-05,9.000000000000000567e-05,3.699999999999999947e-04,-5.999999999999999474e-05,5.999999999999999474e-05,6.000000000000000000e+00,2.300000000000000000e+01
5.505400000000000000e+04,-5.500000000000000331e-04,1.600000000000000131e-04,-1.699999999999999851e-04,-9.000000000000000567e-05,9.000000000000000567e-05,3.699999999999999947e-04,-5.999999999999999474e-05,5.999999999999999474e-05,6.000000000000000000e+00,2.300000000000000000e+01
5.505500000000000000e+04,-5.500000000000000331e-04,1.600000000000000131e-04,-1.699999999999999851e-04,-9.000000000000000567e-05,9.000000000000000567e-05,3.699999999999999947e-04,-5.999999999999999474e-05,5.999999999999999474e-05,6.000000000000000000e+00,2.300000000000000000e+01
5.505600000000000000e+04,-5.500000000000000331e-04,1.600000000000000131e-04,-1.699999999999999851e-04,-9.000000000000000567e-05,9.000000000000000567e-05,3.699999999999999947e-04,-5.999999999999999474e-05,5.999999999999999474e-05,6.000000000000000000e+00,2.300000000000000000e+01
5.505700000000000000e+04,7.599999999999999334e-04,2.999999999999999737e-04,3.099999999999999999e-04,2.600000000000000314e-04,1.000000000000000021e-03,3.699999999999999947e-04,1.499999999999999869e-04,5.200000000000000629e-04,6.000000000000000000e+00,2.300000000000000000e+01
5.505800000000000000e+04,3.799999999999999667e-04,1.499999999999999869e-04,2.399999999999999790e-04,5.000000000000000240e-05,8.000000000000000654e-05,-2.000000000000000164e-05,0.000000000000000000e+00,4.499999999999999877e-04,6.000000000000000000e+00,2.300000000000000000e+01
5.505900000000000000e+04,3.799999999999999667e-04,1.499999999999999869e-04,2.399999999999999790e-04,5.000000000000000240e-05,8.000000000000000654e-05,-2.000000000000000164e-05,0.000000000000000000e+00,4.499999999999999877e-04,6.000000000000000000e+00,2.300000000000000000e+01
5.506000000000000000e+04,3.799999999999999667e-04,1.499999999999999869e-04,2.399999999999999790e-04,5.000000000000000240e-05,8.000000000000000654e-05,-2.000000000000000164e-05,0.000000000000000000e+00,4.499999999999999877e-04,6.000000000000000000e+00,2.300000000000000000e+01
5.506100000000000000e+04,3.799999999999999667e-04,1.499999999999999869e-04,2.399999999999999790e-04,5.000000000000000240e-05,8.000000000000000654e-05,-2.000000000000000164e-05,0.000000000000000000e+00,4.499999999999999877e-04,6.000000000000000000e+00,2.300000000000000000e+01
5.506200000000000000e+04,3.799999999999999667e-04,1.499999999999999869e-04,2.399999999999999790e-04,5.000000000000000240e-05,8.000000000000000654e-05,-2.000000000000000164e-05,0.000000000000000000e+00,4.499999999999999877e-04,6.000000000000000000e+00,2.300000000000000000e+01
5.506300000000000000e+04,3.799999999999999667e-04,1.499999999999999869e-04,2.399999999999999790e-04,5.000000000000000240e-05,8.000000000000000654e-05,-2.000000000000000164e-05,0.000000000000000000e+00,4.499999999999999877e-04,6.000000000000000000e+00,2.300000000000000000e+01
5.506400000000000000e+04,3.799999999999999667e-04,1.499999999999999869e-04,2.399999999999999790e-04,5.000000000000000240e-05,8.000000000000000654e-05,-2.000000000000000164e-05,0.000000000000000000e+00,4.499999999999999877e-04,6.000000000000000000e+00,2.300000000000000000e+01
5.506500000000000000e+04,3.799999999999999667e-04,1.499999999999999869e-04,2.399999999999999790e-04,5.000000000000000240e-05,8.000000000000000654e-05,-2.000000000000000164e-05,0.000000000000000000e+00,4.499999999999999877e-04,6.000000000000000000e+00,2.300000000000000000e+01
5.506600000000000000e+04,3.799999999999999667e-04,1.499999999999999869e-04,2.399999999999999790e-04,5.000000000000000240e-05,8.000000000000000654e-05,-2.000000000000000164e-05,0.000000000000000000e+00,4.499999999999999877e-04,6.000000000000000000e+00,2.300000000000000000e+01
5.506700000000000000e+04,3.799999999999999667e-04,1.499999999999999869e-04,2.399999999999999790e-04,5.000000000000000240e-05,8.000000000000000654e-05,-2.000000000000000164e-05,0.000000000000000000e+00,4.499999999999999877e-04,6.000000000000000000e+00,2.300000000000000000e+01
5.506800000000000000e+04,3.799999999999999667e-04,1.499999999999999869e-04,2.399999999999999790e-04,5.000000000000000240e-05,8.000000000000000654e-05,-2.000000000000000164e-05,0.000000000000000000e+00,4.499999999999999877e-04,6.000000000000000000e+00,2.300000000000000000e+01
5.506900000000000000e+04,3.799999999999999667e-04,1.499999999999999869e-04,2.399999999999999790e-04,5.000000000000000240e-05,8.000000000000000654e-05,-2.000000000000000164e-05,0.000000000000000000e+00,4.499999999999999877e-04,6.000000000000000000e+00,2.300000000000000000e+01
5.507000000000000000e+04,3.799999999999999667e-04,1.499999999999999869e-04,2.399999999999999790e-04,5.000000000000000240e-05,8.000000000000000654e-05,-2.000000000000000164e-05,0.000000000000000000e+00,4.499999999999999877e-04,6.000000000000000000e+00,2.300000000000000000e+01
5.507100000000000000e+04,3.799999999999999667e-04,1.499999999999999869e-04,2.399999999999999790e-04,5.000000000000000240e-05,8.000000000000000654e-05,-2.000000000000000164e-05,0.000000000000000000e+00,4.499999999999999877e-04,6.000000000000000000e+00,2.300000000000000000e+01
5.507200000000000000e+04,3.799999999999999667e-04,1.499999999999999869e-04,2.399999999999999790e-04,5.000000000000000240e-05,8.000000000000000654e-05,-2.000000000000000164e-05,0.000000000000000000e+00,4.499999999999999877e-04,6.000000000000000000e+00,2.300000000000000000e+01
5.507300000000000000e+04,3.799999999999999667e-04,1.499999999999999869e-04,2.399999999999999790e-04,5.000000000000000240e-05,8.000000000000000654e-05,-2.000000000000000164e-05,0.000000000000000000e+00,4.499999999999999877e-04,6.000000000000000000e+00,2.300000000000000000e+01
5.507400000000000000e+04,3.799999999999999667e-04,1.499999999999999869e-04,2.399999999999999790e-04,5.000000000000000240e-05,8.000000000000000654e-05,-2.000000000000000164e-05,0.000000000000000000e+00,4.499999999999999877e-04,6.000000000000000000e+00,2.300000000000000000e+01
5.507500000000000000e+04,3.799999999999999667e-04,1.499999999999999869e-04,2.399999999999999790e-04,5.000000000000000240e-05,8.000000000000000654e-05,-2.000000000000000164e-05,0.000000000000000000e+00,4.499999999999999877e-04,6.000000000000000000e+00,2.300000000000000000e+01
5.507600000000000000e+04,3.799999999999999667e-04,1.499999999999999869e-04,2.399999999999999790e-04,5.000000000000000240e-05,8.000000000000000654e-05,-2.000000000000000164e-05,0.000000000000000000e+00,4.499999999999999877e-04,6.000000000000000000e+00,2.300000000000000000e+01
5.507700000000000000e+04,3.799999999999999667e-04,1.499999999999999869e-04,2.399999999999999790e-04,5.000000000000000240e-05,8.000000000000000654e-05,-2.000000000000000164e-05,0.000000000000000000e+00,4.499999999999999877e-04,6.000000000000000000e+00,2.300000000000000000e+01
5.507800000000000000e+04,3.799999999999999667e-04,1.499999999999999869e-04,2.399999999999999790e-04,5.000000000000000240e-05,8.000000000000000654e-05,-2.000000000000000164e-05,0.000000000000000000e+00,4.499999999999999877e-04,6.000000000000000000e+00,2.300000000000000000e+01
5.507900000000000000e+04,3.799999999999999667e-04,1.499999999999999869e-04,2.399999999999999790e-04,5.000000000000000240e-05,8.000000000000000654e-05,-2.000000000000000164e-05,0.000000000000000000e+00,4.499999999999999877e-04,6.000000000000000000e+00,2.300000000000000000e+01
5.508000000000000000e+04,1.399999999999999877e-04,-4.000000000000000327e-05,-2.900000000000000017e-04,-2.700000000000000035e-04,-4.899999999999999842e-04,5.200000000000000629e-04,9.000000000000000567e-05,5.699999999999999772e-04,6.000000000000000000e+00,2.300000000000000000e+01
5.508100000000000000e+04,-1.199999999999999895e-04,-8.000000000000000654e-05,-2.000000000000000164e-05,5.000000000000000240e-05,2.700000000000000035e-04,5.099999999999999282e-04,-2.700000000000000035e-04,-2.100000000000000087e-04,6.000000000000000000e+00,2.300000000000000000e+01
5.508200000000000000e+04,-1.199999999999999895e-04,-8.000000000000000654e-05,-2.000000000000000164e-05,5.000000000000000240e-05,2.700000000000000035e-04,5.099999999999999282e-04,-2.700000000000000035e-04,-2.100000000000000087e-04,6.000000000000000000e+00,2.300000000000000000e+01
5.508300000000000000e+04,-1.199999999999999895e-04,-8.000000000000000654e-05,-2.000000000000000164e-05,5.000000000000000240e-05,2.700000000000000035e-04,5.099999999999999282e-04,-2.700000000000000035e-04,-2.100000000000000087e-04,6.000000000000000000e+00,2.300000000000000000e+01
5.508400000000000000e+04,-1.199999999999999895e-04,-8.000000000000000654e-05,-2.000000000000000164e-05,5.000000000000000240e-05,2.700000000000000035e-04,5.099999999999999282e-04,-2.700000000000000035e-04,-2.100000000000000087e-04,6.000000000000000000e+00,2.300000000000000000e+01
5.508500000000000000e+04,-1.199999999999999895e-04,-8.000000000000000654e-05,-2.000000000000000164e-05,5.000000000000000240e-05,2.700000000000000035e-04,5.099999999999999282e-04,-2.700000000000000035e-04,-2.100000000000000087e-04,6.000000000000000000e+00,2.300000000000000000e+01
5.508600000000000000e+04,-1.199999999999999895e-04,-8.000000000000000654e-05,-2.000000000000000164e-05,5.000000000000000240e-05,2.700000000000000035e-04,5.099999999999999282e-04,-2.700000000000000035e-04,-2.100000000000000087e-04,6.000000000000000000e+00,2.300000000000000000e+01
5.508700000000000000e+04,-1.199999999999999895e-04,-8.000000000000000654e-05,-2.000000000000000164e-05,5.000000000000000240e-05,2.700000000000000035e-04,5.099999999999999282e-04,-2.700000000000000035e-04,-2.100000000000000087e-04,6.000000000000000000e+00,2.300000000000000000e+01
5.508800000000000000e+04,-1.199999999999999895e-04,-8.000000000000000654e-05,-2.000000000000000164e-05,5.000000000000000240e-05,2.700000000000000035e-04,5.099999999999999282e-04,-2.700000000000000035e-04,-2.100000000000000087e-04,6.000000000000000000e+00,2.300000000000000000e+01
5.508900000000000000e+04,-1.199999999999999895e-04,-8.000000000000000654e-05,-2.000000000000000164e-05,5.000000000000000240e-05,2.700000000000000035e-04,5.099999999999999282e-04,-2.700000000000000035e-04,-2.100000000000000087e-04,6.000000000000000000e+00,2.300000000000000000e+01
5.509000000000000000e+04,-1.199999999999999895e-04,-8.000000000000000654e-05,-2.000000000000000164e-05,5.000000000000000240e-05,2.700000000000000035e-04,5.099999999999999282e-04,-2.700000000000000035e-04,-2.100000000000000087e-04,6.000000000000000000e+00,2.300000000000000000e+01
5.509100000000000000e+04,-1.199999999999999895e-04,-8.000000000000000654e-05,-2.000000000000000164e-05,5.000000000000000240e-05,2.700000000000000035e-04,5.099999999999999282e-04,-2.700000000000000035e-04,-2.100000000000000087e-04,6.000000000000000000e+00,2.300000000000000000e+01
5.509200000000000000e+04,-1.199999999999999895e-04,-8.000000000000000654e-05,-2.000000000000000164e-05,5.000000000000000240e-05,2.700000000000000035e-04,5.099999999999999282e-04,-2.700000000000000035e-04,-2.100000000000000087e-04,6.000000000000000000e+00,2.300000000000000000e+01
5.509300000000000000e+04,-1.199999999999999895e-04,-8.000000000000000654e-05,-2.000000000000000164e-05,5.000000000000000240e-05,2.700000000000000035e-04,5.099999999999999282e-04,-2.700000000000000035e-04,-2.100000000000000087e-04,6.000000000000000000e+00,2.300000000000000000e+01
5.509400000000000000e+04,-1.199999999999999895e-04,-8.000000000000000654e-05,-2.000000000000000164e-05,5.000000000000000240e-05,2.700000000000000035e-04,5.099999999999999282e-04,-2.700000000000000035e-04,-2.100000000000000087e-04,6.000000000000000000e+00,2.300000000000000000e+01
5.509500000000000000e+04,-5.400000000000000069e-04,-1.100000000000000039e-04,-6.999999999999999387e-05,5.000000000000000240e-05,1.399999999999999877e-04,-3.499999999999999964e-04,-1.399999999999999877e-04,-5.000000000000000104e-04,6.000000000000000000e+00,2.300000000000000000e+01
5.509600000000000000e+04,-5.400000000000000069e-04,-1.100000000000000039e-04,-6.999999999999999387e-05,5.000000000000000240e-05,1.399999999999999877e-04,-3.499999999999999964e-04,-1.399999999999999877e-04,-5.000000000000000104e-04,6.000000000000000000e+00,2.300000000000000000e+01
5.509700000000000000e+04,-5.400000000000000069e-04,-1.100000000000000039e-04,-6.999999999999999387e-05,5.000000000000000240e-05,1.399999999999999877e-04,-3.499999999999999964e-04,-1.399999999999999877e-04,-5.000000000000000104e-04,6.000000000000000000e+00,2.300000000000000000e+01
5.509800000000000000e+04,-5.400000000000000069e-04,-1.100000000000000039e-04,-6.999999999999999387e-05,5.000000000000000240e-05,1.399999999999999877e-04,-3.499999999999999964e-04,-1.399999999999999877e-04,-5.000000000000000104e-04,6.000000000000000000e+00,2.300000000000000000e+01
5.509900000000000000e+04,-5.400000000000000069e-04,-1.100000000000000039e-04,-6.999999999999999387e-05,5.000000000000000240e-05,1.399999999999999877e-04,-3.499999999999999964e-04,-1.399999999999999877e-04,-5.000000000000000104e-04,6.000000000000000000e+00,2.300000000000000000e+01
5.510000000000000000e+04,-5.400000000000000069e-04,-1.100000000000000039e-04,-6.999999999999999387e-05,5.000000000000000240e-05,1.399999999999999877e-04,-3.499999999999999964e-04,-1.399999999999999877e-04,-5.000000000000000104e-04,6.000000000000000000e+00,2.300000000000000000e+01
5.510100000000000000e+04,-5.400000000000000069e-04,-1.100000000000000039e-04,-6.999999999999999387e-05,5.000000000000000240e-05,1.399999999999999877e-04,-3.499999999999999964e-04,-1.399999999999999877e-04,-5.000000000000000104e-04,6.000000000000000000e+00,2.300000000000000000e+01
5.510200000000000000e+04,-5.400000000000000069e-04,-1.100000000000000039e-04,-6.999999999999999387e-05,5.000000000000000240e-05,1.399999999999999877e-04,-3.499999999999999964e-04,-1.399999999999999877e-04,-5.000000000000000104e-04,6.000000000000000000e+00,2.300000000000000000e+01
5.510300000000000000e+04,-5.400000000000000069e-04,-1.100000000000000039e-04,-6.999999999999999387e-05,5.000000000000000240e-05,1.399999999999999877e-04,-3.499999999999999964e-04,-1.399999999999999877e-04,-5.000000000000000104e-04,6.000000000000000000e+00,2.300000000000000000e+01
5.510400000000000000e+04,-5.400000000000000069e-04,-1.100000000000000039e-04,-6.999999999999999387e-05,5.000000000000000240e-05,1.399999999999999877e-04,-3.499999999999999964e-04,-1.399999999999999877e-04,-5.000000000000000104e-04,6.000000000000000000e+00,2.300000000000000000e+01
5.510500000000000000e+04,-5.400000000000000069e-04,-1.100000000000000039e-04,-6.999999999999999387e-05,5.000000000000000240e-05,1.399999999999999877e-04,-3.499999999999999964e-04,-1.399999999999999877e-04,-5.000000000000000104e-04,6.000000000000000000e+00,2.300000000000000000e+01
5.510600000000000000e+04,-5.400000000000000069e-04,-1.100000000000000039e-04,-6.999999999999999387e-05,5.000000000000000240e-05,1.399999999999999877e-04,-3.499999999999999964e-04,-1.399999999999999877e-04,-5.000000000000000104e-04,6.000000000000000000e+00,2.300000000000000000e+01
5.510700000000000000e+04,-5.400000000000000069e-04,-1.100000000000000039e-04,-6.999999999999999387e-05,5.000000000000000240e-05,1.399999999999999877e-04,-3.499999999999999964e-04,-1.399999999999999877e-04,-5.000000000000000104e-04,6.000000000000000000e+00,2.300000000000000000e+01
5.510800000000000000e+04,-5.400000000000000069e-04,-1.100000000000000039e-04,-6.999999999999999387e-05,5.000000000000000240e-05,1.399999999999999877e-04,-3.499999999999999964e-04,-1.399999999999999877e-04,-5.000000000000000104e-04,6.000000000000000000e+00,2.300000000000000000e+01
5.510900000000000000e+04,-5.400000000000000069e-04,-1.100000000000000039e-04,-6.999999999999999387e-05,5.000000000000000240e-05,1.399999999999999877e-04,-3.499999999999999964e-04,-1.399999999999999877e-04,-5.000000000000000104e-04,6.000000000000000000e+00,2.300000000000000000e+01
5.511000000000000000e+04,-5.400000000000000069e-04,-1.100000000000000039e-04,-6.999999999999999387e-05,5.000000000000000240e-05,1.399999999999999877e-04,-3.499999999999999964e-04,-1.399999999999999877e-04,-5.000000000000000104e-04,6.000000000000000000e+00,2.300000000000000000e+01
5.511100000000000000e+04,-5.400000000000000069e-04,-1.100000000000000039e-04,-6.999999999999999387e-05,5.000000000000000240e-05,1.399999999999999877e-04,-3.499999999999999964e-04,-1.399999999999999877e-04,-5.000000000000000104e-04,6.000000000000000000e+00,2.300000000000000000e+01
5.511200000000000000e+04,-5.400000000000000069e-04,-1.100000000000000039e-04,-6.999999999999999387e-05,5.000000000000000240e-05,1.399999999999999877e-04,-3.499999999999999964e-04,-1.399999999999999877e-04,-5.000000000000000104e-04,6.000000000000000000e+00,2.300000000000000000e+01
5.511400000000000000e+04,-5.400000000000000069e-04,-1.100000000000000039e-04,-6.999999999999999387e-05,5.000000000000000240e-05,1.399999999999999877e-04,-3.499999999999999964e-04,-1.399999999999999877e-04,-5.000000000000000104e-04,6.000000000000000000e+00,2.300000000000000000e+01
5.511500000000000000e+04,-5.400000000000000069e-04,-1.100000000000000039e-04,-6.999999999999999387e-05,5.000000000000000240e-05,1.399999999999999877e-04,-3.499999999999999964e-04,-1.399999999999999877e-04,-5.000000000000000104e-04,6.000000000000000000e+00,2.300000000000000000e+01
5.511600000000000000e+04,-5.400000000000000069e-04,-1.100000000000000039e-04,-6.999999999999999387e-05,5.000000000000000240e-05,1.399999999999999877e-04,-3.499999999999999964e-04,-1.399999999999999877e-04,-5.000000000000000104e-04,6.000000000000000000e+00,2.300000000000000000e+01
5.511700000000000000e+04,-2.000000000000000096e-04,5.999999999999999474e-05,1.199999999999999895e-04,2.999999999999999737e-04,2.600000000000000314e-04,-2.200000000000000078e-04,-1.300000000000000157e-04,-2.700000000000000035e-04,6.000000000000000000e+00,2.300000000000000000e+01
5.511800000000000000e+04,-2.299999999999999799e-04,-5.999999999999999474e-05,5.999999999999999474e-05,1.199999999999999895e-04,1.800000000000000113e-04,-4.200000000000000174e-04,5.299999999999999807e-04,-3.399999999999999702e-04,6.000000000000000000e+00,2.300000000000000000e+01
5.511900000000000000e+04,-2.299999999999999799e-04,-5.999999999999999474e-05,5.999999999999999474e-05,1.199999999999999895e-04,1.800000000000000113e-04,-4.200000000000000174e-04,5.299999999999999807e-04,-3.399999999999999702e-04,6.000000000000000000e+00,2.300000000000000000e+01
5.512000000000000000e+04,-2.299999999999999799e-04,-5.999999999999999474e-05,5.999999999999999474e-05,1.199999999999999895e-04,1.800000000000000113e-04,-4.200000000000000174e-04,5.299999999999999807e-04,-3.399999999999999702e-04,6.000000000000000000e+00,2.300000000000000000e+01
5.512100000000000000e+04,-2.299999999999999799e-04,-5.999999999999999474e-05,5.999999999999999474e-05,1.199999999999999895e-04,1.800000000000000113e-04,-4.200000000000000174e-04,5.299999999999999807e-04,-3.399999999999999702e-04,6.000000000000000000e+00,2.300000000000000000e+01
5.512200000000000000e+04,-2.299999999999999799e-04,-5.999999999999999474e-05,5.999999999999999474e-05,1.199999999999999895e-04,1.800000000000000113e-04,-4.200000000000000174e-04,5.299999999999999807e-04,-3.399999999999999702e-04,6.000000000000000000e+00,2.300000000000000000e+01
5.512300000000000000e+04,-2.299999999999999799e-04,-5.999999999999999474e-05,5.999999999999999474e-05,1.199999999999999895e-04,1.800000000000000113e-04,-4.200000000000000174e-04,5.299999999999999807e-04,-3.399999999999999702e-04,6.000000000000000000e+00,2.300000000000000000e+01
5.512400000000000000e+04,-2.299999999999999799e-04,-5.999999999999999474e-05,5.999999999999999474e-05,1.199999999999999895e-04,1.800000000000000113e-04,-4.200000000000000174e-04,5.299999999999999807e-04,-3.399999999999999702e-04,6.000000000000000000e+00,2.300000000000000000e+01
5.512500000000000000e+04,-2.299999999999999799e-04,-5.999999999999999474e-05,5.999999999999999474e-05,1.199999999999999895e-04,1.800000000000000113e-04,-4.200000000000000174e-04,5.299999999999999807e-04,-3.399999999999999702e-04,6.000000000000000000e+00,2.300000000000000000e+01
5.512600000000000000e+04,-2.299999999999999799e-04,-5.999999999999999474e-05,5.999999999999999474e-05,1.199999999999999895e-04,1.800000000000000113e-04,-4.200000000000000174e-04,5.299999999999999807e-04,-3.399999999999999702e-04,6.000000000000000000e+00,2.300000000000000000e+01
5.512700000000000000e+04,-2.299999999999999799e-04,-5.999999999999999474e-05,5.999999999999999474e-05,1.199999999999999895e-04,1.800000000000000113e-04,-4.200000000000000174e-04,5.299999999999999807e-04,-3.399999999999999702e-04,6.000000000000000000e+00,2.300000000000000000e+01
5.512800000000000000e+04,-2.299999999999999799e-04,-5.999999999999999474e-05,5.999999999999999474e-05,1.199999999999999895e-04,1.800000000000000113e-04,-4.200000000000000174e-04,5.299999999999999807e-04,-3.399999999999999702e-04,6.000000000000000000e+00,2.300000000000000000e+01
5.512900000000000000e+04,-2.299999999999999799e-04,-5.999999999999999474e-05,5.999999999999999474e-05,1.199999999999999895e-04,1.800000000000000113e-04,-4.200000000000000174e-04,5.299999999999999807e-04,-3.399999999999999702e-04,6.000000000000000000e+00,2.300000000000000000e+01
5.513000000000000000e+04,-2.299999999999999799e-04,-5.999999999999999474e-05,5.999999999999999474e-05,1.199999999999999895e-04,1.800000000000000113e-04,-4.200000000000000174e-04,5.299999999999999807e-04,-3.399999999999999702e-04,6.000000000000000000e+00,2.300000000000000000e+01
5.513100000000000000e+04,-2.299999999999999799e-04,-5.999999999999999474e-05,5.999999999999999474e-05,1.199999999999999895e-04,1.800000000000000113e-04,-4.200000000000000174e-04,5.299999999999999807e-04,-3.399999999999999702e-04,6.000000000000000000e+00,2.300000000000000000e+01
5.513200000000000000e+04,-2.299999999999999799e-04,-5.999999999999999474e-05,5.999999999999999474e-05,1.199999999999999895e-04,1.800000000000000113e-04,-4.200000000000000174e-04,5.299999999999999807e-04,-3.399999999999999702e-04,6.000000000000000000e+00,2.300000000000000000e+01
5.513300000000000000e+04,-2.299999999999999799e-04,-5.999999999999999474e-05,5.999999999999999474e-05,1.199999999999999895e-04,1.800000000000000113e-04,-4.200000000000000174e-04,5.299999999999999807e-04,-3.399999999999999702e-04,6.000000000000000000e+00,2.300000000000000000e+01
5.513400000000000000e+04,-2.299999999999999799e-04,-5.999999999999999474e-05,5.999999999999999474e-05,1.199999999999999895e-04,1.800000000000000113e-04,-4.200000000000000174e-04,5.299999999999999807e-04,-3.399999999999999702e-04,6.000000000000000000e+00,2.300000000000000000e+01
5.513500000000000000e+04,-2.299999999999999799e-04,-5.999999999999999474e-05,5.999999999999999474e-05,1.199999999999999895e-04,1.800000000000000113e-04,-4.200000000000000174e-04,5.299999999999999807e-04,-3.399999999999999702e-04,6.000000000000000000e+00,2.300000000000000000e+01
5.513600000000000000e+04,-2.299999999999999799e-04,-5.999999999999999474e-05,5.999999999999999474e-05,1.199999999999999895e-04,1.800000000000000113e-04,-4.200000000000000174e-04,5.299999999999999807e-04,-3.399999999999999702e-04,6.000000000000000000e+00,2.300000000000000000e+01
5.513700000000000000e+04,-2.299999999999999799e-04,-5.999999999999999474e-05,5.999999999999999474e-05,1.199999999999999895e-04,1.800000000000000113e-04,-4.200000000000000174e-04,5.299999999999999807e-04,-3.399999999999999702e-04,6.000000000000000000e+00,2.300000000000000000e+01
5.513900000000000000e+04,-2.299999999999999799e-04,-5.999999999999999474e-05,5.999999999999999474e-05,1.199999999999999895e-04,1.800000000000000113e-04,-4.200000000000000174e-04,5.299999999999999807e-04,-3.399999999999999702e-04,6.000000000000000000e+00,2.300000000000000000e+01
5.514000000000000000e+04,-1.000000000000000082e-05,2.299999999999999799e-04,3.399999999999999702e-04,8.000000000000000654e-05,1.300000000000000157e-04,-2.600000000000000314e-04,-1.000000000000000048e-04,2.399999999999999790e-04,6.000000000000000000e+00,2.300000000000000000e+01
5.514100000000000000e+04,5.099999999999999282e-04,1.300000000000000157e-04,-2.900000000000000017e-04,-1.000000000000000048e-04,3.799999999999999667e-04,1.000000000000000048e-04,5.500000000000000331e-04,7.599999999999999334e-04,6.000000000000000000e+00,2.300000000000000000e+01
5.514200000000000000e+04,5.099999999999999282e-04,1.300000000000000157e-04,-2.900000000000000017e-04,-1.000000000000000048e-04,3.799999999999999667e-04,1.000000000000000048e-04,5.500000000000000331e-04,7.599999999999999334e-04,6.000000000000000000e+00,2.300000000000000000e+01
5.514300000000000000e+04,5.099999999999999282e-04,1.300000000000000157e-04,-2.900000000000000017e-04,-1.000000000000000048e-04,3.799999999999999667e-04,1.000000000000000048e-04,5.500000000000000331e-04,7.599999999999999334e-04,6.000000000000000000e+00,2.300000000000000000e+01
5.514400000000000000e+04,5.099999999999999282e-04,1.300000000000000157e-04,-2.900000000000000017e-04,-1.000000000000000048e-04,3.799999999999999667e-04,1.000000000000000048e-04,5.500000000000000331e-04,7.599999999999999334e-04,6.000000000000000000e+00,2.300000000000000000e+01
5.514500000000000000e+04,5.099999999999999282e-04,1.300000000000000157e-04,-2.900000000000000017e-04,-1.000000000000000048e-04,3.799999999999999667e-04,1.000000000000000048e-04,5.500000000000000331e-04,7.599999999999999334e-04,6.000000000000000000e+00,2.300000000000000000e+01
5.514600000000000000e+04,5.099999999999999282e-04,1.300000000000000157e-04,-2.900000000000000017e-04,-1.000000000000000048e-04,3.799999999999999667e-04,1.000000000000000048e-04,5.500000000000000331e-04,7.599999999999999334e-04,6.000000000000000000e+00,2.300000000000000000e+01
5.514700000000000000e+04,5.099999999999999282e-04,1.300000000000000157e-04,-2.900000000000000017e-04,-1.000000000000000048e-04,3.799999999999999667e-04,1.000000000000000048e-04,5.500000000000000331e-04,7.599999999999999334e-04,6.000000000000000000e+00,2.300000000000000000e+01
5.514800000000000000e+04,5.099999999999999282e-04,1.300000000000000157e-04,-2.900000000000000017e-04,-1.000000000000000048e-04,3.799999999999999667e-04,1.000000000000000048e-04,5.500000000000000331e-04,7.599999999999999334e-04,6.000000000000000000e+00,2.300000000000000000e+01
5.514900000000000000e+04,5.099999999999999282e-04,1.300000000000000157e-04,-2.900000000000000017e-04,-1.000000000000000048e-04,3.799999999999999667e-04,1.000000000000000048e-04,5.500000000000000331e-04,7.599999999999999334e-04,6.000000000000000000e+00,2.300000000000000000e+01
5.515000000000000000e+04,5.099999999999999282e-04,1.300000000000000157e-04,-2.900000000000000017e-04,-1.000000000000000048e-04,3.799999999999999667e-04,1.000000000000000048e-04,5.500000000000000331e-04,7.599999999999999334e-04,6.000000000000000000e+00,2.300000000000000000e+01
5.515100000000000000e+04,5.099999999999999282e-04,1.300000000000000157e-04,-2.900000000000000017e-04,-1.000000000000000048e-04,3.799999999999999667e-04,1.000000000000000048e-04,5.500000000000000331e-04,7.599999999999999334e-04,6.000000000000000000e+00,2.300000000000000000e+01
5.515200000000000000e+04,5.099999999999999282e-04,1.300000000000000157e-04,-2.900000000000000017e-04,-1.000000000000000048e-04,3.799999999999999667e-04,1.000000000000000048e-04,5.500000000000000331e-04,7.599999999999999334e-04,6.000000000000000000e+00,2.300000000000000000e+01
5.515300000000000000e+04,5.099999999999999282e-04,1.300000000000000157e-04,-2.900000000000000017e-04,-1.000000000000000048e-04,3.799999999999999667e-04,1.000000000000000048e-04,5.500000000000000331e-04,7.599999999999999334e-04,6.000000000000000000e+00,2.300000000000000000e+01
5.515400000000000000e+04,5.099999999999999282e-04,1.300000000000000157e-04,-2.900000000000000017e-04,-1.000000000000000048e-04,3.799999999999999667e-04,1.000000000000000048e-04,5.500000000000000331e-04,7.599999999999999334e-04,6.000000000000000000e+00,2.300000000000000000e+01
5.515500000000000000e+04,5.000000000000000240e-05,1.600000000000000131e-04,3.299999999999999982e-04,2.600000000000000314e-04,2.999999999999999737e-04,2.600000000000000314e-04,1.399999999999999877e-04,1.000000000000000048e-04,6.000000000000000000e+00,2.300000000000000000e+01
5.515600000000000000e+04,5.000000000000000240e-05,1.600000000000000131e-04,3.299999999999999982e-04,2.600000000000000314e-04,2.999999999999999737e-04,2.600000000000000314e-04,1.399999999999999877e-04,1.000000000000000048e-04,6.000000000000000000e+00,2.300000000000000000e+01
5.515700000000000000e+04,5.000000000000000240e-05,1.600000000000000131e-04,3.299999999999999982e-04,2.600000000000000314e-04,2.999999999999999737e-04,2.600000000000000314e-04,1.399999999999999877e-04,1.000000000000000048e-04,6.000000000000000000e+00,2.300000000000000000e+01
5.515800000000000000e+04,5.000000000000000240e-05,1.600000000000000131e-04,3.299999999999999982e-04,2.600000000000000314e-04,2.999999999999999737e-04,2.600000000000000314e-04,1.399999999999999877e-04,1.000000000000000048e-04,6.000000000000000000e+00,2.300000000000000000e+01
5.515900000000000000e+04,5.000000000000000240e-05,1.600000000000000131e-04,3.299999999999999982e-04,2.600000000000000314e-04,2.999999999999999737e-04,2.600000000000000314e-04,1.399999999999999877e-04,1.000000000000000048e-04,6.000000000000000000e+00,2.300000000000000000e+01
5.516000000000000000e+04,5.000000000000000240e-05,1.600000000000000131e-04,3.299999999999999982e-04,2.600000000000000314e-04,2.999999999999999737e-04,2.600000000000000314e-04,1.399999999999999877e-04,1.000000000000000048e-04,6.000000000000000000e+00,2.300000000000000000e+01
5.516100000000000000e+04,5.000000000000000240e-05,1.600000000000000131e-04,3.299999999999999982e-04,2.600000000000000314e-04,2.999999999999999737e-04,2.600000000000000314e-04,1.399999999999999877e-04,1.000000000000000048e-04,6.000000000000000000e+00,2.300000000000000000e+01
5.516200000000000000e+04,5.000000000000000240e-05,1.600000000000000131e-04,3.299999999999999982e-04,2.600000000000000314e-04,2.999999999999999737e-04,2.600000000000000314e-04,1.399999999999999877e-04,1.000000000000000048e-04,6.000000000000000000e+00,2.300000000000000000e+01
5.516300000000000000e+04,5.000000000000000240e-05,1.600000000000000131e-04,3.299999999999999982e-04,2.600000000000000314e-04,2.999999999999999737e-04,2.600000000000000314e-04,1.399999999999999877e-04,1.000000000000000048e-04,6.000000000000000000e+00,2.300000000000000000e+01
5.516400000000000000e+04,5.000000000000000240e-05,1.600000000000000131e-04,3.299999999999999982e-04,2.600000000000000314e-04,2.999999999999999737e-04,2.600000000000000314e-04,1.399999999999999877e-04,1.000000000000000048e-04,6.000000000000000000e+00,2.300000000000000000e+01
5.516500000000000000e+04,5.000000000000000240e-05,1.600000000000000131e-04,3.299999999999999982e-04,2.600000000000000314e-04,2.999999999999999737e-04,2.600000000000000314e-04,1.399999999999999877e-04,1.000000000000000048e-04,6.000000000000000000e+00,2.300000000000000000e+01
5.516600000000000000e+04,5.000000000000000240e-05,1.600000000000000131e-04,3.299999999999999982e-04,2.600000000000000314e-04,2.999999999999999737e-04,2.600000000000000314e-04,1.399999999999999877e-04,1.000000000000000048e-04,6.000000000000000000e+00,2.300000000000000000e+01
5.516700000000000000e+04,5.000000000000000240e-05,1.600000000000000131e-04,3.299999999999999982e-04,2.600000000000000314e-04,2.999999999999999737e-04,2.600000000000000314e-04,1.399999999999999877e-04,1.000000000000000048e-04,6.000000000000000000e+00,2.300000000000000000e+01
5.516800000000000000e+04,5.000000000000000240e-05,1.600000000000000131e-04,3.299999999999999982e-04,2.600000000000000314e-04,2.999999999999999737e-04,2.600000000000000314e-04,1.399999999999999877e-04,1.000000000000000048e-04,6.000000000000000000e+00,2.300000000000000000e+01
5.516900000000000000e+04,5.000000000000000240e-05,1.600000000000000131e-04,3.299999999999999982e-04,2.600000000000000314e-04,2.999999999999999737e-04,2.600000000000000314e-04,1.399999999999999877e-04,1.000000000000000048e-04,6.000000000000000000e+00,2.300000000000000000e+01
5.517000000000000000e+04,5.000000000000000240e-05,1.600000000000000131e-04,3.299999999999999982e-04,2.600000000000000314e-04,2.999999999999999737e-04,2.600000000000000314e-04,1.399999999999999877e-04,1.000000000000000048e-04,6.000000000000000000e+00,2.300000000000000000e+01
5.517100000000000000e+04,5.000000000000000240e-05,1.600000000000000131e-04,3.299999999999999982e-04,2.600000000000000314e-04,2.999999999999999737e-04,2.600000000000000314e-04,1.399999999999999877e-04,1.000000000000000048e-04,6.000000000000000000e+00,2.300000000000000000e+01
5.517200000000000000e+04,5.000000000000000240e-05,1.600000000000000131e-04,3.299999999999999982e-04,2.600000000000000314e-04,2.999999999999999737e-04,2.600000000000000314e-04,1.399999999999999877e-04,1.000000000000000048e-04,6.000000000000000000e+00,2.300000000000000000e+01
5.517300000000000000e+04,5.000000000000000240e-05,1.600000000000000131e-04,3.299999999999999982e-04,2.600000000000000314e-04,2.999999999999999737e-04,2.600000000000000314e-04,1.399999999999999877e-04,1.000000000000000048e-04,6.000000000000000000e+00,2.300000000000000000e+01
5.517400000000000000e+04,5.000000000000000240e-05,1.600000000000000131e-04,3.299999999999999982e-04,2.600000000000000314e-04,2.999999999999999737e-04,2.600000000000000314e-04,1.399999999999999877e-04,1.000000000000000048e-04,6.000000000000000000e+00,2.300000000000000000e+01
5.517500000000000000e+04,5.000000000000000240e-05,1.600000000000000131e-04,3.299999999999999982e-04,2.600000000000000314e-04,2.999999999999999737e-04,2.600000000000000314e-04,1.399999999999999877e-04,1.000000000000000048e-04,6.000000000000000000e+00,2.300000000000000000e+01
5.517600000000000000e+04,5.000000000000000240e-05,1.600000000000000131e-04,3.299999999999999982e-04,2.600000000000000314e-04,2.999999999999999737e-04,2.600000000000000314e-04,1.399999999999999877e-04,1.000000000000000048e-04,6.000000000000000000e+00,2.300000000000000000e+01
5.517700000000000000e+04,1.000000000000000082e-05,-1.000000000000000048e-04,-1.100000000000000039e-04,-1.699999999999999851e-04,-3.699999999999999947e-04,-1.000000000000000048e-04,8.000000000000000654e-05,6.999999999999999387e-05,6.000000000000000000e+00,2.300000000000000000e+01
5.517800000000000000e+04,-4.400000000000000157e-04,-2.500000000000000052e-04,-8.000000000000000654e-05,-1.000000000000000082e-05,-8.000000000000000654e-05,2.100000000000000087e-04,-4.000000000000000327e-05,1.800000000000000113e-04,6.000000000000000000e+00,2.300000000000000000e+01
5.517900000000000000e+04,-4.400000000000000157e-04,-2.500000000000000052e-04,-8.000000000000000654e-05,-1.000000000000000082e-05,-8.000000000000000654e-05,2.100000000000000087e-04,-4.000000000000000327e-05,1.800000000000000113e-04,6.000000000000000000e+00,2.300000000000000000e+01
5.518000000000000000e+04,-4.400000000000000157e-04,-2.500000000000000052e-04,-8.000000000000000654e-05,-1.000000000000000082e-05,-8.000000000000000654e-05,2.100000000000000087e-04,-4.000000000000000327e-05,1.800000000000000113e-04,6.000000000000000000e+00,2.300000000000000000e+01
5.518100000000000000e+04,-4.400000000000000157e-04,-2.500000000000000052e-04,-8.000000000000000654e-05,-1.000000000000000082e-05,-8.000000000000000654e-05,2.100000000000000087e-04,-4.000000000000000327e-05,1.800000000000000113e-04,6.000000000000000000e+00,2.300000000000000000e+01
5.518200000000000000e+04,-4.400000000000000157e-04,-2.500000000000000052e-04,-8.000000000000000654e-05,-1.000000000000000082e-05,-8.000000000000000654e-05,2.100000000000000087e-04,-4.000000000000000327e-05,1.800000000000000113e-04,6.000000000000000000e+00,2.300000000000000000e+01
5.518300000000000000e+04,-4.400000000000000157e-04,-2.500000000000000052e-04,-8.000000000000000654e-05,-1.000000000000000082e-05,-8.000000000000000654e-05,2.100000000000000087e-04,-4.000000000000000327e-05,1.800000000000000113e-04,6.000000000000000000e+00,2.300000000000000000e+01
5.518400000000000000e+04,-4.400000000000000157e-04,-2.500000000000000052e-04,-8.000000000000000654e-05,-1.000000000000000082e-05,-8.000000000000000654e-05,2.100000000000000087e-04,-4.000000000000000327e-05,1.800000000000000113e-04,6.000000000000000000e+00,2.300000000000000000e+01
5.518500000000000000e+04,-4.400000000000000157e-04,-2.500000000000000052e-04,-8.000000000000000654e-05,-1.000000000000000082e-05,-8.000000000000000654e-05,2.100000000000000087e-04,-4.000000000000000327e-05,1.800000000000000113e-04,6.000000000000000000e+00,2.300000000000000000e+01
5.518600000000000000e+04,-4.400000000000000157e-04,-2.500000000000000052e-04,-8.000000000000000654e-05,-1.000000000000000082e-05,-8.000000000000000654e-05,2.100000000000000087e-04,-4.000000000000000327e-05,1.800000000000000113e-04,6.000000000000000000e+00,2.300000000000000000e+01
5.518800000000000000e+04,-4.400000000000000157e-04,-2.500000000000000052e-04,-8.000000000000000654e-05,-1.000000000000000082e-05,-8.000000000000000654e-05,2.100000000000000087e-04,-4.000000000000000327e-05,1.800000000000000113e-04,6.000000000000000000e+00,2.300000000000000000e+01
5.518900000000000000e+04,-4.400000000000000157e-04,-2.500000000000000052e-04,-8.000000000000000654e-05,-1.000000000000000082e-05,-8.000000000000000654e-05,2.100000000000000087e-04,-4.000000000000000327e-05,1.800000000000000113e-04,6.000000000000000000e+00,2.300000000000000000e+01
5.519000000000000000e+04,-4.400000000000000157e-04,-2.500000000000000052e-04,-8.000000000000000654e-05,-1.000000000000000082e-05,-8.000000000000000654e-05,2.100000000000000087e-04,-4.000000000000000327e-05,1.800000000000000113e-04,6.000000000000000000e+00,2.300000000000000000e+01
5.519200000000000000e+04,-4.400000000000000157e-04,-2.500000000000000052e-04,-8.000000000000000654e-05,-1.000000000000000082e-05,-8.000000000000000654e-05,2.100000000000000087e-04,-4.000000000000000327e-05,1.800000000000000113e-04,6.000000000000000000e+00,2.300000000000000000e+01
5.519300000000000000e+04,-4.400000000000000157e-04,-2.500000000000000052e-04,-8.000000000000000654e-05,-1.000000000000000082e-05,-8.000000000000000654e-05,2.100000000000000087e-04,-4.000000000000000327e-05,1.800000000000000113e-04,6.000000000000000000e+00,2.300000000000000000e+01
5.519400000000000000e+04,-4.400000000000000157e-04,-2.500000000000000052e-04,-8.000000000000000654e-05,-1.000000000000000082e-05,-8.000000000000000654e-05,2.100000000000000087e-04,-4.000000000000000327e-05,1.800000000000000113e-04,6.000000000000000000e+00,2.300000000000000000e+01
5.519500000000000000e+04,-4.400000000000000157e-04,-2.500000000000000052e-04,-8.000000000000000654e-05,-1.000000000000000082e-05,-8.000000000000000654e-05,2.100000000000000087e-04,-4.000000000000000327e-05,1.800000000000000113e-04,6.000000000000000000e+00,2.300000000000000000e+01
5.519600000000000000e+04,-4.400000000000000157e-04,-2.500000000000000052e-04,-8.000000000000000654e-05,-1.000000000000000082e-05,-8.000000000000000654e-05,2.100000000000000087e-04,-4.000000000000000327e-05,1.800000000000000113e-04,6.000000000000000000e+00,2.300000000000000000e+01
5.519700000000000000e+04,-4.400000000000000157e-04,-2.500000000000000052e-04,-8.000000000000000654e-05,-1.000000000000000082e-05,-8.000000000000000654e-05,2.100000000000000087e-04,-4.000000000000000327e-05,1.800000000000000113e-04,6.000000000000000000e+00,2.300000000000000000e+01
5.519800000000000000e+04,-4.400000000000000157e-04,-2.500000000000000052e-04,-8.000000000000000654e-05,-1.000000000000000082e-05,-8.000000000000000654e-05,2.100000000000000087e-04,-4.000000000000000327e-05,1.800000000000000113e-04,6.000000000000000000e+00,2.300000000000000000e+01
5.519900000000000000e+04,-4.400000000000000157e-04,-2.500000000000000052e-04,-8.000000000000000654e-05,-1.000000000000000082e-05,-8.000000000000000654e-05,2.100000000000000087e-04,-4.000000000000000327e-05,1.800000000000000113e-04,6.000000000000000000e+00,2.300000000000000000e+01
5.520000000000000000e+04,6.999999999999999387e-05,-3.899999999999999929e-04,-1.300000000000000157e-04,-5.999999999999999474e-05,9.000000000000000567e-05,-2.000000000000000096e-04,1.399999999999999877e-04,1.100000000000000039e-04,6.000000000000000000e+00,2.300000000000000000e+01
5.520100000000000000e+04,6.700000000000000226e-04,-1.000000000000000082e-05,-2.999999999999999737e-05,-1.800000000000000113e-04,-7.099999999999999107e-04,-7.200000000000000453e-04,-5.800000000000000034e-04,-1.300000000000000157e-04,6.000000000000000000e+00,2.300000000000000000e+01
5.520200000000000000e+04,6.700000000000000226e-04,-1.000000000000000082e-05,-2.999999999999999737e-05,-1.800000000000000113e-04,-7.099999999999999107e-04,-7.200000000000000453e-04,-5.800000000000000034e-04,-1.300000000000000157e-04,6.000000000000000000e+00,2.300000000000000000e+01
5.520300000000000000e+04,6.700000000000000226e-04,-1.000000000000000082e-05,-2.999999999999999737e-05,-1.800000000000000113e-04,-7.099999999999999107e-04,-7.200000000000000453e-04,-5.800000000000000034e-04,-1.300000000000000157e-04,6.000000000000000000e+00,2.300000000000000000e+01
5.520400000000000000e+04,6.700000000000000226e-04,-1.000000000000000082e-05,-2.999999999999999737e-05,-1.800000000000000113e-04,-7.099999999999999107e-04,-7.200000000000000453e-04,-5.800000000000000034e-04,-1.300000000000000157e-04,6.000000000000000000e+00,2.300000000000000000e+01
5.520500000000000000e+04,6.700000000000000226e-04,-1.000000000000000082e-05,-2.999999999999999737e-05,-1.800000000000000113e-04,-7.099999999999999107e-04,-7.200000000000000453e-04,-5.800000000000000034e-04,-1.300000000000000157e-04,6.000000000000000000e+00,2.300000000000000000e+01
5.520600000000000000e+04,6.700000000000000226e-04,-1.000000000000000082e-05,-2.999999999999999737e-05,-1.800000000000000113e-04,-7.099999999999999107e-04,-7.200000000000000453e-04,-5.800000000000000034e-04,-1.300000000000000157e-04,6.000000000000000000e+00,2.300000000000000000e+01
5.520700000000000000e+04,6.700000000000000226e-04,-1.000000000000000082e-05,-2.999999999999999737e-05,-1.800000000000000113e-04,-7.099999999999999107e-04,-7.200000000000000453e-04,-5.800000000000000034e-04,-1.300000000000000157e-04,6.000000000000000000e+00,2.300000000000000000e+01
5.520800000000000000e+04,6.700000000000000226e-04,-1.000000000000000082e-05,-2.999999999999999737e-05,-1.800000000000000113e-04,-7.099999999999999107e-04,-7.200000000000000453e-04,-5.800000000000000034e-04,-1.300000000000000157e-04,6.000000000000000000e+00,2.300000000000000000e+01
5.520900000000000000e+04,6.700000000000000226e-04,-1.000000000000000082e-05,-2.999999999999999737e-05,-1.800000000000000113e-04,-7.099999999999999107e-04,-7.200000000000000453e-04,-5.800000000000000034e-04,-1.300000000000000157e-04,6.000000000000000000e+00,2.300000000000000000e+01
5.521000000000000000e+04,6.700000000000000226e-04,-1.000000000000000082e-05,-2.999999999999999737e-05,-1.800000000000000113e-04,-7.099999999999999107e-04,-7.200000000000000453e-04,-5.800000000000000034e-04,-1.300000000000000157e-04,6.000000000000000000e+00,2.300000000000000000e+01
5.521100000000000000e+04,6.700000000000000226e-04,-1.000000000000000082e-05,-2.999999999999999737e-05,-1.800000000000000113e-04,-7.099999999999999107e-04,-7.200000000000000453e-04,-5.800000000000000034e-04,-1.300000000000000157e-04,6.000000000000000000e+00,2.300000000000000000e+01
5.521200000000000000e+04,6.700000000000000226e-04,-1.000000000000000082e-05,-2.999999999999999737e-05,-1.800000000000000113e-04,-7.099999999999999107e-04,-7.200000000000000453e-04,-5.800000000000000034e-04,-1.300000000000000157e-04,6.000000000000000000e+00,2.300000000000000000e+01
5.521300000000000000e+04,6.700000000000000226e-04,-1.000000000000000082e-05,-2.999999999999999737e-05,-1.800000000000000113e-04,-7.099999999999999107e-04,-7.200000000000000453e-04,-5.800000000000000034e-04,-1.300000000000000157e-04,6.000000000000000000e+00,2.300000000000000000e+01
5.521400000000000000e+04,-1.000000000000000082e-05,5.999999999999999474e-05,4.000000000000000327e-05,5.000000000000000240e-05,6.999999999999999387e-05,1.000000000000000048e-04,4.400000000000000157e-04,-1.399999999999999877e-04,6.000000000000000000e+00,2.300000000000000000e+01
5.521500000000000000e+04,-1.000000000000000082e-05,5.999999999999999474e-05,4.000000000000000327e-05,5.000000000000000240e-05,6.999999999999999387e-05,1.000000000000000048e-04,4.400000000000000157e-04,-1.399999999999999877e-04,6.000000000000000000e+00,2.300000000000000000e+01
5.521600000000000000e+04,-1.000000000000000082e-05,5.999999999999999474e-05,4.000000000000000327e-05,5.000000000000000240e-05,6.999999999999999387e-05,1.000000000000000048e-04,4.400000000000000157e-04,-1.399999999999999877e-04,6.000000000000000000e+00,2.300000000000000000e+01
5.521700000000000000e+04,-1.000000000000000082e-05,5.999999999999999474e-05,4.000000000000000327e-05,5.000000000000000240e-05,6.999999999999999387e-05,1.000000000000000048e-04,4.400000000000000157e-04,-1.399999999999999877e-04,6.000000000000000000e+00,2.300000000000000000e+01
5.521800000000000000e+04,-1.000000000000000082e-05,5.999999999999999474e-05,4.000000000000000327e-05,5.000000000000000240e-05,6.999999999999999387e-05,1.000000000000000048e-04,4.400000000000000157e-04,-1.399999999999999877e-04,6.000000000000000000e+00,2.300000000000000000e+01
5.521900000000000000e+04,-1.000000000000000082e-05,5.999999999999999474e-05,4.000000000000000327e-05,5.000000000000000240e-05,6.999999999999999387e-05,1.000000000000000048e-04,4.400000000000000157e-04,-1.399999999999999877e-04,6.000000000000000000e+00,2.300000000000000000e+01
5.522000000000000000e+04,-1.000000000000000082e-05,5.999999999999999474e-05,4.000000000000000327e-05,5.000000000000000240e-05,6.999999999999999387e-05,1.000000000000000048e-04,4.400000000000000157e-04,-1.399999999999999877e-04,6.000000000000000000e+00,2.300000000000000000e+01
5.522100000000000000e+04,-1.000000000000000082e-05,5.999999999999999474e-05,4.000000000000000327e-05,5.000000000000000240e-05,6.999999999999999387e-05,1.000000000000000048e-04,4.400000000000000157e-04,-1.399999999999999877e-04,6.000000000000000000e+00,2.300000000000000000e+01
5.522200000000000000e+04,2.999999999999999737e-04,2.700000000000000035e-04,5.999999999999999474e-05,-1.000000000000000082e-05,-4.299999999999999894e-04,-4.799999999999999580e-04,1.000000000000000048e-04,-1.499999999999999869e-04,6.000000000000000000e+00,2.300000000000000000e+01
5.522300000000000000e+04,2.999999999999999737e-04,2.700000000000000035e-04,5.999999999999999474e-05,-1.000000000000000082e-05,-4.299999999999999894e-04,-4.799999999999999580e-04,1.000000000000000048e-04,-1.499999999999999869e-04,6.000000000000000000e+00,2.300000000000000000e+01
5.522400000000000000e+04,2.999999999999999737e-04,2.700000000000000035e-04,5.999999999999999474e-05,-1.000000000000000082e-05,-4.299999999999999894e-04,-4.799999999999999580e-04,1.000000000000000048e-04,-1.499999999999999869e-04,6.000000000000000000e+00,2.300000000000000000e+01
5.522500000000000000e+04,2.999999999999999737e-04,2.700000000000000035e-04,5.999999999999999474e-05,-1.000000000000000082e-05,-4.299999999999999894e-04,-4.799999999999999580e-04,1.000000000000000048e-04,-1.499999999999999869e-04,6.000000000000000000e+00,2.300000000000000000e+01
5.522600000000000000e+04,2.999999999999999737e-04,2.700000000000000035e-04,5.999999999999999474e-05,-1.000000000000000082e-05,-4.299999999999999894e-04,-4.799999999999999580e-04,1.000000000000000048e-04,-1.499999999999999869e-04,6.000000000000000000e+00,2.300000000000000000e+01
5.522700000000000000e+04,2.999999999999999737e-04,2.700000000000000035e-04,5.999999999999999474e-05,-1.000000000000000082e-05,-4.299999999999999894e-04,-4.799999999999999580e-04,1.000000000000000048e-04,-1.499999999999999869e-04,6.000000000000000000e+00,2.300000000000000000e+01
5.522800000000000000e+04,2.999999999999999737e-04,2.700000000000000035e-04,5.999999999999999474e-05,-1.000000000000000082e-05,-4.299999999999999894e-04,-4.799999999999999580e-04,1.000000000000000048e-04,-1.499999999999999869e-04,6.000000000000000000e+00,2.300000000000000000e+01
5.522900000000000000e+04,2.999999999999999737e-04,2.700000000000000035e-04,5.999999999999999474e-05,-1.000000000000000082e-05,-4.299999999999999894e-04,-4.799999999999999580e-04,1.000000000000000048e-04,-1.499999999999999869e-04,6.000000000000000000e+00,2.300000000000000000e+01
5.523000000000000000e+04,2.999999999999999737e-04,2.700000000000000035e-04,5.999999999999999474e-05,-1.000000000000000082e-05,-4.299999999999999894e-04,-4.799999999999999580e-04,1.000000000000000048e-04,-1.499999999999999869e-04,6.000000000000000000e+00,2.300000000000000000e+01
5.523100000000000000e+04,2.999999999999999737e-04,2.700000000000000035e-04,5.999999999999999474e-05,-1.000000000000000082e-05,-4.299999999999999894e-04,-4.799999999999999580e-04,1.000000000000000048e-04,-1.499999999999999869e-04,6.000000000000000000e+00,2.300000000000000000e+01
5.523200000000000000e+04,2.999999999999999737e-04,2.700000000000000035e-04,5.999999999999999474e-05,-1.000000000000000082e-05,-4.299999999999999894e-04,-4.799999999999999580e-04,1.000000000000000048e-04,-1.499999999999999869e-04,6.000000000000000000e+00,2.300000000000000000e+01
5.523300000000000000e+04,2.999999999999999737e-04,2.700000000000000035e-04,5.999999999999999474e-05,-1.000000000000000082e-05,-4.299999999999999894e-04,-4.799999999999999580e-04,1.000000000000000048e-04,-1.499999999999999869e-04,6.000000000000000000e+00,2.300000000000000000e+01
5.523400000000000000e+04,2.999999999999999737e-04,2.700000000000000035e-04,5.999999999999999474e-05,-1.000000000000000082e-05,-4.299999999999999894e-04,-4.799999999999999580e-04,1.000000000000000048e-04,-1.499999999999999869e-04,6.000000000000000000e+00,2.300000000000000000e+01
5.523500000000000000e+04,2.999999999999999737e-04,2.700000000000000035e-04,5.999999999999999474e-05,-1.000000000000000082e-05,-4.299999999999999894e-04,-4.799999999999999580e-04,1.000000000000000048e-04,-1.499999999999999869e-04,6.000000000000000000e+00,2.300000000000000000e+01
5.523600000000000000e+04,2.999999999999999737e-04,2.700000000000000035e-04,5.999999999999999474e-05,-1.000000000000000082e-05,-4.299999999999999894e-04,-4.799999999999999580e-04,1.000000000000000048e-04,-1.499999999999999869e-04,6.000000000000000000e+00,2.300000000000000000e+01
