6.882200000000000000e+04,4.000000000000000327e-05,0.000000000000000000e+00,5.000000000000000240e-05,-1.100000000000000039e-04,-3.499999999999999964e-04,-6.199999999999999999e-04,-6.999999999999999387e-05,-2.999999999999999737e-05,7.000000000000000000e+00,2.700000000000000000e+01
6.882300000000000000e+04,4.000000000000000327e-05,0.000000000000000000e+00,5.000000000000000240e-05,-1.100000000000000039e-04,-3.499999999999999964e-04,-6.199999999999999999e-04,-6.999999999999999387e-05,-2.999999999999999737e-05,7.000000000000000000e+00,2.700000000000000000e+01
6.882400000000000000e+04,4.000000000000000327e-05,0.000000000000000000e+00,5.000000000000000240e-05,-1.100000000000000039e-04,-3.499999999999999964e-04,-6.199999999999999999e-04,-6.999999999999999387e-05,-2.999999999999999737e-05,7.000000000000000000e+00,2.700000000000000000e+01
6.882500000000000000e+04,4.000000000000000327e-05,0.000000000000000000e+00,5.000000000000000240e-05,-1.100000000000000039e-04,-3.499999999999999964e-04,-6.199999999999999999e-04,-6.999999999999999387e-05,-2.999999999999999737e-05,7.000000000000000000e+00,2.700000000000000000e+01
6.882600000000000000e+04,4.000000000000000327e-05,0.000000000000000000e+00,5.000000000000000240e-05,-1.100000000000000039e-04,-3.499999999999999964e-04,-6.199999999999999999e-04,-6.999999999999999387e-05,-2.999999999999999737e-05,7.000000000000000000e+00,2.700000000000000000e+01
6.882700000000000000e+04,4.000000000000000327e-05,0.000000000000000000e+00,5.000000000000000240e-05,-1.100000000000000039e-04,-3.499999999999999964e-04,-6.199999999999999999e-04,-6.999999999999999387e-05,-2.999999999999999737e-05,7.000000000000000000e+00,2.700000000000000000e+01
6.882800000000000000e+04,4.000000000000000327e-05,0.000000000000000000e+00,5.000000000000000240e-05,-1.100000000000000039e-04,-3.499999999999999964e-04,-6.199999999999999999e-04,-6.999999999999999387e-05,-2.999999999999999737e-05,7.000000000000000000e+00,2.700000000000000000e+01
6.882900000000000000e+04,4.000000000000000327e-05,0.000000000000000000e+00,5.000000000000000240e-05,-1.100000000000000039e-04,-3.499999999999999964e-04,-6.199999999999999999e-04,-6.999999999999999387e-05,-2.999999999999999737e-05,7.000000000000000000e+00,2.700000000000000000e+01
6.883000000000000000e+04,4.000000000000000327e-05,0.000000000000000000e+00,5.000000000000000240e-05,-1.100000000000000039e-04,-3.499999999999999964e-04,-6.199999999999999999e-04,-6.999999999999999387e-05,-2.999999999999999737e-05,7.000000000000000000e+00,2.700000000000000000e+01
6.883100000000000000e+04,4.000000000000000327e-05,0.000000000000000000e+00,5.000000000000000240e-05,-1.100000000000000039e-04,-3.499999999999999964e-04,-6.199999999999999999e-04,-6.999999999999999387e-05,-2.999999999999999737e-05,7.000000000000000000e+00,2.700000000000000000e+01
6.883200000000000000e+04,4.000000000000000327e-05,0.000000000000000000e+00,5.000000000000000240e-05,-1.100000000000000039e-04,-3.499999999999999964e-04,-6.199999999999999999e-04,-6.999999999999999387e-05,-2.999999999999999737e-05,7.000000000000000000e+00,2.700000000000000000e+01
6.883300000000000000e+04,-2.000000000000000164e-05,-2.000000000000000164e-05,-1.000000000000000082e-05,2.000000000000000096e-04,1.899999999999999834e-04,5.000000000000000240e-05,-2.000000000000000164e-05,-8.000000000000000654e-05,7.000000000000000000e+00,2.700000000000000000e+01
6.883400000000000000e+04,-2.000000000000000164e-05,-2.000000000000000164e-05,-1.000000000000000082e-05,2.000000000000000096e-04,1.899999999999999834e-04,5.000000000000000240e-05,-2.000000000000000164e-05,-8.000000000000000654e-05,7.000000000000000000e+00,2.700000000000000000e+01
6.883500000000000000e+04,-2.000000000000000164e-05,-2.000000000000000164e-05,-1.000000000000000082e-05,2.000000000000000096e-04,1.899999999999999834e-04,5.000000000000000240e-05,-2.000000000000000164e-05,-8.000000000000000654e-05,7.000000000000000000e+00,2.700000000000000000e+01
6.883600000000000000e+04,-2.000000000000000164e-05,-2.000000000000000164e-05,-1.000000000000000082e-05,2.000000000000000096e-04,1.899999999999999834e-04,5.000000000000000240e-05,-2.000000000000000164e-05,-8.000000000000000654e-05,7.000000000000000000e+00,2.700000000000000000e+01
6.883800000000000000e+04,-2.000000000000000164e-05,-2.000000000000000164e-05,-1.000000000000000082e-05,2.000000000000000096e-04,1.899999999999999834e-04,5.000000000000000240e-05,-2.000000000000000164e-05,-8.000000000000000654e-05,7.000000000000000000e+00,2.700000000000000000e+01
6.883900000000000000e+04,-2.000000000000000164e-05,-2.000000000000000164e-05,-1.000000000000000082e-05,2.000000000000000096e-04,1.899999999999999834e-04,5.000000000000000240e-05,-2.000000000000000164e-05,-8.000000000000000654e-05,7.000000000000000000e+00,2.700000000000000000e+01
6.884000000000000000e+04,-2.000000000000000164e-05,-2.000000000000000164e-05,-1.000000000000000082e-05,2.000000000000000096e-04,1.899999999999999834e-04,5.000000000000000240e-05,-2.000000000000000164e-05,-8.000000000000000654e-05,7.000000000000000000e+00,2.700000000000000000e+01
6.884100000000000000e+04,1.000000000000000082e-05,1.000000000000000082e-05,4.000000000000000327e-05,-1.399999999999999877e-04,-2.100000000000000087e-04,5.000000000000000240e-05,-4.000000000000000327e-05,-9.000000000000000567e-05,7.000000000000000000e+00,2.700000000000000000e+01
6.884200000000000000e+04,1.000000000000000082e-05,1.000000000000000082e-05,4.000000000000000327e-05,-1.399999999999999877e-04,-2.100000000000000087e-04,5.000000000000000240e-05,-4.000000000000000327e-05,-9.000000000000000567e-05,7.000000000000000000e+00,2.700000000000000000e+01
6.884300000000000000e+04,1.000000000000000082e-05,1.000000000000000082e-05,4.000000000000000327e-05,-1.399999999999999877e-04,-2.100000000000000087e-04,5.000000000000000240e-05,-4.000000000000000327e-05,-9.000000000000000567e-05,7.000000000000000000e+00,2.700000000000000000e+01
6.884400000000000000e+04,1.000000000000000082e-05,1.000000000000000082e-05,4.000000000000000327e-05,-1.399999999999999877e-04,-2.100000000000000087e-04,5.000000000000000240e-05,-4.000000000000000327e-05,-9.000000000000000567e-05,7.000000000000000000e+00,2.700000000000000000e+01
6.884500000000000000e+04,1.000000000000000082e-05,1.000000000000000082e-05,4.000000000000000327e-05,-1.399999999999999877e-04,-2.100000000000000087e-04,5.000000000000000240e-05,-4.000000000000000327e-05,-9.000000000000000567e-05,7.000000000000000000e+00,2.700000000000000000e+01
6.884600000000000000e+04,1.000000000000000082e-05,1.000000000000000082e-05,4.000000000000000327e-05,-1.399999999999999877e-04,-2.100000000000000087e-04,5.000000000000000240e-05,-4.000000000000000327e-05,-9.000000000000000567e-05,7.000000000000000000e+00,2.700000000000000000e+01
6.884700000000000000e+04,1.000000000000000082e-05,1.000000000000000082e-05,4.000000000000000327e-05,-1.399999999999999877e-04,-2.100000000000000087e-04,5.000000000000000240e-05,-4.000000000000000327e-05,-9.000000000000000567e-05,7.000000000000000000e+00,2.700000000000000000e+01
6.884800000000000000e+04,1.000000000000000082e-05,1.000000000000000082e-05,4.000000000000000327e-05,-1.399999999999999877e-04,-2.100000000000000087e-04,5.000000000000000240e-05,-4.000000000000000327e-05,-9.000000000000000567e-05,7.000000000000000000e+00,2.700000000000000000e+01
6.884900000000000000e+04,1.000000000000000082e-05,1.000000000000000082e-05,4.000000000000000327e-05,-1.399999999999999877e-04,-2.100000000000000087e-04,5.000000000000000240e-05,-4.000000000000000327e-05,-9.000000000000000567e-05,7.000000000000000000e+00,2.700000000000000000e+01
6.885000000000000000e+04,1.000000000000000082e-05,1.000000000000000082e-05,4.000000000000000327e-05,-1.399999999999999877e-04,-2.100000000000000087e-04,5.000000000000000240e-05,-4.000000000000000327e-05,-9.000000000000000567e-05,7.000000000000000000e+00,2.700000000000000000e+01
6.885100000000000000e+04,1.000000000000000082e-05,1.000000000000000082e-05,4.000000000000000327e-05,-1.399999999999999877e-04,-2.100000000000000087e-04,5.000000000000000240e-05,-4.000000000000000327e-05,-9.000000000000000567e-05,7.000000000000000000e+00,2.700000000000000000e+01
6.885200000000000000e+04,1.000000000000000082e-05,1.000000000000000082e-05,4.000000000000000327e-05,-1.399999999999999877e-04,-2.100000000000000087e-04,5.000000000000000240e-05,-4.000000000000000327e-05,-9.000000000000000567e-05,7.000000000000000000e+00,2.700000000000000000e+01
6.885300000000000000e+04,1.000000000000000082e-05,1.000000000000000082e-05,4.000000000000000327e-05,-1.399999999999999877e-04,-2.100000000000000087e-04,5.000000000000000240e-05,-4.000000000000000327e-05,-9.000000000000000567e-05,7.000000000000000000e+00,2.700000000000000000e+01
6.885400000000000000e+04,1.000000000000000082e-05,1.000000000000000082e-05,4.000000000000000327e-05,-1.399999999999999877e-04,-2.100000000000000087e-04,5.000000000000000240e-05,-4.000000000000000327e-05,-9.000000000000000567e-05,7.000000000000000000e+00,2.700000000000000000e+01
6.885500000000000000e+04,1.000000000000000082e-05,1.000000000000000082e-05,4.000000000000000327e-05,-1.399999999999999877e-04,-2.100000000000000087e-04,5.000000000000000240e-05,-4.000000000000000327e-05,-9.000000000000000567e-05,7.000000000000000000e+00,2.700000000000000000e+01
6.885600000000000000e+04,-9.000000000000000567e-05,-5.000000000000000240e-05,-5.000000000000000240e-05,-2.999999999999999737e-05,-4.299999999999999894e-04,-1.000000000000000082e-05,2.000000000000000164e-05,0.000000000000000000e+00,7.000000000000000000e+00,2.700000000000000000e+01
6.885700000000000000e+04,5.000000000000000240e-05,2.999999999999999737e-05,4.000000000000000327e-05,1.300000000000000157e-04,1.199999999999999895e-04,1.100000000000000039e-04,4.000000000000000327e-05,1.600000000000000131e-04,7.000000000000000000e+00,2.700000000000000000e+01
6.885800000000000000e+04,5.000000000000000240e-05,2.999999999999999737e-05,4.000000000000000327e-05,1.300000000000000157e-04,1.199999999999999895e-04,1.100000000000000039e-04,4.000000000000000327e-05,1.600000000000000131e-04,7.000000000000000000e+00,2.700000000000000000e+01
6.885900000000000000e+04,5.000000000000000240e-05,2.999999999999999737e-05,4.000000000000000327e-05,1.300000000000000157e-04,1.199999999999999895e-04,1.100000000000000039e-04,4.000000000000000327e-05,1.600000000000000131e-04,7.000000000000000000e+00,2.700000000000000000e+01
6.886000000000000000e+04,5.000000000000000240e-05,2.999999999999999737e-05,4.000000000000000327e-05,1.300000000000000157e-04,1.199999999999999895e-04,1.100000000000000039e-04,4.000000000000000327e-05,1.600000000000000131e-04,7.000000000000000000e+00,2.700000000000000000e+01
6.886100000000000000e+04,5.000000000000000240e-05,2.999999999999999737e-05,4.000000000000000327e-05,1.300000000000000157e-04,1.199999999999999895e-04,1.100000000000000039e-04,4.000000000000000327e-05,1.600000000000000131e-04,7.000000000000000000e+00,2.700000000000000000e+01
6.886200000000000000e+04,5.000000000000000240e-05,2.999999999999999737e-05,4.000000000000000327e-05,1.300000000000000157e-04,1.199999999999999895e-04,1.100000000000000039e-04,4.000000000000000327e-05,1.600000000000000131e-04,7.000000000000000000e+00,2.700000000000000000e+01
6.886300000000000000e+04,5.000000000000000240e-05,2.999999999999999737e-05,4.000000000000000327e-05,1.300000000000000157e-04,1.199999999999999895e-04,1.100000000000000039e-04,4.000000000000000327e-05,1.600000000000000131e-04,7.000000000000000000e+00,2.700000000000000000e+01
6.886400000000000000e+04,5.000000000000000240e-05,2.999999999999999737e-05,4.000000000000000327e-05,1.300000000000000157e-04,1.199999999999999895e-04,1.100000000000000039e-04,4.000000000000000327e-05,1.600000000000000131e-04,7.000000000000000000e+00,2.700000000000000000e+01
6.886500000000000000e+04,5.000000000000000240e-05,2.999999999999999737e-05,4.000000000000000327e-05,1.300000000000000157e-04,1.199999999999999895e-04,1.100000000000000039e-04,4.000000000000000327e-05,1.600000000000000131e-04,7.000000000000000000e+00,2.700000000000000000e+01
6.886600000000000000e+04,5.000000000000000240e-05,2.999999999999999737e-05,4.000000000000000327e-05,1.300000000000000157e-04,1.199999999999999895e-04,1.100000000000000039e-04,4.000000000000000327e-05,1.600000000000000131e-04,7.000000000000000000e+00,2.700000000000000000e+01
6.886700000000000000e+04,5.000000000000000240e-05,2.999999999999999737e-05,4.000000000000000327e-05,1.300000000000000157e-04,1.199999999999999895e-04,1.100000000000000039e-04,4.000000000000000327e-05,1.600000000000000131e-04,7.000000000000000000e+00,2.700000000000000000e+01
6.886800000000000000e+04,5.000000000000000240e-05,2.999999999999999737e-05,4.000000000000000327e-05,1.300000000000000157e-04,1.199999999999999895e-04,1.100000000000000039e-04,4.000000000000000327e-05,1.600000000000000131e-04,7.000000000000000000e+00,2.700000000000000000e+01
6.886900000000000000e+04,5.000000000000000240e-05,2.999999999999999737e-05,4.000000000000000327e-05,1.300000000000000157e-04,1.199999999999999895e-04,1.100000000000000039e-04,4.000000000000000327e-05,1.600000000000000131e-04,7.000000000000000000e+00,2.700000000000000000e+01
6.887000000000000000e+04,5.000000000000000240e-05,2.999999999999999737e-05,4.000000000000000327e-05,1.300000000000000157e-04,1.199999999999999895e-04,1.100000000000000039e-04,4.000000000000000327e-05,1.600000000000000131e-04,7.000000000000000000e+00,2.700000000000000000e+01
6.887100000000000000e+04,5.000000000000000240e-05,2.999999999999999737e-05,4.000000000000000327e-05,1.300000000000000157e-04,1.199999999999999895e-04,1.100000000000000039e-04,4.000000000000000327e-05,1.600000000000000131e-04,7.000000000000000000e+00,2.700000000000000000e+01
6.887200000000000000e+04,5.000000000000000240e-05,2.999999999999999737e-05,4.000000000000000327e-05,1.300000000000000157e-04,1.199999999999999895e-04,1.100000000000000039e-04,4.000000000000000327e-05,1.600000000000000131e-04,7.000000000000000000e+00,2.700000000000000000e+01
6.887300000000000000e+04,5.000000000000000240e-05,2.999999999999999737e-05,4.000000000000000327e-05,1.300000000000000157e-04,1.199999999999999895e-04,1.100000000000000039e-04,4.000000000000000327e-05,1.600000000000000131e-04,7.000000000000000000e+00,2.700000000000000000e+01
6.887400000000000000e+04,5.000000000000000240e-05,2.999999999999999737e-05,4.000000000000000327e-05,1.300000000000000157e-04,1.199999999999999895e-04,1.100000000000000039e-04,4.000000000000000327e-05,1.600000000000000131e-04,7.000000000000000000e+00,2.700000000000000000e+01
6.887500000000000000e+04,5.000000000000000240e-05,2.999999999999999737e-05,4.000000000000000327e-05,1.300000000000000157e-04,1.199999999999999895e-04,1.100000000000000039e-04,4.000000000000000327e-05,1.600000000000000131e-04,7.000000000000000000e+00,2.700000000000000000e+01
6.887600000000000000e+04,5.000000000000000240e-05,2.999999999999999737e-05,4.000000000000000327e-05,1.300000000000000157e-04,1.199999999999999895e-04,1.100000000000000039e-04,4.000000000000000327e-05,1.600000000000000131e-04,7.000000000000000000e+00,2.700000000000000000e+01
6.887700000000000000e+04,5.000000000000000240e-05,2.999999999999999737e-05,4.000000000000000327e-05,1.300000000000000157e-04,1.199999999999999895e-04,1.100000000000000039e-04,4.000000000000000327e-05,1.600000000000000131e-04,7.000000000000000000e+00,2.700000000000000000e+01
6.887800000000000000e+04,5.000000000000000240e-05,2.999999999999999737e-05,4.000000000000000327e-05,1.300000000000000157e-04,1.199999999999999895e-04,1.100000000000000039e-04,4.000000000000000327e-05,1.600000000000000131e-04,7.000000000000000000e+00,2.700000000000000000e+01
6.887900000000000000e+04,2.000000000000000164e-05,-2.000000000000000164e-05,-9.000000000000000567e-05,-2.000000000000000096e-04,-2.000000000000000096e-04,1.300000000000000157e-04,-2.000000000000000164e-05,2.999999999999999737e-05,7.000000000000000000e+00,2.700000000000000000e+01
6.888000000000000000e+04,-2.999999999999999737e-05,-2.999999999999999737e-05,5.000000000000000240e-05,1.600000000000000131e-04,4.200000000000000174e-04,-5.299999999999999807e-04,2.000000000000000164e-05,1.000000000000000048e-04,7.000000000000000000e+00,2.700000000000000000e+01
6.888100000000000000e+04,-2.999999999999999737e-05,-2.999999999999999737e-05,5.000000000000000240e-05,1.600000000000000131e-04,4.200000000000000174e-04,-5.299999999999999807e-04,2.000000000000000164e-05,1.000000000000000048e-04,7.000000000000000000e+00,2.700000000000000000e+01
6.888200000000000000e+04,-2.999999999999999737e-05,-2.999999999999999737e-05,5.000000000000000240e-05,1.600000000000000131e-04,4.200000000000000174e-04,-5.299999999999999807e-04,2.000000000000000164e-05,1.000000000000000048e-04,7.000000000000000000e+00,2.700000000000000000e+01
6.888300000000000000e+04,-2.999999999999999737e-05,-2.999999999999999737e-05,5.000000000000000240e-05,1.600000000000000131e-04,4.200000000000000174e-04,-5.299999999999999807e-04,2.000000000000000164e-05,1.000000000000000048e-04,7.000000000000000000e+00,2.700000000000000000e+01
6.888400000000000000e+04,-2.999999999999999737e-05,-2.999999999999999737e-05,5.000000000000000240e-05,1.600000000000000131e-04,4.200000000000000174e-04,-5.299999999999999807e-04,2.000000000000000164e-05,1.000000000000000048e-04,7.000000000000000000e+00,2.700000000000000000e+01
6.888500000000000000e+04,-2.999999999999999737e-05,-2.999999999999999737e-05,5.000000000000000240e-05,1.600000000000000131e-04,4.200000000000000174e-04,-5.299999999999999807e-04,2.000000000000000164e-05,1.000000000000000048e-04,7.000000000000000000e+00,2.700000000000000000e+01
6.888600000000000000e+04,-2.999999999999999737e-05,-2.999999999999999737e-05,5.000000000000000240e-05,1.600000000000000131e-04,4.200000000000000174e-04,-5.299999999999999807e-04,2.000000000000000164e-05,1.000000000000000048e-04,7.000000000000000000e+00,2.700000000000000000e+01
6.888800000000000000e+04,-2.999999999999999737e-05,-2.999999999999999737e-05,5.000000000000000240e-05,1.600000000000000131e-04,4.200000000000000174e-04,-5.299999999999999807e-04,2.000000000000000164e-05,1.000000000000000048e-04,7.000000000000000000e+00,2.700000000000000000e+01
6.888900000000000000e+04,-2.999999999999999737e-05,-2.999999999999999737e-05,5.000000000000000240e-05,1.600000000000000131e-04,4.200000000000000174e-04,-5.299999999999999807e-04,2.000000000000000164e-05,1.000000000000000048e-04,7.000000000000000000e+00,2.700000000000000000e+01
6.889000000000000000e+04,-2.999999999999999737e-05,-2.999999999999999737e-05,5.000000000000000240e-05,1.600000000000000131e-04,4.200000000000000174e-04,-5.299999999999999807e-04,2.000000000000000164e-05,1.000000000000000048e-04,7.000000000000000000e+00,2.700000000000000000e+01
6.889100000000000000e+04,-2.999999999999999737e-05,-2.999999999999999737e-05,5.000000000000000240e-05,1.600000000000000131e-04,4.200000000000000174e-04,-5.299999999999999807e-04,2.000000000000000164e-05,1.000000000000000048e-04,7.000000000000000000e+00,2.700000000000000000e+01
6.889200000000000000e+04,-2.999999999999999737e-05,-2.999999999999999737e-05,5.000000000000000240e-05,1.600000000000000131e-04,4.200000000000000174e-04,-5.299999999999999807e-04,2.000000000000000164e-05,1.000000000000000048e-04,7.000000000000000000e+00,2.700000000000000000e+01
6.889300000000000000e+04,-1.000000000000000082e-05,1.000000000000000082e-05,-6.999999999999999387e-05,-2.100000000000000087e-04,1.699999999999999851e-04,-6.599999999999999964e-04,1.000000000000000082e-05,-2.999999999999999737e-05,7.000000000000000000e+00,2.700000000000000000e+01
6.889400000000000000e+04,-1.000000000000000082e-05,1.000000000000000082e-05,-6.999999999999999387e-05,-2.100000000000000087e-04,1.699999999999999851e-04,-6.599999999999999964e-04,1.000000000000000082e-05,-2.999999999999999737e-05,7.000000000000000000e+00,2.700000000000000000e+01
6.889500000000000000e+04,-1.000000000000000082e-05,1.000000000000000082e-05,-6.999999999999999387e-05,-2.100000000000000087e-04,1.699999999999999851e-04,-6.599999999999999964e-04,1.000000000000000082e-05,-2.999999999999999737e-05,7.000000000000000000e+00,2.700000000000000000e+01
6.889600000000000000e+04,-1.000000000000000082e-05,1.000000000000000082e-05,-6.999999999999999387e-05,-2.100000000000000087e-04,1.699999999999999851e-04,-6.599999999999999964e-04,1.000000000000000082e-05,-2.999999999999999737e-05,7.000000000000000000e+00,2.700000000000000000e+01
6.889700000000000000e+04,-1.000000000000000082e-05,1.000000000000000082e-05,-6.999999999999999387e-05,-2.100000000000000087e-04,1.699999999999999851e-04,-6.599999999999999964e-04,1.000000000000000082e-05,-2.999999999999999737e-05,7.000000000000000000e+00,2.700000000000000000e+01
6.889800000000000000e+04,-1.000000000000000082e-05,1.000000000000000082e-05,-6.999999999999999387e-05,-2.100000000000000087e-04,1.699999999999999851e-04,-6.599999999999999964e-04,1.000000000000000082e-05,-2.999999999999999737e-05,7.000000000000000000e+00,2.700000000000000000e+01
6.889900000000000000e+04,-1.000000000000000082e-05,1.000000000000000082e-05,-6.999999999999999387e-05,-2.100000000000000087e-04,1.699999999999999851e-04,-6.599999999999999964e-04,1.000000000000000082e-05,-2.999999999999999737e-05,7.000000000000000000e+00,2.700000000000000000e+01
6.890000000000000000e+04,-1.000000000000000082e-05,1.000000000000000082e-05,-6.999999999999999387e-05,-2.100000000000000087e-04,1.699999999999999851e-04,-6.599999999999999964e-04,1.000000000000000082e-05,-2.999999999999999737e-05,7.000000000000000000e+00,2.700000000000000000e+01
6.890100000000000000e+04,-1.000000000000000048e-04,-5.000000000000000240e-05,-4.000000000000000327e-05,-2.000000000000000096e-04,2.000000000000000164e-05,2.399999999999999790e-04,-6.999999999999999387e-05,-3.600000000000000227e-04,7.000000000000000000e+00,2.700000000000000000e+01
6.890200000000000000e+04,-1.000000000000000048e-04,-5.000000000000000240e-05,-4.000000000000000327e-05,-2.000000000000000096e-04,2.000000000000000164e-05,2.399999999999999790e-04,-6.999999999999999387e-05,-3.600000000000000227e-04,7.000000000000000000e+00,2.700000000000000000e+01
6.890300000000000000e+04,-1.000000000000000048e-04,-5.000000000000000240e-05,-4.000000000000000327e-05,-2.000000000000000096e-04,2.000000000000000164e-05,2.399999999999999790e-04,-6.999999999999999387e-05,-3.600000000000000227e-04,7.000000000000000000e+00,2.700000000000000000e+01
6.890400000000000000e+04,-1.000000000000000048e-04,-5.000000000000000240e-05,-4.000000000000000327e-05,-2.000000000000000096e-04,2.000000000000000164e-05,2.399999999999999790e-04,-6.999999999999999387e-05,-3.600000000000000227e-04,7.000000000000000000e+00,2.700000000000000000e+01
6.890500000000000000e+04,-1.000000000000000048e-04,-5.000000000000000240e-05,-4.000000000000000327e-05,-2.000000000000000096e-04,2.000000000000000164e-05,2.399999999999999790e-04,-6.999999999999999387e-05,-3.600000000000000227e-04,7.000000000000000000e+00,2.700000000000000000e+01
6.890600000000000000e+04,-1.000000000000000048e-04,-5.000000000000000240e-05,-4.000000000000000327e-05,-2.000000000000000096e-04,2.000000000000000164e-05,2.399999999999999790e-04,-6.999999999999999387e-05,-3.600000000000000227e-04,7.000000000000000000e+00,2.700000000000000000e+01
6.890700000000000000e+04,-1.000000000000000048e-04,-5.000000000000000240e-05,-4.000000000000000327e-05,-2.000000000000000096e-04,2.000000000000000164e-05,2.399999999999999790e-04,-6.999999999999999387e-05,-3.600000000000000227e-04,7.000000000000000000e+00,2.700000000000000000e+01
6.890800000000000000e+04,-1.000000000000000048e-04,-5.000000000000000240e-05,-4.000000000000000327e-05,-2.000000000000000096e-04,2.000000000000000164e-05,2.399999999999999790e-04,-6.999999999999999387e-05,-3.600000000000000227e-04,7.000000000000000000e+00,2.700000000000000000e+01
6.890900000000000000e+04,-1.000000000000000048e-04,-5.000000000000000240e-05,-4.000000000000000327e-05,-2.000000000000000096e-04,2.000000000000000164e-05,2.399999999999999790e-04,-6.999999999999999387e-05,-3.600000000000000227e-04,7.000000000000000000e+00,2.700000000000000000e+01
6.891000000000000000e+04,-1.000000000000000048e-04,-5.000000000000000240e-05,-4.000000000000000327e-05,-2.000000000000000096e-04,2.000000000000000164e-05,2.399999999999999790e-04,-6.999999999999999387e-05,-3.600000000000000227e-04,7.000000000000000000e+00,2.700000000000000000e+01
6.891100000000000000e+04,-1.000000000000000048e-04,-5.000000000000000240e-05,-4.000000000000000327e-05,-2.000000000000000096e-04,2.000000000000000164e-05,2.399999999999999790e-04,-6.999999999999999387e-05,-3.600000000000000227e-04,7.000000000000000000e+00,2.700000000000000000e+01
6.891200000000000000e+04,-1.000000000000000048e-04,-5.000000000000000240e-05,-4.000000000000000327e-05,-2.000000000000000096e-04,2.000000000000000164e-05,2.399999999999999790e-04,-6.999999999999999387e-05,-3.600000000000000227e-04,7.000000000000000000e+00,2.700000000000000000e+01
6.891300000000000000e+04,-1.000000000000000048e-04,-5.000000000000000240e-05,-4.000000000000000327e-05,-2.000000000000000096e-04,2.000000000000000164e-05,2.399999999999999790e-04,-6.999999999999999387e-05,-3.600000000000000227e-04,7.000000000000000000e+00,2.700000000000000000e+01
6.891400000000000000e+04,-1.000000000000000048e-04,-5.000000000000000240e-05,-4.000000000000000327e-05,-2.000000000000000096e-04,2.000000000000000164e-05,2.399999999999999790e-04,-6.999999999999999387e-05,-3.600000000000000227e-04,7.000000000000000000e+00,2.700000000000000000e+01
6.891500000000000000e+04,-1.000000000000000048e-04,-5.000000000000000240e-05,-4.000000000000000327e-05,-2.000000000000000096e-04,2.000000000000000164e-05,2.399999999999999790e-04,-6.999999999999999387e-05,-3.600000000000000227e-04,7.000000000000000000e+00,2.700000000000000000e+01
6.891600000000000000e+04,5.000000000000000240e-05,-2.000000000000000164e-05,2.000000000000000164e-05,1.800000000000000113e-04,8.599999999999999789e-04,1.100000000000000039e-04,-5.999999999999999474e-05,-1.499999999999999869e-04,7.000000000000000000e+00,2.700000000000000000e+01
6.891700000000000000e+04,-2.999999999999999737e-05,-5.999999999999999474e-05,-1.100000000000000039e-04,-6.999999999999999387e-05,-3.699999999999999947e-04,5.000000000000000240e-05,0.000000000000000000e+00,5.000000000000000240e-05,7.000000000000000000e+00,2.700000000000000000e+01
6.891800000000000000e+04,-2.999999999999999737e-05,-5.999999999999999474e-05,-1.100000000000000039e-04,-6.999999999999999387e-05,-3.699999999999999947e-04,5.000000000000000240e-05,0.000000000000000000e+00,5.000000000000000240e-05,7.000000000000000000e+00,2.700000000000000000e+01
6.891900000000000000e+04,-2.999999999999999737e-05,-5.999999999999999474e-05,-1.100000000000000039e-04,-6.999999999999999387e-05,-3.699999999999999947e-04,5.000000000000000240e-05,0.000000000000000000e+00,5.000000000000000240e-05,7.000000000000000000e+00,2.700000000000000000e+01
6.892000000000000000e+04,-2.999999999999999737e-05,-5.999999999999999474e-05,-1.100000000000000039e-04,-6.999999999999999387e-05,-3.699999999999999947e-04,5.000000000000000240e-05,0.000000000000000000e+00,5.000000000000000240e-05,7.000000000000000000e+00,2.700000000000000000e+01
6.892100000000000000e+04,-2.999999999999999737e-05,-5.999999999999999474e-05,-1.100000000000000039e-04,-6.999999999999999387e-05,-3.699999999999999947e-04,5.000000000000000240e-05,0.000000000000000000e+00,5.000000000000000240e-05,7.000000000000000000e+00,2.700000000000000000e+01
6.892300000000000000e+04,-2.999999999999999737e-05,-5.999999999999999474e-05,-1.100000000000000039e-04,-6.999999999999999387e-05,-3.699999999999999947e-04,5.000000000000000240e-05,0.000000000000000000e+00,5.000000000000000240e-05,7.000000000000000000e+00,2.700000000000000000e+01
6.892400000000000000e+04,-2.999999999999999737e-05,-5.999999999999999474e-05,-1.100000000000000039e-04,-6.999999999999999387e-05,-3.699999999999999947e-04,5.000000000000000240e-05,0.000000000000000000e+00,5.000000000000000240e-05,7.000000000000000000e+00,2.700000000000000000e+01
6.892500000000000000e+04,-2.999999999999999737e-05,-5.999999999999999474e-05,-1.100000000000000039e-04,-6.999999999999999387e-05,-3.699999999999999947e-04,5.000000000000000240e-05,0.000000000000000000e+00,5.000000000000000240e-05,7.000000000000000000e+00,2.700000000000000000e+01
6.892600000000000000e+04,-2.999999999999999737e-05,-5.999999999999999474e-05,-1.100000000000000039e-04,-6.999999999999999387e-05,-3.699999999999999947e-04,5.000000000000000240e-05,0.000000000000000000e+00,5.000000000000000240e-05,7.000000000000000000e+00,2.700000000000000000e+01
6.892700000000000000e+04,-2.999999999999999737e-05,-5.999999999999999474e-05,-1.100000000000000039e-04,-6.999999999999999387e-05,-3.699999999999999947e-04,5.000000000000000240e-05,0.000000000000000000e+00,5.000000000000000240e-05,7.000000000000000000e+00,2.700000000000000000e+01
6.892800000000000000e+04,-2.999999999999999737e-05,-5.999999999999999474e-05,-1.100000000000000039e-04,-6.999999999999999387e-05,-3.699999999999999947e-04,5.000000000000000240e-05,0.000000000000000000e+00,5.000000000000000240e-05,7.000000000000000000e+00,2.700000000000000000e+01
6.892900000000000000e+04,-2.999999999999999737e-05,-5.999999999999999474e-05,-1.100000000000000039e-04,-6.999999999999999387e-05,-3.699999999999999947e-04,5.000000000000000240e-05,0.000000000000000000e+00,5.000000000000000240e-05,7.000000000000000000e+00,2.700000000000000000e+01
6.893000000000000000e+04,-2.999999999999999737e-05,-5.999999999999999474e-05,-1.100000000000000039e-04,-6.999999999999999387e-05,-3.699999999999999947e-04,5.000000000000000240e-05,0.000000000000000000e+00,5.000000000000000240e-05,7.000000000000000000e+00,2.700000000000000000e+01
6.893100000000000000e+04,-2.999999999999999737e-05,-5.999999999999999474e-05,-1.100000000000000039e-04,-6.999999999999999387e-05,-3.699999999999999947e-04,5.000000000000000240e-05,0.000000000000000000e+00,5.000000000000000240e-05,7.000000000000000000e+00,2.700000000000000000e+01
6.893200000000000000e+04,-2.999999999999999737e-05,-5.999999999999999474e-05,-1.100000000000000039e-04,-6.999999999999999387e-05,-3.699999999999999947e-04,5.000000000000000240e-05,0.000000000000000000e+00,5.000000000000000240e-05,7.000000000000000000e+00,2.700000000000000000e+01
6.893300000000000000e+04,-2.999999999999999737e-05,-5.999999999999999474e-05,-1.100000000000000039e-04,-6.999999999999999387e-05,-3.699999999999999947e-04,5.000000000000000240e-05,0.000000000000000000e+00,5.000000000000000240e-05,7.000000000000000000e+00,2.700000000000000000e+01
6.893400000000000000e+04,-2.999999999999999737e-05,-5.999999999999999474e-05,-1.100000000000000039e-04,-6.999999999999999387e-05,-3.699999999999999947e-04,5.000000000000000240e-05,0.000000000000000000e+00,5.000000000000000240e-05,7.000000000000000000e+00,2.700000000000000000e+01
6.893500000000000000e+04,-2.999999999999999737e-05,-5.999999999999999474e-05,-1.100000000000000039e-04,-6.999999999999999387e-05,-3.699999999999999947e-04,5.000000000000000240e-05,0.000000000000000000e+00,5.000000000000000240e-05,7.000000000000000000e+00,2.700000000000000000e+01
6.893600000000000000e+04,-2.999999999999999737e-05,-5.999999999999999474e-05,-1.100000000000000039e-04,-6.999999999999999387e-05,-3.699999999999999947e-04,5.000000000000000240e-05,0.000000000000000000e+00,5.000000000000000240e-05,7.000000000000000000e+00,2.700000000000000000e+01
6.893800000000000000e+04,-2.999999999999999737e-05,-5.999999999999999474e-05,-1.100000000000000039e-04,-6.999999999999999387e-05,-3.699999999999999947e-04,5.000000000000000240e-05,0.000000000000000000e+00,5.000000000000000240e-05,7.000000000000000000e+00,2.700000000000000000e+01
6.893900000000000000e+04,-2.000000000000000164e-05,2.999999999999999737e-05,1.000000000000000048e-04,1.000000000000000082e-05,-2.700000000000000035e-04,1.899999999999999834e-04,6.999999999999999387e-05,-8.000000000000000654e-05,7.000000000000000000e+00,2.700000000000000000e+01
6.894000000000000000e+04,-1.000000000000000082e-05,-5.000000000000000240e-05,-5.000000000000000240e-05,-1.399999999999999877e-04,-4.299999999999999894e-04,1.899999999999999834e-04,-1.699999999999999851e-04,-2.000000000000000164e-05,7.000000000000000000e+00,2.700000000000000000e+01
6.894100000000000000e+04,-1.000000000000000082e-05,-5.000000000000000240e-05,-5.000000000000000240e-05,-1.399999999999999877e-04,-4.299999999999999894e-04,1.899999999999999834e-04,-1.699999999999999851e-04,-2.000000000000000164e-05,7.000000000000000000e+00,2.700000000000000000e+01
6.894200000000000000e+04,-1.000000000000000082e-05,-5.000000000000000240e-05,-5.000000000000000240e-05,-1.399999999999999877e-04,-4.299999999999999894e-04,1.899999999999999834e-04,-1.699999999999999851e-04,-2.000000000000000164e-05,7.000000000000000000e+00,2.700000000000000000e+01
6.894300000000000000e+04,-1.000000000000000082e-05,-5.000000000000000240e-05,-5.000000000000000240e-05,-1.399999999999999877e-04,-4.299999999999999894e-04,1.899999999999999834e-04,-1.699999999999999851e-04,-2.000000000000000164e-05,7.000000000000000000e+00,2.700000000000000000e+01
6.894400000000000000e+04,-1.000000000000000082e-05,-5.000000000000000240e-05,-5.000000000000000240e-05,-1.399999999999999877e-04,-4.299999999999999894e-04,1.899999999999999834e-04,-1.699999999999999851e-04,-2.000000000000000164e-05,7.000000000000000000e+00,2.700000000000000000e+01
6.894500000000000000e+04,-1.000000000000000082e-05,-5.000000000000000240e-05,-5.000000000000000240e-05,-1.399999999999999877e-04,-4.299999999999999894e-04,1.899999999999999834e-04,-1.699999999999999851e-04,-2.000000000000000164e-05,7.000000000000000000e+00,2.700000000000000000e+01
6.894600000000000000e+04,-1.000000000000000082e-05,-5.000000000000000240e-05,-5.000000000000000240e-05,-1.399999999999999877e-04,-4.299999999999999894e-04,1.899999999999999834e-04,-1.699999999999999851e-04,-2.000000000000000164e-05,7.000000000000000000e+00,2.700000000000000000e+01
6.894700000000000000e+04,-1.000000000000000082e-05,-5.000000000000000240e-05,-5.000000000000000240e-05,-1.399999999999999877e-04,-4.299999999999999894e-04,1.899999999999999834e-04,-1.699999999999999851e-04,-2.000000000000000164e-05,7.000000000000000000e+00,2.700000000000000000e+01
6.894800000000000000e+04,-1.000000000000000082e-05,-5.000000000000000240e-05,-5.000000000000000240e-05,-1.399999999999999877e-04,-4.299999999999999894e-04,1.899999999999999834e-04,-1.699999999999999851e-04,-2.000000000000000164e-05,7.000000000000000000e+00,2.700000000000000000e+01
6.894900000000000000e+04,-1.000000000000000082e-05,-5.000000000000000240e-05,-5.000000000000000240e-05,-1.399999999999999877e-04,-4.299999999999999894e-04,1.899999999999999834e-04,-1.699999999999999851e-04,-2.000000000000000164e-05,7.000000000000000000e+00,2.700000000000000000e+01
6.895000000000000000e+04,-1.000000000000000082e-05,-5.000000000000000240e-05,-5.000000000000000240e-05,-1.399999999999999877e-04,-4.299999999999999894e-04,1.899999999999999834e-04,-1.699999999999999851e-04,-2.000000000000000164e-05,7.000000000000000000e+00,2.700000000000000000e+01
6.895100000000000000e+04,-1.000000000000000082e-05,-5.000000000000000240e-05,-5.000000000000000240e-05,-1.399999999999999877e-04,-4.299999999999999894e-04,1.899999999999999834e-04,-1.699999999999999851e-04,-2.000000000000000164e-05,7.000000000000000000e+00,2.700000000000000000e+01
6.895200000000000000e+04,-1.000000000000000082e-05,-5.000000000000000240e-05,-5.000000000000000240e-05,-1.399999999999999877e-04,-4.299999999999999894e-04,1.899999999999999834e-04,-1.699999999999999851e-04,-2.000000000000000164e-05,7.000000000000000000e+00,2.700000000000000000e+01
6.895300000000000000e+04,-2.000000000000000164e-05,-5.000000000000000240e-05,-1.000000000000000048e-04,-5.999999999999999474e-05,1.000000000000000048e-04,2.000000000000000164e-05,-4.000000000000000327e-05,1.000000000000000082e-05,7.000000000000000000e+00,2.700000000000000000e+01
6.895400000000000000e+04,-2.000000000000000164e-05,-5.000000000000000240e-05,-1.000000000000000048e-04,-5.999999999999999474e-05,1.000000000000000048e-04,2.000000000000000164e-05,-4.000000000000000327e-05,1.000000000000000082e-05,7.000000000000000000e+00,2.700000000000000000e+01
6.895500000000000000e+04,-2.000000000000000164e-05,-5.000000000000000240e-05,-1.000000000000000048e-04,-5.999999999999999474e-05,1.000000000000000048e-04,2.000000000000000164e-05,-4.000000000000000327e-05,1.000000000000000082e-05,7.000000000000000000e+00,2.700000000000000000e+01
6.895600000000000000e+04,-2.000000000000000164e-05,-5.000000000000000240e-05,-1.000000000000000048e-04,-5.999999999999999474e-05,1.000000000000000048e-04,2.000000000000000164e-05,-4.000000000000000327e-05,1.000000000000000082e-05,7.000000000000000000e+00,2.700000000000000000e+01
6.895700000000000000e+04,-2.000000000000000164e-05,-5.000000000000000240e-05,-1.000000000000000048e-04,-5.999999999999999474e-05,1.000000000000000048e-04,2.000000000000000164e-05,-4.000000000000000327e-05,1.000000000000000082e-05,7.000000000000000000e+00,2.700000000000000000e+01
6.895800000000000000e+04,-2.000000000000000164e-05,-5.000000000000000240e-05,-1.000000000000000048e-04,-5.999999999999999474e-05,1.000000000000000048e-04,2.000000000000000164e-05,-4.000000000000000327e-05,1.000000000000000082e-05,7.000000000000000000e+00,2.700000000000000000e+01
6.895900000000000000e+04,-2.000000000000000164e-05,-5.000000000000000240e-05,-1.000000000000000048e-04,-5.999999999999999474e-05,1.000000000000000048e-04,2.000000000000000164e-05,-4.000000000000000327e-05,1.000000000000000082e-05,7.000000000000000000e+00,2.700000000000000000e+01
6.896000000000000000e+04,-2.000000000000000164e-05,-5.000000000000000240e-05,-1.000000000000000048e-04,-5.999999999999999474e-05,1.000000000000000048e-04,2.000000000000000164e-05,-4.000000000000000327e-05,1.000000000000000082e-05,7.000000000000000000e+00,2.700000000000000000e+01
6.896100000000000000e+04,0.000000000000000000e+00,1.000000000000000082e-05,-1.000000000000000082e-05,5.000000000000000240e-05,-9.000000000000000567e-05,8.000000000000000654e-05,4.000000000000000327e-05,-2.999999999999999737e-05,7.000000000000000000e+00,2.700000000000000000e+01
6.896200000000000000e+04,0.000000000000000000e+00,1.000000000000000082e-05,-1.000000000000000082e-05,5.000000000000000240e-05,-9.000000000000000567e-05,8.000000000000000654e-05,4.000000000000000327e-05,-2.999999999999999737e-05,7.000000000000000000e+00,2.700000000000000000e+01
6.896300000000000000e+04,0.000000000000000000e+00,1.000000000000000082e-05,-1.000000000000000082e-05,5.000000000000000240e-05,-9.000000000000000567e-05,8.000000000000000654e-05,4.000000000000000327e-05,-2.999999999999999737e-05,7.000000000000000000e+00,2.700000000000000000e+01
6.896400000000000000e+04,0.000000000000000000e+00,1.000000000000000082e-05,-1.000000000000000082e-05,5.000000000000000240e-05,-9.000000000000000567e-05,8.000000000000000654e-05,4.000000000000000327e-05,-2.999999999999999737e-05,7.000000000000000000e+00,2.700000000000000000e+01
6.896500000000000000e+04,0.000000000000000000e+00,1.000000000000000082e-05,-1.000000000000000082e-05,5.000000000000000240e-05,-9.000000000000000567e-05,8.000000000000000654e-05,4.000000000000000327e-05,-2.999999999999999737e-05,7.000000000000000000e+00,2.700000000000000000e+01
6.896600000000000000e+04,0.000000000000000000e+00,1.000000000000000082e-05,-1.000000000000000082e-05,5.000000000000000240e-05,-9.000000000000000567e-05,8.000000000000000654e-05,4.000000000000000327e-05,-2.999999999999999737e-05,7.000000000000000000e+00,2.700000000000000000e+01
6.896700000000000000e+04,0.000000000000000000e+00,1.000000000000000082e-05,-1.000000000000000082e-05,5.000000000000000240e-05,-9.000000000000000567e-05,8.000000000000000654e-05,4.000000000000000327e-05,-2.999999999999999737e-05,7.000000000000000000e+00,2.700000000000000000e+01
6.896800000000000000e+04,0.000000000000000000e+00,1.000000000000000082e-05,-1.000000000000000082e-05,5.000000000000000240e-05,-9.000000000000000567e-05,8.000000000000000654e-05,4.000000000000000327e-05,-2.999999999999999737e-05,7.000000000000000000e+00,2.700000000000000000e+01
6.896900000000000000e+04,0.000000000000000000e+00,1.000000000000000082e-05,-1.000000000000000082e-05,5.000000000000000240e-05,-9.000000000000000567e-05,8.000000000000000654e-05,4.000000000000000327e-05,-2.999999999999999737e-05,7.000000000000000000e+00,2.700000000000000000e+01
6.897000000000000000e+04,0.000000000000000000e+00,1.000000000000000082e-05,-1.000000000000000082e-05,5.000000000000000240e-05,-9.000000000000000567e-05,8.000000000000000654e-05,4.000000000000000327e-05,-2.999999999999999737e-05,7.000000000000000000e+00,2.700000000000000000e+01
6.897100000000000000e+04,0.000000000000000000e+00,1.000000000000000082e-05,-1.000000000000000082e-05,5.000000000000000240e-05,-9.000000000000000567e-05,8.000000000000000654e-05,4.000000000000000327e-05,-2.999999999999999737e-05,7.000000000000000000e+00,2.700000000000000000e+01
6.897200000000000000e+04,0.000000000000000000e+00,1.000000000000000082e-05,-1.000000000000000082e-05,5.000000000000000240e-05,-9.000000000000000567e-05,8.000000000000000654e-05,4.000000000000000327e-05,-2.999999999999999737e-05,7.000000000000000000e+00,2.700000000000000000e+01
6.897300000000000000e+04,0.000000000000000000e+00,1.000000000000000082e-05,-1.000000000000000082e-05,5.000000000000000240e-05,-9.000000000000000567e-05,8.000000000000000654e-05,4.000000000000000327e-05,-2.999999999999999737e-05,7.000000000000000000e+00,2.700000000000000000e+01
6.897400000000000000e+04,0.000000000000000000e+00,1.000000000000000082e-05,-1.000000000000000082e-05,5.000000000000000240e-05,-9.000000000000000567e-05,8.000000000000000654e-05,4.000000000000000327e-05,-2.999999999999999737e-05,7.000000000000000000e+00,2.700000000000000000e+01
6.897500000000000000e+04,0.000000000000000000e+00,1.000000000000000082e-05,-1.000000000000000082e-05,5.000000000000000240e-05,-9.000000000000000567e-05,8.000000000000000654e-05,4.000000000000000327e-05,-2.999999999999999737e-05,7.000000000000000000e+00,2.700000000000000000e+01
6.897600000000000000e+04,2.000000000000000164e-05,-1.000000000000000082e-05,1.000000000000000082e-05,-5.999999999999999474e-05,-4.000000000000000327e-05,6.999999999999999387e-05,5.000000000000000240e-05,3.200000000000000262e-04,7.000000000000000000e+00,2.700000000000000000e+01
6.897700000000000000e+04,-1.000000000000000082e-05,-5.999999999999999474e-05,-1.399999999999999877e-04,1.100000000000000039e-04,2.299999999999999799e-04,-1.000000000000000082e-05,5.000000000000000240e-05,2.000000000000000096e-04,7.000000000000000000e+00,2.700000000000000000e+01
6.897800000000000000e+04,-1.000000000000000082e-05,-5.999999999999999474e-05,-1.399999999999999877e-04,1.100000000000000039e-04,2.299999999999999799e-04,-1.000000000000000082e-05,5.000000000000000240e-05,2.000000000000000096e-04,7.000000000000000000e+00,2.700000000000000000e+01
6.897900000000000000e+04,-1.000000000000000082e-05,-5.999999999999999474e-05,-1.399999999999999877e-04,1.100000000000000039e-04,2.299999999999999799e-04,-1.000000000000000082e-05,5.000000000000000240e-05,2.000000000000000096e-04,7.000000000000000000e+00,2.700000000000000000e+01
6.898000000000000000e+04,-1.000000000000000082e-05,-5.999999999999999474e-05,-1.399999999999999877e-04,1.100000000000000039e-04,2.299999999999999799e-04,-1.000000000000000082e-05,5.000000000000000240e-05,2.000000000000000096e-04,7.000000000000000000e+00,2.700000000000000000e+01
6.898100000000000000e+04,-1.000000000000000082e-05,-5.999999999999999474e-05,-1.399999999999999877e-04,1.100000000000000039e-04,2.299999999999999799e-04,-1.000000000000000082e-05,5.000000000000000240e-05,2.000000000000000096e-04,7.000000000000000000e+00,2.700000000000000000e+01
6.898200000000000000e+04,-1.000000000000000082e-05,-5.999999999999999474e-05,-1.399999999999999877e-04,1.100000000000000039e-04,2.299999999999999799e-04,-1.000000000000000082e-05,5.000000000000000240e-05,2.000000000000000096e-04,7.000000000000000000e+00,2.700000000000000000e+01
6.898300000000000000e+04,-1.000000000000000082e-05,-5.999999999999999474e-05,-1.399999999999999877e-04,1.100000000000000039e-04,2.299999999999999799e-04,-1.000000000000000082e-05,5.000000000000000240e-05,2.000000000000000096e-04,7.000000000000000000e+00,2.700000000000000000e+01
6.898400000000000000e+04,-1.000000000000000082e-05,-5.999999999999999474e-05,-1.399999999999999877e-04,1.100000000000000039e-04,2.299999999999999799e-04,-1.000000000000000082e-05,5.000000000000000240e-05,2.000000000000000096e-04,7.000000000000000000e+00,2.700000000000000000e+01
6.898500000000000000e+04,-1.000000000000000082e-05,-5.999999999999999474e-05,-1.399999999999999877e-04,1.100000000000000039e-04,2.299999999999999799e-04,-1.000000000000000082e-05,5.000000000000000240e-05,2.000000000000000096e-04,7.000000000000000000e+00,2.700000000000000000e+01
6.898600000000000000e+04,-1.000000000000000082e-05,-5.999999999999999474e-05,-1.399999999999999877e-04,1.100000000000000039e-04,2.299999999999999799e-04,-1.000000000000000082e-05,5.000000000000000240e-05,2.000000000000000096e-04,7.000000000000000000e+00,2.700000000000000000e+01
6.898800000000000000e+04,-1.000000000000000082e-05,-5.999999999999999474e-05,-1.399999999999999877e-04,1.100000000000000039e-04,2.299999999999999799e-04,-1.000000000000000082e-05,5.000000000000000240e-05,2.000000000000000096e-04,7.000000000000000000e+00,2.700000000000000000e+01
6.898900000000000000e+04,-1.000000000000000082e-05,-5.999999999999999474e-05,-1.399999999999999877e-04,1.100000000000000039e-04,2.299999999999999799e-04,-1.000000000000000082e-05,5.000000000000000240e-05,2.000000000000000096e-04,7.000000000000000000e+00,2.700000000000000000e+01
6.899000000000000000e+04,-1.000000000000000082e-05,-5.999999999999999474e-05,-1.399999999999999877e-04,1.100000000000000039e-04,2.299999999999999799e-04,-1.000000000000000082e-05,5.000000000000000240e-05,2.000000000000000096e-04,7.000000000000000000e+00,2.700000000000000000e+01
6.899100000000000000e+04,-1.000000000000000082e-05,-5.999999999999999474e-05,-1.399999999999999877e-04,1.100000000000000039e-04,2.299999999999999799e-04,-1.000000000000000082e-05,5.000000000000000240e-05,2.000000000000000096e-04,7.000000000000000000e+00,2.700000000000000000e+01
6.899200000000000000e+04,-1.000000000000000082e-05,-5.999999999999999474e-05,-1.399999999999999877e-04,1.100000000000000039e-04,2.299999999999999799e-04,-1.000000000000000082e-05,5.000000000000000240e-05,2.000000000000000096e-04,7.000000000000000000e+00,2.700000000000000000e+01
6.899300000000000000e+04,-1.000000000000000082e-05,-5.999999999999999474e-05,-1.399999999999999877e-04,1.100000000000000039e-04,2.299999999999999799e-04,-1.000000000000000082e-05,5.000000000000000240e-05,2.000000000000000096e-04,7.000000000000000000e+00,2.700000000000000000e+01
6.899400000000000000e+04,-1.000000000000000082e-05,-5.999999999999999474e-05,-1.399999999999999877e-04,1.100000000000000039e-04,2.299999999999999799e-04,-1.000000000000000082e-05,5.000000000000000240e-05,2.000000000000000096e-04,7.000000000000000000e+00,2.700000000000000000e+01
6.899500000000000000e+04,-1.000000000000000082e-05,-5.999999999999999474e-05,-1.399999999999999877e-04,1.100000000000000039e-04,2.299999999999999799e-04,-1.000000000000000082e-05,5.000000000000000240e-05,2.000000000000000096e-04,7.000000000000000000e+00,2.700000000000000000e+01
6.899600000000000000e+04,-1.000000000000000082e-05,-5.999999999999999474e-05,-1.399999999999999877e-04,1.100000000000000039e-04,2.299999999999999799e-04,-1.000000000000000082e-05,5.000000000000000240e-05,2.000000000000000096e-04,7.000000000000000000e+00,2.700000000000000000e+01
6.899700000000000000e+04,-1.000000000000000082e-05,-5.999999999999999474e-05,-1.399999999999999877e-04,1.100000000000000039e-04,2.299999999999999799e-04,-1.000000000000000082e-05,5.000000000000000240e-05,2.000000000000000096e-04,7.000000000000000000e+00,2.700000000000000000e+01
6.899800000000000000e+04,-1.000000000000000082e-05,-5.999999999999999474e-05,-1.399999999999999877e-04,1.100000000000000039e-04,2.299999999999999799e-04,-1.000000000000000082e-05,5.000000000000000240e-05,2.000000000000000096e-04,7.000000000000000000e+00,2.700000000000000000e+01
6.899900000000000000e+04,-5.000000000000000240e-05,-2.999999999999999737e-05,2.999999999999999737e-05,1.399999999999999877e-04,2.900000000000000017e-04,-4.799999999999999580e-04,1.199999999999999895e-04,-1.699999999999999851e-04,7.000000000000000000e+00,2.700000000000000000e+01
6.900000000000000000e+04,0.000000000000000000e+00,-1.000000000000000082e-05,-4.000000000000000327e-05,1.899999999999999834e-04,1.130000000000000145e-03,1.899999999999999834e-04,-1.000000000000000082e-05,-5.000000000000000240e-05,7.000000000000000000e+00,2.700000000000000000e+01
6.900100000000000000e+04,0.000000000000000000e+00,-1.000000000000000082e-05,-4.000000000000000327e-05,1.899999999999999834e-04,1.130000000000000145e-03,1.899999999999999834e-04,-1.000000000000000082e-05,-5.000000000000000240e-05,7.000000000000000000e+00,2.700000000000000000e+01
6.900200000000000000e+04,0.000000000000000000e+00,-1.000000000000000082e-05,-4.000000000000000327e-05,1.899999999999999834e-04,1.130000000000000145e-03,1.899999999999999834e-04,-1.000000000000000082e-05,-5.000000000000000240e-05,7.000000000000000000e+00,2.700000000000000000e+01
6.900300000000000000e+04,0.000000000000000000e+00,-1.000000000000000082e-05,-4.000000000000000327e-05,1.899999999999999834e-04,1.130000000000000145e-03,1.899999999999999834e-04,-1.000000000000000082e-05,-5.000000000000000240e-05,7.000000000000000000e+00,2.700000000000000000e+01
6.900400000000000000e+04,0.000000000000000000e+00,-1.000000000000000082e-05,-4.000000000000000327e-05,1.899999999999999834e-04,1.130000000000000145e-03,1.899999999999999834e-04,-1.000000000000000082e-05,-5.000000000000000240e-05,7.000000000000000000e+00,2.700000000000000000e+01
6.900500000000000000e+04,0.000000000000000000e+00,-1.000000000000000082e-05,-4.000000000000000327e-05,1.899999999999999834e-04,1.130000000000000145e-03,1.899999999999999834e-04,-1.000000000000000082e-05,-5.000000000000000240e-05,7.000000000000000000e+00,2.700000000000000000e+01
6.900600000000000000e+04,0.000000000000000000e+00,-1.000000000000000082e-05,-4.000000000000000327e-05,1.899999999999999834e-04,1.130000000000000145e-03,1.899999999999999834e-04,-1.000000000000000082e-05,-5.000000000000000240e-05,7.000000000000000000e+00,2.700000000000000000e+01
6.900700000000000000e+04,0.000000000000000000e+00,-1.000000000000000082e-05,-4.000000000000000327e-05,1.899999999999999834e-04,1.130000000000000145e-03,1.899999999999999834e-04,-1.000000000000000082e-05,-5.000000000000000240e-05,7.000000000000000000e+00,2.700000000000000000e+01
6.900800000000000000e+04,0.000000000000000000e+00,-1.000000000000000082e-05,-4.000000000000000327e-05,1.899999999999999834e-04,1.130000000000000145e-03,1.899999999999999834e-04,-1.000000000000000082e-05,-5.000000000000000240e-05,7.000000000000000000e+00,2.700000000000000000e+01
6.900900000000000000e+04,0.000000000000000000e+00,-1.000000000000000082e-05,-4.000000000000000327e-05,1.899999999999999834e-04,1.130000000000000145e-03,1.899999999999999834e-04,-1.000000000000000082e-05,-5.000000000000000240e-05,7.000000000000000000e+00,2.700000000000000000e+01
6.901000000000000000e+04,0.000000000000000000e+00,-1.000000000000000082e-05,-4.000000000000000327e-05,1.899999999999999834e-04,1.130000000000000145e-03,1.899999999999999834e-04,-1.000000000000000082e-05,-5.000000000000000240e-05,7.000000000000000000e+00,2.700000000000000000e+01
6.901100000000000000e+04,0.000000000000000000e+00,-1.000000000000000082e-05,-4.000000000000000327e-05,1.899999999999999834e-04,1.130000000000000145e-03,1.899999999999999834e-04,-1.000000000000000082e-05,-5.000000000000000240e-05,7.000000000000000000e+00,2.700000000000000000e+01
6.901200000000000000e+04,0.000000000000000000e+00,-1.000000000000000082e-05,-4.000000000000000327e-05,1.899999999999999834e-04,1.130000000000000145e-03,1.899999999999999834e-04,-1.000000000000000082e-05,-5.000000000000000240e-05,7.000000000000000000e+00,2.700000000000000000e+01
6.901300000000000000e+04,-5.000000000000000240e-05,-4.000000000000000327e-05,-4.000000000000000327e-05,-1.699999999999999851e-04,-4.499999999999999877e-04,6.999999999999999387e-05,-4.000000000000000327e-05,-1.000000000000000048e-04,7.000000000000000000e+00,2.700000000000000000e+01
6.901400000000000000e+04,-5.000000000000000240e-05,-4.000000000000000327e-05,-4.000000000000000327e-05,-1.699999999999999851e-04,-4.499999999999999877e-04,6.999999999999999387e-05,-4.000000000000000327e-05,-1.000000000000000048e-04,7.000000000000000000e+00,2.700000000000000000e+01
6.901500000000000000e+04,-5.000000000000000240e-05,-4.000000000000000327e-05,-4.000000000000000327e-05,-1.699999999999999851e-04,-4.499999999999999877e-04,6.999999999999999387e-05,-4.000000000000000327e-05,-1.000000000000000048e-04,7.000000000000000000e+00,2.700000000000000000e+01
6.901600000000000000e+04,-5.000000000000000240e-05,-4.000000000000000327e-05,-4.000000000000000327e-05,-1.699999999999999851e-04,-4.499999999999999877e-04,6.999999999999999387e-05,-4.000000000000000327e-05,-1.000000000000000048e-04,7.000000000000000000e+00,2.700000000000000000e+01
6.901700000000000000e+04,-5.000000000000000240e-05,-4.000000000000000327e-05,-4.000000000000000327e-05,-1.699999999999999851e-04,-4.499999999999999877e-04,6.999999999999999387e-05,-4.000000000000000327e-05,-1.000000000000000048e-04,7.000000000000000000e+00,2.700000000000000000e+01
6.901800000000000000e+04,-5.000000000000000240e-05,-4.000000000000000327e-05,-4.000000000000000327e-05,-1.699999999999999851e-04,-4.499999999999999877e-04,6.999999999999999387e-05,-4.000000000000000327e-05,-1.000000000000000048e-04,7.000000000000000000e+00,2.700000000000000000e+01
6.901900000000000000e+04,-5.000000000000000240e-05,-4.000000000000000327e-05,-4.000000000000000327e-05,-1.699999999999999851e-04,-4.499999999999999877e-04,6.999999999999999387e-05,-4.000000000000000327e-05,-1.000000000000000048e-04,7.000000000000000000e+00,2.700000000000000000e+01
6.902000000000000000e+04,-5.000000000000000240e-05,-4.000000000000000327e-05,-4.000000000000000327e-05,-1.699999999999999851e-04,-4.499999999999999877e-04,6.999999999999999387e-05,-4.000000000000000327e-05,-1.000000000000000048e-04,7.000000000000000000e+00,2.700000000000000000e+01
6.902100000000000000e+04,-6.999999999999999387e-05,1.000000000000000082e-05,1.000000000000000082e-05,-8.000000000000000654e-05,-5.000000000000000240e-05,-9.000000000000000567e-05,-1.000000000000000082e-05,-2.700000000000000035e-04,7.000000000000000000e+00,2.700000000000000000e+01
6.902200000000000000e+04,-6.999999999999999387e-05,1.000000000000000082e-05,1.000000000000000082e-05,-8.000000000000000654e-05,-5.000000000000000240e-05,-9.000000000000000567e-05,-1.000000000000000082e-05,-2.700000000000000035e-04,7.000000000000000000e+00,2.700000000000000000e+01
6.902300000000000000e+04,-6.999999999999999387e-05,1.000000000000000082e-05,1.000000000000000082e-05,-8.000000000000000654e-05,-5.000000000000000240e-05,-9.000000000000000567e-05,-1.000000000000000082e-05,-2.700000000000000035e-04,7.000000000000000000e+00,2.700000000000000000e+01
6.902400000000000000e+04,-6.999999999999999387e-05,1.000000000000000082e-05,1.000000000000000082e-05,-8.000000000000000654e-05,-5.000000000000000240e-05,-9.000000000000000567e-05,-1.000000000000000082e-05,-2.700000000000000035e-04,7.000000000000000000e+00,2.700000000000000000e+01
6.902500000000000000e+04,-6.999999999999999387e-05,1.000000000000000082e-05,1.000000000000000082e-05,-8.000000000000000654e-05,-5.000000000000000240e-05,-9.000000000000000567e-05,-1.000000000000000082e-05,-2.700000000000000035e-04,7.000000000000000000e+00,2.700000000000000000e+01
6.902600000000000000e+04,-6.999999999999999387e-05,1.000000000000000082e-05,1.000000000000000082e-05,-8.000000000000000654e-05,-5.000000000000000240e-05,-9.000000000000000567e-05,-1.000000000000000082e-05,-2.700000000000000035e-04,7.000000000000000000e+00,2.700000000000000000e+01
6.902700000000000000e+04,-6.999999999999999387e-05,1.000000000000000082e-05,1.000000000000000082e-05,-8.000000000000000654e-05,-5.000000000000000240e-05,-9.000000000000000567e-05,-1.000000000000000082e-05,-2.700000000000000035e-04,7.000000000000000000e+00,2.700000000000000000e+01
6.902800000000000000e+04,-6.999999999999999387e-05,1.000000000000000082e-05,1.000000000000000082e-05,-8.000000000000000654e-05,-5.000000000000000240e-05,-9.000000000000000567e-05,-1.000000000000000082e-05,-2.700000000000000035e-04,7.000000000000000000e+00,2.700000000000000000e+01
6.902900000000000000e+04,-6.999999999999999387e-05,1.000000000000000082e-05,1.000000000000000082e-05,-8.000000000000000654e-05,-5.000000000000000240e-05,-9.000000000000000567e-05,-1.000000000000000082e-05,-2.700000000000000035e-04,7.000000000000000000e+00,2.700000000000000000e+01
6.903000000000000000e+04,-6.999999999999999387e-05,1.000000000000000082e-05,1.000000000000000082e-05,-8.000000000000000654e-05,-5.000000000000000240e-05,-9.000000000000000567e-05,-1.000000000000000082e-05,-2.700000000000000035e-04,7.000000000000000000e+00,2.700000000000000000e+01
6.903100000000000000e+04,-6.999999999999999387e-05,1.000000000000000082e-05,1.000000000000000082e-05,-8.000000000000000654e-05,-5.000000000000000240e-05,-9.000000000000000567e-05,-1.000000000000000082e-05,-2.700000000000000035e-04,7.000000000000000000e+00,2.700000000000000000e+01
6.903200000000000000e+04,-6.999999999999999387e-05,1.000000000000000082e-05,1.000000000000000082e-05,-8.000000000000000654e-05,-5.000000000000000240e-05,-9.000000000000000567e-05,-1.000000000000000082e-05,-2.700000000000000035e-04,7.000000000000000000e+00,2.700000000000000000e+01
6.903300000000000000e+04,-6.999999999999999387e-05,1.000000000000000082e-05,1.000000000000000082e-05,-8.000000000000000654e-05,-5.000000000000000240e-05,-9.000000000000000567e-05,-1.000000000000000082e-05,-2.700000000000000035e-04,7.000000000000000000e+00,2.700000000000000000e+01
6.903400000000000000e+04,-6.999999999999999387e-05,1.000000000000000082e-05,1.000000000000000082e-05,-8.000000000000000654e-05,-5.000000000000000240e-05,-9.000000000000000567e-05,-1.000000000000000082e-05,-2.700000000000000035e-04,7.000000000000000000e+00,2.700000000000000000e+01
6.903500000000000000e+04,-6.999999999999999387e-05,1.000000000000000082e-05,1.000000000000000082e-05,-8.000000000000000654e-05,-5.000000000000000240e-05,-9.000000000000000567e-05,-1.000000000000000082e-05,-2.700000000000000035e-04,7.000000000000000000e+00,2.700000000000000000e+01
6.903600000000000000e+04,-1.000000000000000082e-05,-1.000000000000000082e-05,0.000000000000000000e+00,1.600000000000000131e-04,1.199999999999999895e-04,2.100000000000000087e-04,0.000000000000000000e+00,-8.000000000000000654e-05,7.000000000000000000e+00,2.700000000000000000e+01
6.903800000000000000e+04,5.999999999999999474e-05,8.000000000000000654e-05,1.300000000000000157e-04,1.699999999999999851e-04,4.000000000000000327e-05,1.499999999999999869e-04,0.000000000000000000e+00,2.000000000000000164e-05,7.000000000000000000e+00,2.700000000000000000e+01
6.903900000000000000e+04,5.999999999999999474e-05,8.000000000000000654e-05,1.300000000000000157e-04,1.699999999999999851e-04,4.000000000000000327e-05,1.499999999999999869e-04,0.000000000000000000e+00,2.000000000000000164e-05,7.000000000000000000e+00,2.700000000000000000e+01
6.904000000000000000e+04,5.999999999999999474e-05,8.000000000000000654e-05,1.300000000000000157e-04,1.699999999999999851e-04,4.000000000000000327e-05,1.499999999999999869e-04,0.000000000000000000e+00,2.000000000000000164e-05,7.000000000000000000e+00,2.700000000000000000e+01
6.904100000000000000e+04,5.999999999999999474e-05,8.000000000000000654e-05,1.300000000000000157e-04,1.699999999999999851e-04,4.000000000000000327e-05,1.499999999999999869e-04,0.000000000000000000e+00,2.000000000000000164e-05,7.000000000000000000e+00,2.700000000000000000e+01
6.904200000000000000e+04,5.999999999999999474e-05,8.000000000000000654e-05,1.300000000000000157e-04,1.699999999999999851e-04,4.000000000000000327e-05,1.499999999999999869e-04,0.000000000000000000e+00,2.000000000000000164e-05,7.000000000000000000e+00,2.700000000000000000e+01
6.904300000000000000e+04,5.999999999999999474e-05,8.000000000000000654e-05,1.300000000000000157e-04,1.699999999999999851e-04,4.000000000000000327e-05,1.499999999999999869e-04,0.000000000000000000e+00,2.000000000000000164e-05,7.000000000000000000e+00,2.700000000000000000e+01
6.904400000000000000e+04,5.999999999999999474e-05,8.000000000000000654e-05,1.300000000000000157e-04,1.699999999999999851e-04,4.000000000000000327e-05,1.499999999999999869e-04,0.000000000000000000e+00,2.000000000000000164e-05,7.000000000000000000e+00,2.700000000000000000e+01
6.904500000000000000e+04,5.999999999999999474e-05,8.000000000000000654e-05,1.300000000000000157e-04,1.699999999999999851e-04,4.000000000000000327e-05,1.499999999999999869e-04,0.000000000000000000e+00,2.000000000000000164e-05,7.000000000000000000e+00,2.700000000000000000e+01
6.904600000000000000e+04,5.999999999999999474e-05,8.000000000000000654e-05,1.300000000000000157e-04,1.699999999999999851e-04,4.000000000000000327e-05,1.499999999999999869e-04,0.000000000000000000e+00,2.000000000000000164e-05,7.000000000000000000e+00,2.700000000000000000e+01
6.904700000000000000e+04,5.999999999999999474e-05,8.000000000000000654e-05,1.300000000000000157e-04,1.699999999999999851e-04,4.000000000000000327e-05,1.499999999999999869e-04,0.000000000000000000e+00,2.000000000000000164e-05,7.000000000000000000e+00,2.700000000000000000e+01
6.904800000000000000e+04,5.999999999999999474e-05,8.000000000000000654e-05,1.300000000000000157e-04,1.699999999999999851e-04,4.000000000000000327e-05,1.499999999999999869e-04,0.000000000000000000e+00,2.000000000000000164e-05,7.000000000000000000e+00,2.700000000000000000e+01
6.904900000000000000e+04,5.999999999999999474e-05,8.000000000000000654e-05,1.300000000000000157e-04,1.699999999999999851e-04,4.000000000000000327e-05,1.499999999999999869e-04,0.000000000000000000e+00,2.000000000000000164e-05,7.000000000000000000e+00,2.700000000000000000e+01
6.905000000000000000e+04,5.999999999999999474e-05,8.000000000000000654e-05,1.300000000000000157e-04,1.699999999999999851e-04,4.000000000000000327e-05,1.499999999999999869e-04,0.000000000000000000e+00,2.000000000000000164e-05,7.000000000000000000e+00,2.700000000000000000e+01
6.905100000000000000e+04,5.999999999999999474e-05,8.000000000000000654e-05,1.300000000000000157e-04,1.699999999999999851e-04,4.000000000000000327e-05,1.499999999999999869e-04,0.000000000000000000e+00,2.000000000000000164e-05,7.000000000000000000e+00,2.700000000000000000e+01
6.905200000000000000e+04,5.999999999999999474e-05,8.000000000000000654e-05,1.300000000000000157e-04,1.699999999999999851e-04,4.000000000000000327e-05,1.499999999999999869e-04,0.000000000000000000e+00,2.000000000000000164e-05,7.000000000000000000e+00,2.700000000000000000e+01
6.905300000000000000e+04,5.999999999999999474e-05,8.000000000000000654e-05,1.300000000000000157e-04,1.699999999999999851e-04,4.000000000000000327e-05,1.499999999999999869e-04,0.000000000000000000e+00,2.000000000000000164e-05,7.000000000000000000e+00,2.700000000000000000e+01
6.905400000000000000e+04,5.999999999999999474e-05,8.000000000000000654e-05,1.300000000000000157e-04,1.699999999999999851e-04,4.000000000000000327e-05,1.499999999999999869e-04,0.000000000000000000e+00,2.000000000000000164e-05,7.000000000000000000e+00,2.700000000000000000e+01
6.905500000000000000e+04,5.999999999999999474e-05,8.000000000000000654e-05,1.300000000000000157e-04,1.699999999999999851e-04,4.000000000000000327e-05,1.499999999999999869e-04,0.000000000000000000e+00,2.000000000000000164e-05,7.000000000000000000e+00,2.700000000000000000e+01
6.905600000000000000e+04,5.999999999999999474e-05,8.000000000000000654e-05,1.300000000000000157e-04,1.699999999999999851e-04,4.000000000000000327e-05,1.499999999999999869e-04,0.000000000000000000e+00,2.000000000000000164e-05,7.000000000000000000e+00,2.700000000000000000e+01
6.905700000000000000e+04,5.999999999999999474e-05,8.000000000000000654e-05,1.300000000000000157e-04,1.699999999999999851e-04,4.000000000000000327e-05,1.499999999999999869e-04,0.000000000000000000e+00,2.000000000000000164e-05,7.000000000000000000e+00,2.700000000000000000e+01
6.905800000000000000e+04,5.999999999999999474e-05,8.000000000000000654e-05,1.300000000000000157e-04,1.699999999999999851e-04,4.000000000000000327e-05,1.499999999999999869e-04,0.000000000000000000e+00,2.000000000000000164e-05,7.000000000000000000e+00,2.700000000000000000e+01
6.905900000000000000e+04,4.000000000000000327e-05,0.000000000000000000e+00,-2.999999999999999737e-05,-1.800000000000000113e-04,-3.600000000000000227e-04,2.900000000000000017e-04,1.000000000000000082e-05,9.000000000000000567e-05,7.000000000000000000e+00,2.700000000000000000e+01
6.906000000000000000e+04,1.600000000000000131e-04,4.000000000000000327e-05,0.000000000000000000e+00,9.000000000000000567e-05,5.000000000000000240e-05,2.999999999999999737e-05,1.300000000000000157e-04,4.000000000000000192e-04,7.000000000000000000e+00,2.700000000000000000e+01
6.906100000000000000e+04,1.600000000000000131e-04,4.000000000000000327e-05,0.000000000000000000e+00,9.000000000000000567e-05,5.000000000000000240e-05,2.999999999999999737e-05,1.300000000000000157e-04,4.000000000000000192e-04,7.000000000000000000e+00,2.700000000000000000e+01
6.906200000000000000e+04,1.600000000000000131e-04,4.000000000000000327e-05,0.000000000000000000e+00,9.000000000000000567e-05,5.000000000000000240e-05,2.999999999999999737e-05,1.300000000000000157e-04,4.000000000000000192e-04,7.000000000000000000e+00,2.700000000000000000e+01
6.906300000000000000e+04,1.600000000000000131e-04,4.000000000000000327e-05,0.000000000000000000e+00,9.000000000000000567e-05,5.000000000000000240e-05,2.999999999999999737e-05,1.300000000000000157e-04,4.000000000000000192e-04,7.000000000000000000e+00,2.700000000000000000e+01
6.906400000000000000e+04,1.600000000000000131e-04,4.000000000000000327e-05,0.000000000000000000e+00,9.000000000000000567e-05,5.000000000000000240e-05,2.999999999999999737e-05,1.300000000000000157e-04,4.000000000000000192e-04,7.000000000000000000e+00,2.700000000000000000e+01
6.906500000000000000e+04,1.600000000000000131e-04,4.000000000000000327e-05,0.000000000000000000e+00,9.000000000000000567e-05,5.000000000000000240e-05,2.999999999999999737e-05,1.300000000000000157e-04,4.000000000000000192e-04,7.000000000000000000e+00,2.700000000000000000e+01
6.906600000000000000e+04,1.600000000000000131e-04,4.000000000000000327e-05,0.000000000000000000e+00,9.000000000000000567e-05,5.000000000000000240e-05,2.999999999999999737e-05,1.300000000000000157e-04,4.000000000000000192e-04,7.000000000000000000e+00,2.700000000000000000e+01
6.906700000000000000e+04,1.600000000000000131e-04,4.000000000000000327e-05,0.000000000000000000e+00,9.000000000000000567e-05,5.000000000000000240e-05,2.999999999999999737e-05,1.300000000000000157e-04,4.000000000000000192e-04,7.000000000000000000e+00,2.700000000000000000e+01
6.906800000000000000e+04,1.600000000000000131e-04,4.000000000000000327e-05,0.000000000000000000e+00,9.000000000000000567e-05,5.000000000000000240e-05,2.999999999999999737e-05,1.300000000000000157e-04,4.000000000000000192e-04,7.000000000000000000e+00,2.700000000000000000e+01
6.906900000000000000e+04,1.600000000000000131e-04,4.000000000000000327e-05,0.000000000000000000e+00,9.000000000000000567e-05,5.000000000000000240e-05,2.999999999999999737e-05,1.300000000000000157e-04,4.000000000000000192e-04,7.000000000000000000e+00,2.700000000000000000e+01
6.907000000000000000e+04,1.600000000000000131e-04,4.000000000000000327e-05,0.000000000000000000e+00,9.000000000000000567e-05,5.000000000000000240e-05,2.999999999999999737e-05,1.300000000000000157e-04,4.000000000000000192e-04,7.000000000000000000e+00,2.700000000000000000e+01
6.907100000000000000e+04,1.600000000000000131e-04,4.000000000000000327e-05,0.000000000000000000e+00,9.000000000000000567e-05,5.000000000000000240e-05,2.999999999999999737e-05,1.300000000000000157e-04,4.000000000000000192e-04,7.000000000000000000e+00,2.700000000000000000e+01
6.907200000000000000e+04,1.600000000000000131e-04,4.000000000000000327e-05,0.000000000000000000e+00,9.000000000000000567e-05,5.000000000000000240e-05,2.999999999999999737e-05,1.300000000000000157e-04,4.000000000000000192e-04,7.000000000000000000e+00,2.700000000000000000e+01
6.907300000000000000e+04,1.600000000000000131e-04,4.000000000000000327e-05,0.000000000000000000e+00,9.000000000000000567e-05,5.000000000000000240e-05,2.999999999999999737e-05,1.300000000000000157e-04,4.000000000000000192e-04,7.000000000000000000e+00,2.700000000000000000e+01
6.907400000000000000e+04,1.600000000000000131e-04,4.000000000000000327e-05,0.000000000000000000e+00,9.000000000000000567e-05,5.000000000000000240e-05,2.999999999999999737e-05,1.300000000000000157e-04,4.000000000000000192e-04,7.000000000000000000e+00,2.700000000000000000e+01
6.907500000000000000e+04,1.600000000000000131e-04,4.000000000000000327e-05,0.000000000000000000e+00,9.000000000000000567e-05,5.000000000000000240e-05,2.999999999999999737e-05,1.300000000000000157e-04,4.000000000000000192e-04,7.000000000000000000e+00,2.700000000000000000e+01
6.907600000000000000e+04,1.600000000000000131e-04,4.000000000000000327e-05,0.000000000000000000e+00,9.000000000000000567e-05,5.000000000000000240e-05,2.999999999999999737e-05,1.300000000000000157e-04,4.000000000000000192e-04,7.000000000000000000e+00,2.700000000000000000e+01
6.907700000000000000e+04,1.600000000000000131e-04,4.000000000000000327e-05,0.000000000000000000e+00,9.000000000000000567e-05,5.000000000000000240e-05,2.999999999999999737e-05,1.300000000000000157e-04,4.000000000000000192e-04,7.000000000000000000e+00,2.700000000000000000e+01
6.907800000000000000e+04,1.600000000000000131e-04,4.000000000000000327e-05,0.000000000000000000e+00,9.000000000000000567e-05,5.000000000000000240e-05,2.999999999999999737e-05,1.300000000000000157e-04,4.000000000000000192e-04,7.000000000000000000e+00,2.700000000000000000e+01
6.907900000000000000e+04,1.600000000000000131e-04,4.000000000000000327e-05,0.000000000000000000e+00,9.000000000000000567e-05,5.000000000000000240e-05,2.999999999999999737e-05,1.300000000000000157e-04,4.000000000000000192e-04,7.000000000000000000e+00,2.700000000000000000e+01
6.908000000000000000e+04,1.600000000000000131e-04,4.000000000000000327e-05,0.000000000000000000e+00,9.000000000000000567e-05,5.000000000000000240e-05,2.999999999999999737e-05,1.300000000000000157e-04,4.000000000000000192e-04,7.000000000000000000e+00,2.700000000000000000e+01
6.908100000000000000e+04,1.600000000000000131e-04,4.000000000000000327e-05,0.000000000000000000e+00,9.000000000000000567e-05,5.000000000000000240e-05,2.999999999999999737e-05,1.300000000000000157e-04,4.000000000000000192e-04,7.000000000000000000e+00,2.700000000000000000e+01
6.908200000000000000e+04,5.000000000000000240e-05,6.999999999999999387e-05,1.499999999999999869e-04,5.900000000000000296e-04,3.399999999999999702e-04,-1.300000000000000157e-04,1.600000000000000131e-04,1.100000000000000039e-04,7.000000000000000000e+00,2.700000000000000000e+01
6.908300000000000000e+04,-1.000000000000000082e-05,4.000000000000000327e-05,1.499999999999999869e-04,-2.999999999999999737e-05,8.000000000000000654e-05,1.000000000000000048e-04,-2.999999999999999737e-05,1.000000000000000048e-04,7.000000000000000000e+00,2.700000000000000000e+01
6.908400000000000000e+04,-1.000000000000000082e-05,4.000000000000000327e-05,1.499999999999999869e-04,-2.999999999999999737e-05,8.000000000000000654e-05,1.000000000000000048e-04,-2.999999999999999737e-05,1.000000000000000048e-04,7.000000000000000000e+00,2.700000000000000000e+01
6.908500000000000000e+04,-1.000000000000000082e-05,4.000000000000000327e-05,1.499999999999999869e-04,-2.999999999999999737e-05,8.000000000000000654e-05,1.000000000000000048e-04,-2.999999999999999737e-05,1.000000000000000048e-04,7.000000000000000000e+00,2.700000000000000000e+01
6.908600000000000000e+04,-1.000000000000000082e-05,4.000000000000000327e-05,1.499999999999999869e-04,-2.999999999999999737e-05,8.000000000000000654e-05,1.000000000000000048e-04,-2.999999999999999737e-05,1.000000000000000048e-04,7.000000000000000000e+00,2.700000000000000000e+01
6.908800000000000000e+04,-1.000000000000000082e-05,4.000000000000000327e-05,1.499999999999999869e-04,-2.999999999999999737e-05,8.000000000000000654e-05,1.000000000000000048e-04,-2.999999999999999737e-05,1.000000000000000048e-04,7.000000000000000000e+00,2.700000000000000000e+01
6.908900000000000000e+04,-1.000000000000000082e-05,4.000000000000000327e-05,1.499999999999999869e-04,-2.999999999999999737e-05,8.000000000000000654e-05,1.000000000000000048e-04,-2.999999999999999737e-05,1.000000000000000048e-04,7.000000000000000000e+00,2.700000000000000000e+01
6.909000000000000000e+04,-1.000000000000000082e-05,4.000000000000000327e-05,1.499999999999999869e-04,-2.999999999999999737e-05,8.000000000000000654e-05,1.000000000000000048e-04,-2.999999999999999737e-05,1.000000000000000048e-04,7.000000000000000000e+00,2.700000000000000000e+01
6.909100000000000000e+04,-1.000000000000000082e-05,4.000000000000000327e-05,1.499999999999999869e-04,-2.999999999999999737e-05,8.000000000000000654e-05,1.000000000000000048e-04,-2.999999999999999737e-05,1.000000000000000048e-04,7.000000000000000000e+00,2.700000000000000000e+01
6.909200000000000000e+04,-1.000000000000000082e-05,4.000000000000000327e-05,1.499999999999999869e-04,-2.999999999999999737e-05,8.000000000000000654e-05,1.000000000000000048e-04,-2.999999999999999737e-05,1.000000000000000048e-04,7.000000000000000000e+00,2.700000000000000000e+01
6.909300000000000000e+04,-1.000000000000000082e-05,4.000000000000000327e-05,1.499999999999999869e-04,-2.999999999999999737e-05,8.000000000000000654e-05,1.000000000000000048e-04,-2.999999999999999737e-05,1.000000000000000048e-04,7.000000000000000000e+00,2.700000000000000000e+01
6.909400000000000000e+04,-1.000000000000000082e-05,4.000000000000000327e-05,1.499999999999999869e-04,-2.999999999999999737e-05,8.000000000000000654e-05,1.000000000000000048e-04,-2.999999999999999737e-05,1.000000000000000048e-04,7.000000000000000000e+00,2.700000000000000000e+01
6.909500000000000000e+04,-1.000000000000000082e-05,4.000000000000000327e-05,1.499999999999999869e-04,-2.999999999999999737e-05,8.000000000000000654e-05,1.000000000000000048e-04,-2.999999999999999737e-05,1.000000000000000048e-04,7.000000000000000000e+00,2.700000000000000000e+01
6.909600000000000000e+04,-1.000000000000000082e-05,-4.000000000000000327e-05,-1.899999999999999834e-04,-3.299999999999999982e-04,-1.199999999999999895e-04,-8.000000000000000654e-05,-8.000000000000000654e-05,-4.000000000000000327e-05,7.000000000000000000e+00,2.700000000000000000e+01
6.909700000000000000e+04,2.999999999999999737e-05,-1.000000000000000082e-05,4.000000000000000327e-05,1.699999999999999851e-04,-2.399999999999999790e-04,-6.999999999999999387e-05,2.999999999999999737e-05,2.299999999999999799e-04,7.000000000000000000e+00,2.700000000000000000e+01
6.909800000000000000e+04,2.999999999999999737e-05,-1.000000000000000082e-05,4.000000000000000327e-05,1.699999999999999851e-04,-2.399999999999999790e-04,-6.999999999999999387e-05,2.999999999999999737e-05,2.299999999999999799e-04,7.000000000000000000e+00,2.700000000000000000e+01
6.909900000000000000e+04,2.999999999999999737e-05,-1.000000000000000082e-05,4.000000000000000327e-05,1.699999999999999851e-04,-2.399999999999999790e-04,-6.999999999999999387e-05,2.999999999999999737e-05,2.299999999999999799e-04,7.000000000000000000e+00,2.700000000000000000e+01
6.910000000000000000e+04,2.999999999999999737e-05,-1.000000000000000082e-05,4.000000000000000327e-05,1.699999999999999851e-04,-2.399999999999999790e-04,-6.999999999999999387e-05,2.999999999999999737e-05,2.299999999999999799e-04,7.000000000000000000e+00,2.700000000000000000e+01
6.910100000000000000e+04,2.999999999999999737e-05,-1.000000000000000082e-05,4.000000000000000327e-05,1.699999999999999851e-04,-2.399999999999999790e-04,-6.999999999999999387e-05,2.999999999999999737e-05,2.299999999999999799e-04,7.000000000000000000e+00,2.700000000000000000e+01
6.910200000000000000e+04,2.999999999999999737e-05,-1.000000000000000082e-05,4.000000000000000327e-05,1.699999999999999851e-04,-2.399999999999999790e-04,-6.999999999999999387e-05,2.999999999999999737e-05,2.299999999999999799e-04,7.000000000000000000e+00,2.700000000000000000e+01
6.910300000000000000e+04,2.999999999999999737e-05,-1.000000000000000082e-05,4.000000000000000327e-05,1.699999999999999851e-04,-2.399999999999999790e-04,-6.999999999999999387e-05,2.999999999999999737e-05,2.299999999999999799e-04,7.000000000000000000e+00,2.700000000000000000e+01
6.910400000000000000e+04,2.999999999999999737e-05,-1.000000000000000082e-05,4.000000000000000327e-05,1.699999999999999851e-04,-2.399999999999999790e-04,-6.999999999999999387e-05,2.999999999999999737e-05,2.299999999999999799e-04,7.000000000000000000e+00,2.700000000000000000e+01
6.910500000000000000e+04,2.999999999999999737e-05,-1.000000000000000082e-05,4.000000000000000327e-05,1.699999999999999851e-04,-2.399999999999999790e-04,-6.999999999999999387e-05,2.999999999999999737e-05,2.299999999999999799e-04,7.000000000000000000e+00,2.700000000000000000e+01
6.910600000000000000e+04,2.999999999999999737e-05,-1.000000000000000082e-05,4.000000000000000327e-05,1.699999999999999851e-04,-2.399999999999999790e-04,-6.999999999999999387e-05,2.999999999999999737e-05,2.299999999999999799e-04,7.000000000000000000e+00,2.700000000000000000e+01
6.910700000000000000e+04,2.999999999999999737e-05,-1.000000000000000082e-05,4.000000000000000327e-05,1.699999999999999851e-04,-2.399999999999999790e-04,-6.999999999999999387e-05,2.999999999999999737e-05,2.299999999999999799e-04,7.000000000000000000e+00,2.700000000000000000e+01
6.910800000000000000e+04,2.999999999999999737e-05,-1.000000000000000082e-05,4.000000000000000327e-05,1.699999999999999851e-04,-2.399999999999999790e-04,-6.999999999999999387e-05,2.999999999999999737e-05,2.299999999999999799e-04,7.000000000000000000e+00,2.700000000000000000e+01
6.910900000000000000e+04,2.999999999999999737e-05,-1.000000000000000082e-05,4.000000000000000327e-05,1.699999999999999851e-04,-2.399999999999999790e-04,-6.999999999999999387e-05,2.999999999999999737e-05,2.299999999999999799e-04,7.000000000000000000e+00,2.700000000000000000e+01
6.911000000000000000e+04,2.999999999999999737e-05,-1.000000000000000082e-05,4.000000000000000327e-05,1.699999999999999851e-04,-2.399999999999999790e-04,-6.999999999999999387e-05,2.999999999999999737e-05,2.299999999999999799e-04,7.000000000000000000e+00,2.700000000000000000e+01
6.911100000000000000e+04,2.999999999999999737e-05,-1.000000000000000082e-05,4.000000000000000327e-05,1.699999999999999851e-04,-2.399999999999999790e-04,-6.999999999999999387e-05,2.999999999999999737e-05,2.299999999999999799e-04,7.000000000000000000e+00,2.700000000000000000e+01
6.911200000000000000e+04,2.999999999999999737e-05,-1.000000000000000082e-05,4.000000000000000327e-05,1.699999999999999851e-04,-2.399999999999999790e-04,-6.999999999999999387e-05,2.999999999999999737e-05,2.299999999999999799e-04,7.000000000000000000e+00,2.700000000000000000e+01
6.911300000000000000e+04,2.999999999999999737e-05,-1.000000000000000082e-05,4.000000000000000327e-05,1.699999999999999851e-04,-2.399999999999999790e-04,-6.999999999999999387e-05,2.999999999999999737e-05,2.299999999999999799e-04,7.000000000000000000e+00,2.700000000000000000e+01
6.911400000000000000e+04,2.999999999999999737e-05,-1.000000000000000082e-05,4.000000000000000327e-05,1.699999999999999851e-04,-2.399999999999999790e-04,-6.999999999999999387e-05,2.999999999999999737e-05,2.299999999999999799e-04,7.000000000000000000e+00,2.700000000000000000e+01
6.911500000000000000e+04,2.999999999999999737e-05,-1.000000000000000082e-05,4.000000000000000327e-05,1.699999999999999851e-04,-2.399999999999999790e-04,-6.999999999999999387e-05,2.999999999999999737e-05,2.299999999999999799e-04,7.000000000000000000e+00,2.700000000000000000e+01
6.911600000000000000e+04,2.999999999999999737e-05,-1.000000000000000082e-05,4.000000000000000327e-05,1.699999999999999851e-04,-2.399999999999999790e-04,-6.999999999999999387e-05,2.999999999999999737e-05,2.299999999999999799e-04,7.000000000000000000e+00,2.700000000000000000e+01
6.911700000000000000e+04,2.999999999999999737e-05,-1.000000000000000082e-05,4.000000000000000327e-05,1.699999999999999851e-04,-2.399999999999999790e-04,-6.999999999999999387e-05,2.999999999999999737e-05,2.299999999999999799e-04,7.000000000000000000e+00,2.700000000000000000e+01
6.911800000000000000e+04,2.999999999999999737e-05,-1.000000000000000082e-05,4.000000000000000327e-05,1.699999999999999851e-04,-2.399999999999999790e-04,-6.999999999999999387e-05,2.999999999999999737e-05,2.299999999999999799e-04,7.000000000000000000e+00,2.700000000000000000e+01
6.911900000000000000e+04,-5.000000000000000240e-05,0.000000000000000000e+00,2.999999999999999737e-05,1.899999999999999834e-04,4.299999999999999894e-04,1.100000000000000039e-04,-5.000000000000000240e-05,-5.000000000000000240e-05,7.000000000000000000e+00,2.700000000000000000e+01
6.912000000000000000e+04,-6.999999999999999387e-05,0.000000000000000000e+00,5.000000000000000240e-05,0.000000000000000000e+00,-2.900000000000000017e-04,5.999999999999999474e-05,0.000000000000000000e+00,-2.999999999999999737e-04,7.000000000000000000e+00,2.700000000000000000e+01
6.912100000000000000e+04,-6.999999999999999387e-05,0.000000000000000000e+00,5.000000000000000240e-05,0.000000000000000000e+00,-2.900000000000000017e-04,5.999999999999999474e-05,0.000000000000000000e+00,-2.999999999999999737e-04,7.000000000000000000e+00,2.700000000000000000e+01
6.912200000000000000e+04,-6.999999999999999387e-05,0.000000000000000000e+00,5.000000000000000240e-05,0.000000000000000000e+00,-2.900000000000000017e-04,5.999999999999999474e-05,0.000000000000000000e+00,-2.999999999999999737e-04,7.000000000000000000e+00,2.700000000000000000e+01
6.912300000000000000e+04,-6.999999999999999387e-05,0.000000000000000000e+00,5.000000000000000240e-05,0.000000000000000000e+00,-2.900000000000000017e-04,5.999999999999999474e-05,0.000000000000000000e+00,-2.999999999999999737e-04,7.000000000000000000e+00,2.700000000000000000e+01
6.912400000000000000e+04,-6.999999999999999387e-05,0.000000000000000000e+00,5.000000000000000240e-05,0.000000000000000000e+00,-2.900000000000000017e-04,5.999999999999999474e-05,0.000000000000000000e+00,-2.999999999999999737e-04,7.000000000000000000e+00,2.700000000000000000e+01
6.912500000000000000e+04,-6.999999999999999387e-05,0.000000000000000000e+00,5.000000000000000240e-05,0.000000000000000000e+00,-2.900000000000000017e-04,5.999999999999999474e-05,0.000000000000000000e+00,-2.999999999999999737e-04,7.000000000000000000e+00,2.700000000000000000e+01
6.912600000000000000e+04,-6.999999999999999387e-05,0.000000000000000000e+00,5.000000000000000240e-05,0.000000000000000000e+00,-2.900000000000000017e-04,5.999999999999999474e-05,0.000000000000000000e+00,-2.999999999999999737e-04,7.000000000000000000e+00,2.700000000000000000e+01
6.912700000000000000e+04,-6.999999999999999387e-05,0.000000000000000000e+00,5.000000000000000240e-05,0.000000000000000000e+00,-2.900000000000000017e-04,5.999999999999999474e-05,0.000000000000000000e+00,-2.999999999999999737e-04,7.000000000000000000e+00,2.700000000000000000e+01
6.912800000000000000e+04,-6.999999999999999387e-05,0.000000000000000000e+00,5.000000000000000240e-05,0.000000000000000000e+00,-2.900000000000000017e-04,5.999999999999999474e-05,0.000000000000000000e+00,-2.999999999999999737e-04,7.000000000000000000e+00,2.700000000000000000e+01
6.912900000000000000e+04,-6.999999999999999387e-05,0.000000000000000000e+00,5.000000000000000240e-05,0.000000000000000000e+00,-2.900000000000000017e-04,5.999999999999999474e-05,0.000000000000000000e+00,-2.999999999999999737e-04,7.000000000000000000e+00,2.700000000000000000e+01
6.913000000000000000e+04,-6.999999999999999387e-05,0.000000000000000000e+00,5.000000000000000240e-05,0.000000000000000000e+00,-2.900000000000000017e-04,5.999999999999999474e-05,0.000000000000000000e+00,-2.999999999999999737e-04,7.000000000000000000e+00,2.700000000000000000e+01
6.913100000000000000e+04,-6.999999999999999387e-05,0.000000000000000000e+00,5.000000000000000240e-05,0.000000000000000000e+00,-2.900000000000000017e-04,5.999999999999999474e-05,0.000000000000000000e+00,-2.999999999999999737e-04,7.000000000000000000e+00,2.700000000000000000e+01
6.913200000000000000e+04,-6.999999999999999387e-05,0.000000000000000000e+00,5.000000000000000240e-05,0.000000000000000000e+00,-2.900000000000000017e-04,5.999999999999999474e-05,0.000000000000000000e+00,-2.999999999999999737e-04,7.000000000000000000e+00,2.700000000000000000e+01
6.913300000000000000e+04,-6.999999999999999387e-05,0.000000000000000000e+00,5.000000000000000240e-05,0.000000000000000000e+00,-2.900000000000000017e-04,5.999999999999999474e-05,0.000000000000000000e+00,-2.999999999999999737e-04,7.000000000000000000e+00,2.700000000000000000e+01
6.913400000000000000e+04,-6.999999999999999387e-05,0.000000000000000000e+00,5.000000000000000240e-05,0.000000000000000000e+00,-2.900000000000000017e-04,5.999999999999999474e-05,0.000000000000000000e+00,-2.999999999999999737e-04,7.000000000000000000e+00,2.700000000000000000e+01
6.913500000000000000e+04,-6.999999999999999387e-05,0.000000000000000000e+00,5.000000000000000240e-05,0.000000000000000000e+00,-2.900000000000000017e-04,5.999999999999999474e-05,0.000000000000000000e+00,-2.999999999999999737e-04,7.000000000000000000e+00,2.700000000000000000e+01
6.913600000000000000e+04,-6.999999999999999387e-05,0.000000000000000000e+00,5.000000000000000240e-05,0.000000000000000000e+00,-2.900000000000000017e-04,5.999999999999999474e-05,0.000000000000000000e+00,-2.999999999999999737e-04,7.000000000000000000e+00,2.700000000000000000e+01
6.913800000000000000e+04,-6.999999999999999387e-05,0.000000000000000000e+00,5.000000000000000240e-05,0.000000000000000000e+00,-2.900000000000000017e-04,5.999999999999999474e-05,0.000000000000000000e+00,-2.999999999999999737e-04,7.000000000000000000e+00,2.700000000000000000e+01
6.913900000000000000e+04,-6.999999999999999387e-05,0.000000000000000000e+00,5.000000000000000240e-05,0.000000000000000000e+00,-2.900000000000000017e-04,5.999999999999999474e-05,0.000000000000000000e+00,-2.999999999999999737e-04,7.000000000000000000e+00,2.700000000000000000e+01
6.914000000000000000e+04,-6.999999999999999387e-05,0.000000000000000000e+00,5.000000000000000240e-05,0.000000000000000000e+00,-2.900000000000000017e-04,5.999999999999999474e-05,0.000000000000000000e+00,-2.999999999999999737e-04,7.000000000000000000e+00,2.700000000000000000e+01
6.914100000000000000e+04,-6.999999999999999387e-05,0.000000000000000000e+00,5.000000000000000240e-05,0.000000000000000000e+00,-2.900000000000000017e-04,5.999999999999999474e-05,0.000000000000000000e+00,-2.999999999999999737e-04,7.000000000000000000e+00,2.700000000000000000e+01
6.914200000000000000e+04,0.000000000000000000e+00,2.000000000000000164e-05,2.999999999999999737e-05,2.299999999999999799e-04,4.000000000000000327e-05,-2.999999999999999737e-05,-5.999999999999999474e-05,-5.999999999999999474e-05,7.000000000000000000e+00,2.700000000000000000e+01
6.914300000000000000e+04,-2.000000000000000164e-05,-2.999999999999999737e-05,0.000000000000000000e+00,1.000000000000000082e-05,1.499999999999999869e-04,2.999999999999999737e-05,-5.999999999999999474e-05,-9.000000000000000567e-05,7.000000000000000000e+00,2.700000000000000000e+01
6.914400000000000000e+04,-2.000000000000000164e-05,-2.999999999999999737e-05,0.000000000000000000e+00,1.000000000000000082e-05,1.499999999999999869e-04,2.999999999999999737e-05,-5.999999999999999474e-05,-9.000000000000000567e-05,7.000000000000000000e+00,2.700000000000000000e+01
6.914500000000000000e+04,-2.000000000000000164e-05,-2.999999999999999737e-05,0.000000000000000000e+00,1.000000000000000082e-05,1.499999999999999869e-04,2.999999999999999737e-05,-5.999999999999999474e-05,-9.000000000000000567e-05,7.000000000000000000e+00,2.700000000000000000e+01
6.914600000000000000e+04,-2.000000000000000164e-05,-2.999999999999999737e-05,0.000000000000000000e+00,1.000000000000000082e-05,1.499999999999999869e-04,2.999999999999999737e-05,-5.999999999999999474e-05,-9.000000000000000567e-05,7.000000000000000000e+00,2.700000000000000000e+01
6.914700000000000000e+04,-2.000000000000000164e-05,-2.999999999999999737e-05,0.000000000000000000e+00,1.000000000000000082e-05,1.499999999999999869e-04,2.999999999999999737e-05,-5.999999999999999474e-05,-9.000000000000000567e-05,7.000000000000000000e+00,2.700000000000000000e+01
6.914800000000000000e+04,-2.000000000000000164e-05,-2.999999999999999737e-05,0.000000000000000000e+00,1.000000000000000082e-05,1.499999999999999869e-04,2.999999999999999737e-05,-5.999999999999999474e-05,-9.000000000000000567e-05,7.000000000000000000e+00,2.700000000000000000e+01
6.914900000000000000e+04,-2.000000000000000164e-05,-2.999999999999999737e-05,0.000000000000000000e+00,1.000000000000000082e-05,1.499999999999999869e-04,2.999999999999999737e-05,-5.999999999999999474e-05,-9.000000000000000567e-05,7.000000000000000000e+00,2.700000000000000000e+01
6.915000000000000000e+04,-2.000000000000000164e-05,-2.999999999999999737e-05,0.000000000000000000e+00,1.000000000000000082e-05,1.499999999999999869e-04,2.999999999999999737e-05,-5.999999999999999474e-05,-9.000000000000000567e-05,7.000000000000000000e+00,2.700000000000000000e+01
6.915100000000000000e+04,-2.000000000000000164e-05,-2.999999999999999737e-05,0.000000000000000000e+00,1.000000000000000082e-05,1.499999999999999869e-04,2.999999999999999737e-05,-5.999999999999999474e-05,-9.000000000000000567e-05,7.000000000000000000e+00,2.700000000000000000e+01
6.915200000000000000e+04,-2.000000000000000164e-05,-2.999999999999999737e-05,0.000000000000000000e+00,1.000000000000000082e-05,1.499999999999999869e-04,2.999999999999999737e-05,-5.999999999999999474e-05,-9.000000000000000567e-05,7.000000000000000000e+00,2.700000000000000000e+01
6.915300000000000000e+04,-2.000000000000000164e-05,-2.999999999999999737e-05,0.000000000000000000e+00,1.000000000000000082e-05,1.499999999999999869e-04,2.999999999999999737e-05,-5.999999999999999474e-05,-9.000000000000000567e-05,7.000000000000000000e+00,2.700000000000000000e+01
6.915400000000000000e+04,-2.000000000000000164e-05,-2.999999999999999737e-05,0.000000000000000000e+00,1.000000000000000082e-05,1.499999999999999869e-04,2.999999999999999737e-05,-5.999999999999999474e-05,-9.000000000000000567e-05,7.000000000000000000e+00,2.700000000000000000e+01
6.915500000000000000e+04,-2.000000000000000164e-05,-2.999999999999999737e-05,0.000000000000000000e+00,1.000000000000000082e-05,1.499999999999999869e-04,2.999999999999999737e-05,-5.999999999999999474e-05,-9.000000000000000567e-05,7.000000000000000000e+00,2.700000000000000000e+01
6.915600000000000000e+04,-2.000000000000000164e-05,-2.999999999999999737e-05,0.000000000000000000e+00,1.000000000000000082e-05,1.499999999999999869e-04,2.999999999999999737e-05,-5.999999999999999474e-05,-9.000000000000000567e-05,7.000000000000000000e+00,2.700000000000000000e+01
6.915700000000000000e+04,-5.000000000000000240e-05,-2.000000000000000164e-05,-6.999999999999999387e-05,-1.899999999999999834e-04,-3.799999999999999667e-04,-1.000000000000000048e-04,-1.000000000000000048e-04,-1.800000000000000113e-04,7.000000000000000000e+00,2.700000000000000000e+01
6.915800000000000000e+04,-5.000000000000000240e-05,-2.000000000000000164e-05,-6.999999999999999387e-05,-1.899999999999999834e-04,-3.799999999999999667e-04,-1.000000000000000048e-04,-1.000000000000000048e-04,-1.800000000000000113e-04,7.000000000000000000e+00,2.700000000000000000e+01
6.915900000000000000e+04,-5.000000000000000240e-05,-2.000000000000000164e-05,-6.999999999999999387e-05,-1.899999999999999834e-04,-3.799999999999999667e-04,-1.000000000000000048e-04,-1.000000000000000048e-04,-1.800000000000000113e-04,7.000000000000000000e+00,2.700000000000000000e+01
6.916000000000000000e+04,-5.000000000000000240e-05,-2.000000000000000164e-05,-6.999999999999999387e-05,-1.899999999999999834e-04,-3.799999999999999667e-04,-1.000000000000000048e-04,-1.000000000000000048e-04,-1.800000000000000113e-04,7.000000000000000000e+00,2.700000000000000000e+01
6.916100000000000000e+04,-5.000000000000000240e-05,-2.000000000000000164e-05,-6.999999999999999387e-05,-1.899999999999999834e-04,-3.799999999999999667e-04,-1.000000000000000048e-04,-1.000000000000000048e-04,-1.800000000000000113e-04,7.000000000000000000e+00,2.700000000000000000e+01
6.916200000000000000e+04,-5.000000000000000240e-05,-2.000000000000000164e-05,-6.999999999999999387e-05,-1.899999999999999834e-04,-3.799999999999999667e-04,-1.000000000000000048e-04,-1.000000000000000048e-04,-1.800000000000000113e-04,7.000000000000000000e+00,2.700000000000000000e+01
6.916300000000000000e+04,-5.000000000000000240e-05,-2.000000000000000164e-05,-6.999999999999999387e-05,-1.899999999999999834e-04,-3.799999999999999667e-04,-1.000000000000000048e-04,-1.000000000000000048e-04,-1.800000000000000113e-04,7.000000000000000000e+00,2.700000000000000000e+01
6.916400000000000000e+04,-5.000000000000000240e-05,-2.000000000000000164e-05,-6.999999999999999387e-05,-1.899999999999999834e-04,-3.799999999999999667e-04,-1.000000000000000048e-04,-1.000000000000000048e-04,-1.800000000000000113e-04,7.000000000000000000e+00,2.700000000000000000e+01
6.916500000000000000e+04,-5.000000000000000240e-05,-2.000000000000000164e-05,-6.999999999999999387e-05,-1.899999999999999834e-04,-3.799999999999999667e-04,-1.000000000000000048e-04,-1.000000000000000048e-04,-1.800000000000000113e-04,7.000000000000000000e+00,2.700000000000000000e+01
6.916600000000000000e+04,-5.000000000000000240e-05,-2.000000000000000164e-05,-6.999999999999999387e-05,-1.899999999999999834e-04,-3.799999999999999667e-04,-1.000000000000000048e-04,-1.000000000000000048e-04,-1.800000000000000113e-04,7.000000000000000000e+00,2.700000000000000000e+01
6.916700000000000000e+04,-5.000000000000000240e-05,-2.000000000000000164e-05,-6.999999999999999387e-05,-1.899999999999999834e-04,-3.799999999999999667e-04,-1.000000000000000048e-04,-1.000000000000000048e-04,-1.800000000000000113e-04,7.000000000000000000e+00,2.700000000000000000e+01
6.916800000000000000e+04,-5.000000000000000240e-05,-2.000000000000000164e-05,-6.999999999999999387e-05,-1.899999999999999834e-04,-3.799999999999999667e-04,-1.000000000000000048e-04,-1.000000000000000048e-04,-1.800000000000000113e-04,7.000000000000000000e+00,2.700000000000000000e+01
6.916900000000000000e+04,-5.000000000000000240e-05,-2.000000000000000164e-05,-6.999999999999999387e-05,-1.899999999999999834e-04,-3.799999999999999667e-04,-1.000000000000000048e-04,-1.000000000000000048e-04,-1.800000000000000113e-04,7.000000000000000000e+00,2.700000000000000000e+01
6.917000000000000000e+04,-5.000000000000000240e-05,-2.000000000000000164e-05,-6.999999999999999387e-05,-1.899999999999999834e-04,-3.799999999999999667e-04,-1.000000000000000048e-04,-1.000000000000000048e-04,-1.800000000000000113e-04,7.000000000000000000e+00,2.700000000000000000e+01
6.917100000000000000e+04,-5.000000000000000240e-05,-2.000000000000000164e-05,-6.999999999999999387e-05,-1.899999999999999834e-04,-3.799999999999999667e-04,-1.000000000000000048e-04,-1.000000000000000048e-04,-1.800000000000000113e-04,7.000000000000000000e+00,2.700000000000000000e+01
6.917200000000000000e+04,-5.000000000000000240e-05,-2.000000000000000164e-05,-6.999999999999999387e-05,-1.899999999999999834e-04,-3.799999999999999667e-04,-1.000000000000000048e-04,-1.000000000000000048e-04,-1.800000000000000113e-04,7.000000000000000000e+00,2.700000000000000000e+01
6.917300000000000000e+04,-5.000000000000000240e-05,-2.000000000000000164e-05,-6.999999999999999387e-05,-1.899999999999999834e-04,-3.799999999999999667e-04,-1.000000000000000048e-04,-1.000000000000000048e-04,-1.800000000000000113e-04,7.000000000000000000e+00,2.700000000000000000e+01
6.917400000000000000e+04,-5.000000000000000240e-05,-2.000000000000000164e-05,-6.999999999999999387e-05,-1.899999999999999834e-04,-3.799999999999999667e-04,-1.000000000000000048e-04,-1.000000000000000048e-04,-1.800000000000000113e-04,7.000000000000000000e+00,2.700000000000000000e+01
6.917500000000000000e+04,-5.000000000000000240e-05,-2.000000000000000164e-05,-6.999999999999999387e-05,-1.899999999999999834e-04,-3.799999999999999667e-04,-1.000000000000000048e-04,-1.000000000000000048e-04,-1.800000000000000113e-04,7.000000000000000000e+00,2.700000000000000000e+01
6.917600000000000000e+04,-5.000000000000000240e-05,-2.000000000000000164e-05,-6.999999999999999387e-05,-1.899999999999999834e-04,-3.799999999999999667e-04,-1.000000000000000048e-04,-1.000000000000000048e-04,-1.800000000000000113e-04,7.000000000000000000e+00,2.700000000000000000e+01
6.917700000000000000e+04,-5.000000000000000240e-05,-2.000000000000000164e-05,-6.999999999999999387e-05,-1.899999999999999834e-04,-3.799999999999999667e-04,-1.000000000000000048e-04,-1.000000000000000048e-04,-1.800000000000000113e-04,7.000000000000000000e+00,2.700000000000000000e+01
6.917800000000000000e+04,-5.000000000000000240e-05,-2.000000000000000164e-05,-6.999999999999999387e-05,-1.899999999999999834e-04,-3.799999999999999667e-04,-1.000000000000000048e-04,-1.000000000000000048e-04,-1.800000000000000113e-04,7.000000000000000000e+00,2.700000000000000000e+01
6.917900000000000000e+04,-5.000000000000000240e-05,-2.000000000000000164e-05,-6.999999999999999387e-05,-1.899999999999999834e-04,-3.799999999999999667e-04,-1.000000000000000048e-04,-1.000000000000000048e-04,-1.800000000000000113e-04,7.000000000000000000e+00,2.700000000000000000e+01
6.918000000000000000e+04,-5.000000000000000240e-05,-2.000000000000000164e-05,-6.999999999999999387e-05,-1.899999999999999834e-04,-3.799999999999999667e-04,-1.000000000000000048e-04,-1.000000000000000048e-04,-1.800000000000000113e-04,7.000000000000000000e+00,2.700000000000000000e+01
6.918100000000000000e+04,2.000000000000000164e-05,0.000000000000000000e+00,-5.000000000000000240e-05,1.100000000000000039e-04,9.000000000000000567e-05,1.199999999999999895e-04,2.999999999999999737e-05,5.999999999999999474e-05,7.000000000000000000e+00,2.700000000000000000e+01
6.918200000000000000e+04,2.000000000000000164e-05,0.000000000000000000e+00,-5.000000000000000240e-05,1.100000000000000039e-04,9.000000000000000567e-05,1.199999999999999895e-04,2.999999999999999737e-05,5.999999999999999474e-05,7.000000000000000000e+00,2.700000000000000000e+01
6.918300000000000000e+04,2.000000000000000164e-05,0.000000000000000000e+00,-5.000000000000000240e-05,1.100000000000000039e-04,9.000000000000000567e-05,1.199999999999999895e-04,2.999999999999999737e-05,5.999999999999999474e-05,7.000000000000000000e+00,2.700000000000000000e+01
6.918400000000000000e+04,2.000000000000000164e-05,0.000000000000000000e+00,-5.000000000000000240e-05,1.100000000000000039e-04,9.000000000000000567e-05,1.199999999999999895e-04,2.999999999999999737e-05,5.999999999999999474e-05,7.000000000000000000e+00,2.700000000000000000e+01
6.918500000000000000e+04,2.000000000000000164e-05,0.000000000000000000e+00,-5.000000000000000240e-05,1.100000000000000039e-04,9.000000000000000567e-05,1.199999999999999895e-04,2.999999999999999737e-05,5.999999999999999474e-05,7.000000000000000000e+00,2.700000000000000000e+01
6.918600000000000000e+04,2.000000000000000164e-05,0.000000000000000000e+00,-5.000000000000000240e-05,1.100000000000000039e-04,9.000000000000000567e-05,1.199999999999999895e-04,2.999999999999999737e-05,5.999999999999999474e-05,7.000000000000000000e+00,2.700000000000000000e+01
6.918800000000000000e+04,2.000000000000000164e-05,0.000000000000000000e+00,-5.000000000000000240e-05,1.100000000000000039e-04,9.000000000000000567e-05,1.199999999999999895e-04,2.999999999999999737e-05,5.999999999999999474e-05,7.000000000000000000e+00,2.700000000000000000e+01
6.918900000000000000e+04,2.000000000000000164e-05,0.000000000000000000e+00,-5.000000000000000240e-05,1.100000000000000039e-04,9.000000000000000567e-05,1.199999999999999895e-04,2.999999999999999737e-05,5.999999999999999474e-05,7.000000000000000000e+00,2.700000000000000000e+01
6.919000000000000000e+04,2.000000000000000164e-05,0.000000000000000000e+00,-5.000000000000000240e-05,1.100000000000000039e-04,9.000000000000000567e-05,1.199999999999999895e-04,2.999999999999999737e-05,5.999999999999999474e-05,7.000000000000000000e+00,2.700000000000000000e+01
6.919100000000000000e+04,2.000000000000000164e-05,0.000000000000000000e+00,-5.000000000000000240e-05,1.100000000000000039e-04,9.000000000000000567e-05,1.199999999999999895e-04,2.999999999999999737e-05,5.999999999999999474e-05,7.000000000000000000e+00,2.700000000000000000e+01
6.919200000000000000e+04,2.000000000000000164e-05,0.000000000000000000e+00,-5.000000000000000240e-05,1.100000000000000039e-04,9.000000000000000567e-05,1.199999999999999895e-04,2.999999999999999737e-05,5.999999999999999474e-05,7.000000000000000000e+00,2.700000000000000000e+01
6.919300000000000000e+04,2.000000000000000164e-05,0.000000000000000000e+00,-5.000000000000000240e-05,1.100000000000000039e-04,9.000000000000000567e-05,1.199999999999999895e-04,2.999999999999999737e-05,5.999999999999999474e-05,7.000000000000000000e+00,2.700000000000000000e+01
6.919400000000000000e+04,2.000000000000000164e-05,0.000000000000000000e+00,-5.000000000000000240e-05,1.100000000000000039e-04,9.000000000000000567e-05,1.199999999999999895e-04,2.999999999999999737e-05,5.999999999999999474e-05,7.000000000000000000e+00,2.700000000000000000e+01
6.919500000000000000e+04,2.000000000000000164e-05,0.000000000000000000e+00,-5.000000000000000240e-05,1.100000000000000039e-04,9.000000000000000567e-05,1.199999999999999895e-04,2.999999999999999737e-05,5.999999999999999474e-05,7.000000000000000000e+00,2.700000000000000000e+01
6.919600000000000000e+04,2.000000000000000164e-05,0.000000000000000000e+00,-5.000000000000000240e-05,1.100000000000000039e-04,9.000000000000000567e-05,1.199999999999999895e-04,2.999999999999999737e-05,5.999999999999999474e-05,7.000000000000000000e+00,2.700000000000000000e+01
6.919700000000000000e+04,2.000000000000000164e-05,0.000000000000000000e+00,-5.000000000000000240e-05,1.100000000000000039e-04,9.000000000000000567e-05,1.199999999999999895e-04,2.999999999999999737e-05,5.999999999999999474e-05,7.000000000000000000e+00,2.700000000000000000e+01
6.919800000000000000e+04,2.000000000000000164e-05,0.000000000000000000e+00,-5.000000000000000240e-05,1.100000000000000039e-04,9.000000000000000567e-05,1.199999999999999895e-04,2.999999999999999737e-05,5.999999999999999474e-05,7.000000000000000000e+00,2.700000000000000000e+01
6.919900000000000000e+04,2.000000000000000164e-05,0.000000000000000000e+00,-5.000000000000000240e-05,1.100000000000000039e-04,9.000000000000000567e-05,1.199999999999999895e-04,2.999999999999999737e-05,5.999999999999999474e-05,7.000000000000000000e+00,2.700000000000000000e+01
6.920000000000000000e+04,2.000000000000000164e-05,0.000000000000000000e+00,-5.000000000000000240e-05,1.100000000000000039e-04,9.000000000000000567e-05,1.199999999999999895e-04,2.999999999999999737e-05,5.999999999999999474e-05,7.000000000000000000e+00,2.700000000000000000e+01
6.920100000000000000e+04,2.000000000000000164e-05,0.000000000000000000e+00,-5.000000000000000240e-05,1.100000000000000039e-04,9.000000000000000567e-05,1.199999999999999895e-04,2.999999999999999737e-05,5.999999999999999474e-05,7.000000000000000000e+00,2.700000000000000000e+01
6.920200000000000000e+04,4.000000000000000327e-05,2.999999999999999737e-05,5.000000000000000240e-05,8.000000000000000654e-05,-4.499999999999999877e-04,-2.000000000000000164e-05,-2.999999999999999737e-05,1.199999999999999895e-04,7.000000000000000000e+00,2.700000000000000000e+01
6.920300000000000000e+04,-2.000000000000000164e-05,-1.000000000000000082e-05,4.000000000000000327e-05,-5.000000000000000240e-05,1.000000000000000082e-05,0.000000000000000000e+00,-1.000000000000000048e-04,-2.700000000000000035e-04,7.000000000000000000e+00,2.700000000000000000e+01
6.920400000000000000e+04,-2.000000000000000164e-05,-1.000000000000000082e-05,4.000000000000000327e-05,-5.000000000000000240e-05,1.000000000000000082e-05,0.000000000000000000e+00,-1.000000000000000048e-04,-2.700000000000000035e-04,7.000000000000000000e+00,2.700000000000000000e+01
6.920500000000000000e+04,-2.000000000000000164e-05,-1.000000000000000082e-05,4.000000000000000327e-05,-5.000000000000000240e-05,1.000000000000000082e-05,0.000000000000000000e+00,-1.000000000000000048e-04,-2.700000000000000035e-04,7.000000000000000000e+00,2.700000000000000000e+01
6.920600000000000000e+04,-2.000000000000000164e-05,-1.000000000000000082e-05,4.000000000000000327e-05,-5.000000000000000240e-05,1.000000000000000082e-05,0.000000000000000000e+00,-1.000000000000000048e-04,-2.700000000000000035e-04,7.000000000000000000e+00,2.700000000000000000e+01
6.920700000000000000e+04,-2.000000000000000164e-05,-1.000000000000000082e-05,4.000000000000000327e-05,-5.000000000000000240e-05,1.000000000000000082e-05,0.000000000000000000e+00,-1.000000000000000048e-04,-2.700000000000000035e-04,7.000000000000000000e+00,2.700000000000000000e+01
6.920800000000000000e+04,-2.000000000000000164e-05,-1.000000000000000082e-05,4.000000000000000327e-05,-5.000000000000000240e-05,1.000000000000000082e-05,0.000000000000000000e+00,-1.000000000000000048e-04,-2.700000000000000035e-04,7.000000000000000000e+00,2.700000000000000000e+01
6.920900000000000000e+04,-2.000000000000000164e-05,-1.000000000000000082e-05,4.000000000000000327e-05,-5.000000000000000240e-05,1.000000000000000082e-05,0.000000000000000000e+00,-1.000000000000000048e-04,-2.700000000000000035e-04,7.000000000000000000e+00,2.700000000000000000e+01
6.921000000000000000e+04,-2.000000000000000164e-05,-1.000000000000000082e-05,4.000000000000000327e-05,-5.000000000000000240e-05,1.000000000000000082e-05,0.000000000000000000e+00,-1.000000000000000048e-04,-2.700000000000000035e-04,7.000000000000000000e+00,2.700000000000000000e+01
6.921100000000000000e+04,-2.000000000000000164e-05,-1.000000000000000082e-05,4.000000000000000327e-05,-5.000000000000000240e-05,1.000000000000000082e-05,0.000000000000000000e+00,-1.000000000000000048e-04,-2.700000000000000035e-04,7.000000000000000000e+00,2.700000000000000000e+01
6.921200000000000000e+04,-2.000000000000000164e-05,-1.000000000000000082e-05,4.000000000000000327e-05,-5.000000000000000240e-05,1.000000000000000082e-05,0.000000000000000000e+00,-1.000000000000000048e-04,-2.700000000000000035e-04,7.000000000000000000e+00,2.700000000000000000e+01
6.921300000000000000e+04,-2.000000000000000164e-05,-1.000000000000000082e-05,4.000000000000000327e-05,-5.000000000000000240e-05,1.000000000000000082e-05,0.000000000000000000e+00,-1.000000000000000048e-04,-2.700000000000000035e-04,7.000000000000000000e+00,2.700000000000000000e+01
6.921400000000000000e+04,-2.000000000000000164e-05,-1.000000000000000082e-05,4.000000000000000327e-05,-5.000000000000000240e-05,1.000000000000000082e-05,0.000000000000000000e+00,-1.000000000000000048e-04,-2.700000000000000035e-04,7.000000000000000000e+00,2.700000000000000000e+01
6.921500000000000000e+04,-2.000000000000000164e-05,-1.000000000000000082e-05,4.000000000000000327e-05,-5.000000000000000240e-05,1.000000000000000082e-05,0.000000000000000000e+00,-1.000000000000000048e-04,-2.700000000000000035e-04,7.000000000000000000e+00,2.700000000000000000e+01
6.921600000000000000e+04,-2.000000000000000164e-05,-4.000000000000000327e-05,1.000000000000000082e-05,1.600000000000000131e-04,1.199999999999999895e-04,6.999999999999999387e-05,2.999999999999999737e-05,2.500000000000000052e-04,7.000000000000000000e+00,2.700000000000000000e+01
6.921700000000000000e+04,-5.000000000000000240e-05,-4.000000000000000327e-05,-9.000000000000000567e-05,-1.300000000000000157e-04,-3.399999999999999702e-04,-8.000000000000000654e-05,-5.000000000000000240e-05,-6.999999999999999387e-05,7.000000000000000000e+00,2.700000000000000000e+01
6.921800000000000000e+04,-5.000000000000000240e-05,-4.000000000000000327e-05,-9.000000000000000567e-05,-1.300000000000000157e-04,-3.399999999999999702e-04,-8.000000000000000654e-05,-5.000000000000000240e-05,-6.999999999999999387e-05,7.000000000000000000e+00,2.700000000000000000e+01
6.921900000000000000e+04,-5.000000000000000240e-05,-4.000000000000000327e-05,-9.000000000000000567e-05,-1.300000000000000157e-04,-3.399999999999999702e-04,-8.000000000000000654e-05,-5.000000000000000240e-05,-6.999999999999999387e-05,7.000000000000000000e+00,2.700000000000000000e+01
6.922000000000000000e+04,-5.000000000000000240e-05,-4.000000000000000327e-05,-9.000000000000000567e-05,-1.300000000000000157e-04,-3.399999999999999702e-04,-8.000000000000000654e-05,-5.000000000000000240e-05,-6.999999999999999387e-05,7.000000000000000000e+00,2.700000000000000000e+01
6.922100000000000000e+04,-5.000000000000000240e-05,-4.000000000000000327e-05,-9.000000000000000567e-05,-1.300000000000000157e-04,-3.399999999999999702e-04,-8.000000000000000654e-05,-5.000000000000000240e-05,-6.999999999999999387e-05,7.000000000000000000e+00,2.700000000000000000e+01
6.922200000000000000e+04,-5.000000000000000240e-05,-4.000000000000000327e-05,-9.000000000000000567e-05,-1.300000000000000157e-04,-3.399999999999999702e-04,-8.000000000000000654e-05,-5.000000000000000240e-05,-6.999999999999999387e-05,7.000000000000000000e+00,2.700000000000000000e+01
6.922300000000000000e+04,-5.000000000000000240e-05,-4.000000000000000327e-05,-9.000000000000000567e-05,-1.300000000000000157e-04,-3.399999999999999702e-04,-8.000000000000000654e-05,-5.000000000000000240e-05,-6.999999999999999387e-05,7.000000000000000000e+00,2.700000000000000000e+01
6.922400000000000000e+04,-5.000000000000000240e-05,-4.000000000000000327e-05,-9.000000000000000567e-05,-1.300000000000000157e-04,-3.399999999999999702e-04,-8.000000000000000654e-05,-5.000000000000000240e-05,-6.999999999999999387e-05,7.000000000000000000e+00,2.700000000000000000e+01
6.922500000000000000e+04,-5.000000000000000240e-05,-4.000000000000000327e-05,-9.000000000000000567e-05,-1.300000000000000157e-04,-3.399999999999999702e-04,-8.000000000000000654e-05,-5.000000000000000240e-05,-6.999999999999999387e-05,7.000000000000000000e+00,2.700000000000000000e+01
6.922600000000000000e+04,-5.000000000000000240e-05,-4.000000000000000327e-05,-9.000000000000000567e-05,-1.300000000000000157e-04,-3.399999999999999702e-04,-8.000000000000000654e-05,-5.000000000000000240e-05,-6.999999999999999387e-05,7.000000000000000000e+00,2.700000000000000000e+01
6.922700000000000000e+04,-5.000000000000000240e-05,-4.000000000000000327e-05,-9.000000000000000567e-05,-1.300000000000000157e-04,-3.399999999999999702e-04,-8.000000000000000654e-05,-5.000000000000000240e-05,-6.999999999999999387e-05,7.000000000000000000e+00,2.700000000000000000e+01
6.922800000000000000e+04,-5.000000000000000240e-05,-4.000000000000000327e-05,-9.000000000000000567e-05,-1.300000000000000157e-04,-3.399999999999999702e-04,-8.000000000000000654e-05,-5.000000000000000240e-05,-6.999999999999999387e-05,7.000000000000000000e+00,2.700000000000000000e+01
6.922900000000000000e+04,-5.000000000000000240e-05,-4.000000000000000327e-05,-9.000000000000000567e-05,-1.300000000000000157e-04,-3.399999999999999702e-04,-8.000000000000000654e-05,-5.000000000000000240e-05,-6.999999999999999387e-05,7.000000000000000000e+00,2.700000000000000000e+01
6.923000000000000000e+04,-5.000000000000000240e-05,-4.000000000000000327e-05,-9.000000000000000567e-05,-1.300000000000000157e-04,-3.399999999999999702e-04,-8.000000000000000654e-05,-5.000000000000000240e-05,-6.999999999999999387e-05,7.000000000000000000e+00,2.700000000000000000e+01
6.923100000000000000e+04,-5.000000000000000240e-05,-4.000000000000000327e-05,-9.000000000000000567e-05,-1.300000000000000157e-04,-3.399999999999999702e-04,-8.000000000000000654e-05,-5.000000000000000240e-05,-6.999999999999999387e-05,7.000000000000000000e+00,2.700000000000000000e+01
6.923200000000000000e+04,-5.000000000000000240e-05,-4.000000000000000327e-05,-9.000000000000000567e-05,-1.300000000000000157e-04,-3.399999999999999702e-04,-8.000000000000000654e-05,-5.000000000000000240e-05,-6.999999999999999387e-05,7.000000000000000000e+00,2.700000000000000000e+01
6.923300000000000000e+04,-5.000000000000000240e-05,-4.000000000000000327e-05,-9.000000000000000567e-05,-1.300000000000000157e-04,-3.399999999999999702e-04,-8.000000000000000654e-05,-5.000000000000000240e-05,-6.999999999999999387e-05,7.000000000000000000e+00,2.700000000000000000e+01
6.923400000000000000e+04,-5.000000000000000240e-05,-4.000000000000000327e-05,-9.000000000000000567e-05,-1.300000000000000157e-04,-3.399999999999999702e-04,-8.000000000000000654e-05,-5.000000000000000240e-05,-6.999999999999999387e-05,7.000000000000000000e+00,2.700000000000000000e+01
6.923500000000000000e+04,-5.000000000000000240e-05,-4.000000000000000327e-05,-9.000000000000000567e-05,-1.300000000000000157e-04,-3.399999999999999702e-04,-8.000000000000000654e-05,-5.000000000000000240e-05,-6.999999999999999387e-05,7.000000000000000000e+00,2.700000000000000000e+01
6.923600000000000000e+04,-5.000000000000000240e-05,-4.000000000000000327e-05,-9.000000000000000567e-05,-1.300000000000000157e-04,-3.399999999999999702e-04,-8.000000000000000654e-05,-5.000000000000000240e-05,-6.999999999999999387e-05,7.000000000000000000e+00,2.700000000000000000e+01
6.923800000000000000e+04,-5.000000000000000240e-05,-4.000000000000000327e-05,-9.000000000000000567e-05,-1.300000000000000157e-04,-3.399999999999999702e-04,-8.000000000000000654e-05,-5.000000000000000240e-05,-6.999999999999999387e-05,7.000000000000000000e+00,2.700000000000000000e+01
6.923900000000000000e+04,0.000000000000000000e+00,8.000000000000000654e-05,9.000000000000000567e-05,-1.300000000000000157e-04,-4.000000000000000192e-04,2.000000000000000164e-05,5.999999999999999474e-05,1.000000000000000048e-04,7.000000000000000000e+00,2.700000000000000000e+01
6.924000000000000000e+04,-4.000000000000000327e-05,-5.000000000000000240e-05,-1.199999999999999895e-04,-9.000000000000000567e-05,-1.300000000000000157e-04,-1.100000000000000039e-04,2.999999999999999737e-05,-9.000000000000000567e-05,7.000000000000000000e+00,2.700000000000000000e+01
6.924100000000000000e+04,-4.000000000000000327e-05,-5.000000000000000240e-05,-1.199999999999999895e-04,-9.000000000000000567e-05,-1.300000000000000157e-04,-1.100000000000000039e-04,2.999999999999999737e-05,-9.000000000000000567e-05,7.000000000000000000e+00,2.700000000000000000e+01
6.924200000000000000e+04,-4.000000000000000327e-05,-5.000000000000000240e-05,-1.199999999999999895e-04,-9.000000000000000567e-05,-1.300000000000000157e-04,-1.100000000000000039e-04,2.999999999999999737e-05,-9.000000000000000567e-05,7.000000000000000000e+00,2.700000000000000000e+01
6.924300000000000000e+04,-4.000000000000000327e-05,-5.000000000000000240e-05,-1.199999999999999895e-04,-9.000000000000000567e-05,-1.300000000000000157e-04,-1.100000000000000039e-04,2.999999999999999737e-05,-9.000000000000000567e-05,7.000000000000000000e+00,2.700000000000000000e+01
6.924400000000000000e+04,-4.000000000000000327e-05,-5.000000000000000240e-05,-1.199999999999999895e-04,-9.000000000000000567e-05,-1.300000000000000157e-04,-1.100000000000000039e-04,2.999999999999999737e-05,-9.000000000000000567e-05,7.000000000000000000e+00,2.700000000000000000e+01
6.924500000000000000e+04,-4.000000000000000327e-05,-5.000000000000000240e-05,-1.199999999999999895e-04,-9.000000000000000567e-05,-1.300000000000000157e-04,-1.100000000000000039e-04,2.999999999999999737e-05,-9.000000000000000567e-05,7.000000000000000000e+00,2.700000000000000000e+01
6.924600000000000000e+04,-4.000000000000000327e-05,-5.000000000000000240e-05,-1.199999999999999895e-04,-9.000000000000000567e-05,-1.300000000000000157e-04,-1.100000000000000039e-04,2.999999999999999737e-05,-9.000000000000000567e-05,7.000000000000000000e+00,2.700000000000000000e+01
6.924700000000000000e+04,-4.000000000000000327e-05,-5.000000000000000240e-05,-1.199999999999999895e-04,-9.000000000000000567e-05,-1.300000000000000157e-04,-1.100000000000000039e-04,2.999999999999999737e-05,-9.000000000000000567e-05,7.000000000000000000e+00,2.700000000000000000e+01
6.924800000000000000e+04,-4.000000000000000327e-05,-5.000000000000000240e-05,-1.199999999999999895e-04,-9.000000000000000567e-05,-1.300000000000000157e-04,-1.100000000000000039e-04,2.999999999999999737e-05,-9.000000000000000567e-05,7.000000000000000000e+00,2.700000000000000000e+01
6.924900000000000000e+04,-4.000000000000000327e-05,-5.000000000000000240e-05,-1.199999999999999895e-04,-9.000000000000000567e-05,-1.300000000000000157e-04,-1.100000000000000039e-04,2.999999999999999737e-05,-9.000000000000000567e-05,7.000000000000000000e+00,2.700000000000000000e+01
6.925000000000000000e+04,-4.000000000000000327e-05,-5.000000000000000240e-05,-1.199999999999999895e-04,-9.000000000000000567e-05,-1.300000000000000157e-04,-1.100000000000000039e-04,2.999999999999999737e-05,-9.000000000000000567e-05,7.000000000000000000e+00,2.700000000000000000e+01
6.925100000000000000e+04,-4.000000000000000327e-05,-5.000000000000000240e-05,-1.199999999999999895e-04,-9.000000000000000567e-05,-1.300000000000000157e-04,-1.100000000000000039e-04,2.999999999999999737e-05,-9.000000000000000567e-05,7.000000000000000000e+00,2.700000000000000000e+01
6.925200000000000000e+04,-4.000000000000000327e-05,-5.000000000000000240e-05,-1.199999999999999895e-04,-9.000000000000000567e-05,-1.300000000000000157e-04,-1.100000000000000039e-04,2.999999999999999737e-05,-9.000000000000000567e-05,7.000000000000000000e+00,2.700000000000000000e+01
6.925300000000000000e+04,-4.000000000000000327e-05,-5.000000000000000240e-05,-1.199999999999999895e-04,-9.000000000000000567e-05,-1.300000000000000157e-04,-1.100000000000000039e-04,2.999999999999999737e-05,-9.000000000000000567e-05,7.000000000000000000e+00,2.700000000000000000e+01
6.925400000000000000e+04,-4.000000000000000327e-05,-5.000000000000000240e-05,-1.199999999999999895e-04,-9.000000000000000567e-05,-1.300000000000000157e-04,-1.100000000000000039e-04,2.999999999999999737e-05,-9.000000000000000567e-05,7.000000000000000000e+00,2.700000000000000000e+01
6.925500000000000000e+04,-4.000000000000000327e-05,-5.000000000000000240e-05,-1.199999999999999895e-04,-9.000000000000000567e-05,-1.300000000000000157e-04,-1.100000000000000039e-04,2.999999999999999737e-05,-9.000000000000000567e-05,7.000000000000000000e+00,2.700000000000000000e+01
6.925600000000000000e+04,-4.000000000000000327e-05,-5.000000000000000240e-05,-1.199999999999999895e-04,-9.000000000000000567e-05,-1.300000000000000157e-04,-1.100000000000000039e-04,2.999999999999999737e-05,-9.000000000000000567e-05,7.000000000000000000e+00,2.700000000000000000e+01
6.925700000000000000e+04,-4.000000000000000327e-05,-5.000000000000000240e-05,-1.199999999999999895e-04,-9.000000000000000567e-05,-1.300000000000000157e-04,-1.100000000000000039e-04,2.999999999999999737e-05,-9.000000000000000567e-05,7.000000000000000000e+00,2.700000000000000000e+01
6.925800000000000000e+04,-4.000000000000000327e-05,-5.000000000000000240e-05,-1.199999999999999895e-04,-9.000000000000000567e-05,-1.300000000000000157e-04,-1.100000000000000039e-04,2.999999999999999737e-05,-9.000000000000000567e-05,7.000000000000000000e+00,2.700000000000000000e+01
6.925900000000000000e+04,-4.000000000000000327e-05,-5.000000000000000240e-05,-1.199999999999999895e-04,-9.000000000000000567e-05,-1.300000000000000157e-04,-1.100000000000000039e-04,2.999999999999999737e-05,-9.000000000000000567e-05,7.000000000000000000e+00,2.700000000000000000e+01
6.926000000000000000e+04,-4.000000000000000327e-05,-5.000000000000000240e-05,-1.199999999999999895e-04,-9.000000000000000567e-05,-1.300000000000000157e-04,-1.100000000000000039e-04,2.999999999999999737e-05,-9.000000000000000567e-05,7.000000000000000000e+00,2.700000000000000000e+01
6.926100000000000000e+04,-4.000000000000000327e-05,-5.000000000000000240e-05,-1.199999999999999895e-04,-9.000000000000000567e-05,-1.300000000000000157e-04,-1.100000000000000039e-04,2.999999999999999737e-05,-9.000000000000000567e-05,7.000000000000000000e+00,2.700000000000000000e+01
