5.837400000000000000e+04,-6.999999999999999387e-05,-1.899999999999999834e-04,-3.099999999999999999e-04,-1.800000000000000113e-04,-1.300000000000000157e-04,-2.000000000000000096e-04,-1.800000000000000113e-04,-1.300000000000000157e-04,5.000000000000000000e+00,2.100000000000000000e+01
5.837500000000000000e+04,-6.999999999999999387e-05,-1.899999999999999834e-04,-3.099999999999999999e-04,-1.800000000000000113e-04,-1.300000000000000157e-04,-2.000000000000000096e-04,-1.800000000000000113e-04,-1.300000000000000157e-04,5.000000000000000000e+00,2.100000000000000000e+01
5.837600000000000000e+04,-6.999999999999999387e-05,-1.899999999999999834e-04,-3.099999999999999999e-04,-1.800000000000000113e-04,-1.300000000000000157e-04,-2.000000000000000096e-04,-1.800000000000000113e-04,-1.300000000000000157e-04,5.000000000000000000e+00,2.100000000000000000e+01
5.837700000000000000e+04,-6.999999999999999387e-05,-1.899999999999999834e-04,-3.099999999999999999e-04,-1.800000000000000113e-04,-1.300000000000000157e-04,-2.000000000000000096e-04,-1.800000000000000113e-04,-1.300000000000000157e-04,5.000000000000000000e+00,2.100000000000000000e+01
5.837800000000000000e+04,-6.999999999999999387e-05,-1.899999999999999834e-04,-3.099999999999999999e-04,-1.800000000000000113e-04,-1.300000000000000157e-04,-2.000000000000000096e-04,-1.800000000000000113e-04,-1.300000000000000157e-04,5.000000000000000000e+00,2.100000000000000000e+01
5.837900000000000000e+04,-2.000000000000000164e-05,-5.999999999999999474e-05,-2.000000000000000164e-05,-1.399999999999999877e-04,-3.600000000000000227e-04,-1.399999999999999877e-04,-4.000000000000000327e-05,-4.000000000000000327e-05,5.000000000000000000e+00,2.100000000000000000e+01
5.838000000000000000e+04,6.999999999999999387e-05,1.100000000000000039e-04,3.200000000000000262e-04,1.100000000000000039e-04,-1.300000000000000157e-04,-1.000000000000000082e-05,-2.999999999999999737e-05,0.000000000000000000e+00,5.000000000000000000e+00,2.100000000000000000e+01
5.838100000000000000e+04,6.999999999999999387e-05,1.100000000000000039e-04,3.200000000000000262e-04,1.100000000000000039e-04,-1.300000000000000157e-04,-1.000000000000000082e-05,-2.999999999999999737e-05,0.000000000000000000e+00,5.000000000000000000e+00,2.100000000000000000e+01
5.838200000000000000e+04,6.999999999999999387e-05,1.100000000000000039e-04,3.200000000000000262e-04,1.100000000000000039e-04,-1.300000000000000157e-04,-1.000000000000000082e-05,-2.999999999999999737e-05,0.000000000000000000e+00,5.000000000000000000e+00,2.100000000000000000e+01
5.838300000000000000e+04,6.999999999999999387e-05,1.100000000000000039e-04,3.200000000000000262e-04,1.100000000000000039e-04,-1.300000000000000157e-04,-1.000000000000000082e-05,-2.999999999999999737e-05,0.000000000000000000e+00,5.000000000000000000e+00,2.100000000000000000e+01
5.838400000000000000e+04,6.999999999999999387e-05,1.100000000000000039e-04,3.200000000000000262e-04,1.100000000000000039e-04,-1.300000000000000157e-04,-1.000000000000000082e-05,-2.999999999999999737e-05,0.000000000000000000e+00,5.000000000000000000e+00,2.100000000000000000e+01
5.838500000000000000e+04,6.999999999999999387e-05,1.100000000000000039e-04,3.200000000000000262e-04,1.100000000000000039e-04,-1.300000000000000157e-04,-1.000000000000000082e-05,-2.999999999999999737e-05,0.000000000000000000e+00,5.000000000000000000e+00,2.100000000000000000e+01
5.838600000000000000e+04,6.999999999999999387e-05,1.100000000000000039e-04,3.200000000000000262e-04,1.100000000000000039e-04,-1.300000000000000157e-04,-1.000000000000000082e-05,-2.999999999999999737e-05,0.000000000000000000e+00,5.000000000000000000e+00,2.100000000000000000e+01
5.838900000000000000e+04,6.999999999999999387e-05,1.100000000000000039e-04,3.200000000000000262e-04,1.100000000000000039e-04,-1.300000000000000157e-04,-1.000000000000000082e-05,-2.999999999999999737e-05,0.000000000000000000e+00,5.000000000000000000e+00,2.100000000000000000e+01
5.839000000000000000e+04,6.999999999999999387e-05,1.100000000000000039e-04,3.200000000000000262e-04,1.100000000000000039e-04,-1.300000000000000157e-04,-1.000000000000000082e-05,-2.999999999999999737e-05,0.000000000000000000e+00,5.000000000000000000e+00,2.100000000000000000e+01
5.839100000000000000e+04,6.999999999999999387e-05,1.100000000000000039e-04,3.200000000000000262e-04,1.100000000000000039e-04,-1.300000000000000157e-04,-1.000000000000000082e-05,-2.999999999999999737e-05,0.000000000000000000e+00,5.000000000000000000e+00,2.100000000000000000e+01
5.839200000000000000e+04,6.999999999999999387e-05,1.100000000000000039e-04,3.200000000000000262e-04,1.100000000000000039e-04,-1.300000000000000157e-04,-1.000000000000000082e-05,-2.999999999999999737e-05,0.000000000000000000e+00,5.000000000000000000e+00,2.100000000000000000e+01
5.839300000000000000e+04,6.999999999999999387e-05,1.100000000000000039e-04,3.200000000000000262e-04,1.100000000000000039e-04,-1.300000000000000157e-04,-1.000000000000000082e-05,-2.999999999999999737e-05,0.000000000000000000e+00,5.000000000000000000e+00,2.100000000000000000e+01
5.839400000000000000e+04,6.999999999999999387e-05,1.100000000000000039e-04,3.200000000000000262e-04,1.100000000000000039e-04,-1.300000000000000157e-04,-1.000000000000000082e-05,-2.999999999999999737e-05,0.000000000000000000e+00,5.000000000000000000e+00,2.100000000000000000e+01
5.839500000000000000e+04,6.999999999999999387e-05,1.100000000000000039e-04,3.200000000000000262e-04,1.100000000000000039e-04,-1.300000000000000157e-04,-1.000000000000000082e-05,-2.999999999999999737e-05,0.000000000000000000e+00,5.000000000000000000e+00,2.100000000000000000e+01
5.839600000000000000e+04,6.999999999999999387e-05,1.100000000000000039e-04,3.200000000000000262e-04,1.100000000000000039e-04,-1.300000000000000157e-04,-1.000000000000000082e-05,-2.999999999999999737e-05,0.000000000000000000e+00,5.000000000000000000e+00,2.100000000000000000e+01
5.839700000000000000e+04,6.999999999999999387e-05,1.100000000000000039e-04,3.200000000000000262e-04,1.100000000000000039e-04,-1.300000000000000157e-04,-1.000000000000000082e-05,-2.999999999999999737e-05,0.000000000000000000e+00,5.000000000000000000e+00,2.100000000000000000e+01
5.839800000000000000e+04,6.999999999999999387e-05,1.100000000000000039e-04,3.200000000000000262e-04,1.100000000000000039e-04,-1.300000000000000157e-04,-1.000000000000000082e-05,-2.999999999999999737e-05,0.000000000000000000e+00,5.000000000000000000e+00,2.100000000000000000e+01
5.839900000000000000e+04,6.999999999999999387e-05,1.100000000000000039e-04,3.200000000000000262e-04,1.100000000000000039e-04,-1.300000000000000157e-04,-1.000000000000000082e-05,-2.999999999999999737e-05,0.000000000000000000e+00,5.000000000000000000e+00,2.100000000000000000e+01
5.840000000000000000e+04,6.999999999999999387e-05,1.100000000000000039e-04,3.200000000000000262e-04,1.100000000000000039e-04,-1.300000000000000157e-04,-1.000000000000000082e-05,-2.999999999999999737e-05,0.000000000000000000e+00,5.000000000000000000e+00,2.100000000000000000e+01
5.840100000000000000e+04,-1.000000000000000082e-05,-5.000000000000000240e-05,-1.000000000000000048e-04,-2.000000000000000164e-05,-5.000000000000000240e-05,2.399999999999999790e-04,0.000000000000000000e+00,2.999999999999999737e-05,5.000000000000000000e+00,2.100000000000000000e+01
5.840200000000000000e+04,-1.300000000000000157e-04,-6.999999999999999387e-05,9.000000000000000567e-05,2.600000000000000314e-04,-1.199999999999999895e-04,-1.600000000000000131e-04,-1.000000000000000048e-04,-6.999999999999999387e-05,5.000000000000000000e+00,2.100000000000000000e+01
5.840300000000000000e+04,-1.300000000000000157e-04,-6.999999999999999387e-05,9.000000000000000567e-05,2.600000000000000314e-04,-1.199999999999999895e-04,-1.600000000000000131e-04,-1.000000000000000048e-04,-6.999999999999999387e-05,5.000000000000000000e+00,2.100000000000000000e+01
5.840400000000000000e+04,-1.300000000000000157e-04,-6.999999999999999387e-05,9.000000000000000567e-05,2.600000000000000314e-04,-1.199999999999999895e-04,-1.600000000000000131e-04,-1.000000000000000048e-04,-6.999999999999999387e-05,5.000000000000000000e+00,2.100000000000000000e+01
5.840500000000000000e+04,-1.300000000000000157e-04,-6.999999999999999387e-05,9.000000000000000567e-05,2.600000000000000314e-04,-1.199999999999999895e-04,-1.600000000000000131e-04,-1.000000000000000048e-04,-6.999999999999999387e-05,5.000000000000000000e+00,2.100000000000000000e+01
5.840600000000000000e+04,-1.300000000000000157e-04,-6.999999999999999387e-05,9.000000000000000567e-05,2.600000000000000314e-04,-1.199999999999999895e-04,-1.600000000000000131e-04,-1.000000000000000048e-04,-6.999999999999999387e-05,5.000000000000000000e+00,2.100000000000000000e+01
5.840700000000000000e+04,-1.300000000000000157e-04,-6.999999999999999387e-05,9.000000000000000567e-05,2.600000000000000314e-04,-1.199999999999999895e-04,-1.600000000000000131e-04,-1.000000000000000048e-04,-6.999999999999999387e-05,5.000000000000000000e+00,2.100000000000000000e+01
5.840800000000000000e+04,-1.300000000000000157e-04,-6.999999999999999387e-05,9.000000000000000567e-05,2.600000000000000314e-04,-1.199999999999999895e-04,-1.600000000000000131e-04,-1.000000000000000048e-04,-6.999999999999999387e-05,5.000000000000000000e+00,2.100000000000000000e+01
5.840900000000000000e+04,-1.300000000000000157e-04,-6.999999999999999387e-05,9.000000000000000567e-05,2.600000000000000314e-04,-1.199999999999999895e-04,-1.600000000000000131e-04,-1.000000000000000048e-04,-6.999999999999999387e-05,5.000000000000000000e+00,2.100000000000000000e+01
5.841100000000000000e+04,-1.300000000000000157e-04,-6.999999999999999387e-05,9.000000000000000567e-05,2.600000000000000314e-04,-1.199999999999999895e-04,-1.600000000000000131e-04,-1.000000000000000048e-04,-6.999999999999999387e-05,5.000000000000000000e+00,2.100000000000000000e+01
5.841200000000000000e+04,-1.300000000000000157e-04,-6.999999999999999387e-05,9.000000000000000567e-05,2.600000000000000314e-04,-1.199999999999999895e-04,-1.600000000000000131e-04,-1.000000000000000048e-04,-6.999999999999999387e-05,5.000000000000000000e+00,2.100000000000000000e+01
5.841300000000000000e+04,-1.300000000000000157e-04,-6.999999999999999387e-05,9.000000000000000567e-05,2.600000000000000314e-04,-1.199999999999999895e-04,-1.600000000000000131e-04,-1.000000000000000048e-04,-6.999999999999999387e-05,5.000000000000000000e+00,2.100000000000000000e+01
5.841400000000000000e+04,-1.300000000000000157e-04,-6.999999999999999387e-05,9.000000000000000567e-05,2.600000000000000314e-04,-1.199999999999999895e-04,-1.600000000000000131e-04,-1.000000000000000048e-04,-6.999999999999999387e-05,5.000000000000000000e+00,2.100000000000000000e+01
5.841500000000000000e+04,-1.300000000000000157e-04,-6.999999999999999387e-05,9.000000000000000567e-05,2.600000000000000314e-04,-1.199999999999999895e-04,-1.600000000000000131e-04,-1.000000000000000048e-04,-6.999999999999999387e-05,5.000000000000000000e+00,2.100000000000000000e+01
5.841600000000000000e+04,-1.300000000000000157e-04,-6.999999999999999387e-05,9.000000000000000567e-05,2.600000000000000314e-04,-1.199999999999999895e-04,-1.600000000000000131e-04,-1.000000000000000048e-04,-6.999999999999999387e-05,5.000000000000000000e+00,2.100000000000000000e+01
5.841700000000000000e+04,-1.300000000000000157e-04,-6.999999999999999387e-05,9.000000000000000567e-05,2.600000000000000314e-04,-1.199999999999999895e-04,-1.600000000000000131e-04,-1.000000000000000048e-04,-6.999999999999999387e-05,5.000000000000000000e+00,2.100000000000000000e+01
5.841900000000000000e+04,-1.300000000000000157e-04,-6.999999999999999387e-05,9.000000000000000567e-05,2.600000000000000314e-04,-1.199999999999999895e-04,-1.600000000000000131e-04,-1.000000000000000048e-04,-6.999999999999999387e-05,5.000000000000000000e+00,2.100000000000000000e+01
5.842000000000000000e+04,-1.300000000000000157e-04,-6.999999999999999387e-05,9.000000000000000567e-05,2.600000000000000314e-04,-1.199999999999999895e-04,-1.600000000000000131e-04,-1.000000000000000048e-04,-6.999999999999999387e-05,5.000000000000000000e+00,2.100000000000000000e+01
5.842100000000000000e+04,-1.300000000000000157e-04,-6.999999999999999387e-05,9.000000000000000567e-05,2.600000000000000314e-04,-1.199999999999999895e-04,-1.600000000000000131e-04,-1.000000000000000048e-04,-6.999999999999999387e-05,5.000000000000000000e+00,2.100000000000000000e+01
5.842200000000000000e+04,-1.300000000000000157e-04,-6.999999999999999387e-05,9.000000000000000567e-05,2.600000000000000314e-04,-1.199999999999999895e-04,-1.600000000000000131e-04,-1.000000000000000048e-04,-6.999999999999999387e-05,5.000000000000000000e+00,2.100000000000000000e+01
5.842300000000000000e+04,-1.300000000000000157e-04,-6.999999999999999387e-05,9.000000000000000567e-05,2.600000000000000314e-04,-1.199999999999999895e-04,-1.600000000000000131e-04,-1.000000000000000048e-04,-6.999999999999999387e-05,5.000000000000000000e+00,2.100000000000000000e+01
5.842400000000000000e+04,-2.999999999999999737e-05,-1.100000000000000039e-04,-1.600000000000000131e-04,-3.799999999999999667e-04,-1.000000000000000082e-05,-9.000000000000000567e-05,-1.100000000000000039e-04,-5.999999999999999474e-05,5.000000000000000000e+00,2.100000000000000000e+01
5.842500000000000000e+04,-2.999999999999999737e-05,-1.100000000000000039e-04,-1.600000000000000131e-04,-3.799999999999999667e-04,-1.000000000000000082e-05,-9.000000000000000567e-05,-1.100000000000000039e-04,-5.999999999999999474e-05,5.000000000000000000e+00,2.100000000000000000e+01
5.842600000000000000e+04,2.999999999999999737e-05,-1.000000000000000082e-05,-4.000000000000000327e-05,-6.999999999999999387e-05,0.000000000000000000e+00,-5.999999999999999474e-05,-2.000000000000000164e-05,-2.999999999999999737e-05,5.000000000000000000e+00,2.100000000000000000e+01
5.842700000000000000e+04,2.999999999999999737e-05,-1.000000000000000082e-05,-4.000000000000000327e-05,-6.999999999999999387e-05,0.000000000000000000e+00,-5.999999999999999474e-05,-2.000000000000000164e-05,-2.999999999999999737e-05,5.000000000000000000e+00,2.100000000000000000e+01
5.842800000000000000e+04,2.999999999999999737e-05,-1.000000000000000082e-05,-4.000000000000000327e-05,-6.999999999999999387e-05,0.000000000000000000e+00,-5.999999999999999474e-05,-2.000000000000000164e-05,-2.999999999999999737e-05,5.000000000000000000e+00,2.100000000000000000e+01
5.842900000000000000e+04,2.999999999999999737e-05,-1.000000000000000082e-05,-4.000000000000000327e-05,-6.999999999999999387e-05,0.000000000000000000e+00,-5.999999999999999474e-05,-2.000000000000000164e-05,-2.999999999999999737e-05,5.000000000000000000e+00,2.100000000000000000e+01
5.843000000000000000e+04,2.999999999999999737e-05,-1.000000000000000082e-05,-4.000000000000000327e-05,-6.999999999999999387e-05,0.000000000000000000e+00,-5.999999999999999474e-05,-2.000000000000000164e-05,-2.999999999999999737e-05,5.000000000000000000e+00,2.100000000000000000e+01
5.843100000000000000e+04,2.999999999999999737e-05,-1.000000000000000082e-05,-4.000000000000000327e-05,-6.999999999999999387e-05,0.000000000000000000e+00,-5.999999999999999474e-05,-2.000000000000000164e-05,-2.999999999999999737e-05,5.000000000000000000e+00,2.100000000000000000e+01
5.843200000000000000e+04,2.999999999999999737e-05,-1.000000000000000082e-05,-4.000000000000000327e-05,-6.999999999999999387e-05,0.000000000000000000e+00,-5.999999999999999474e-05,-2.000000000000000164e-05,-2.999999999999999737e-05,5.000000000000000000e+00,2.100000000000000000e+01
5.843300000000000000e+04,2.999999999999999737e-05,-1.000000000000000082e-05,-4.000000000000000327e-05,-6.999999999999999387e-05,0.000000000000000000e+00,-5.999999999999999474e-05,-2.000000000000000164e-05,-2.999999999999999737e-05,5.000000000000000000e+00,2.100000000000000000e+01
5.843400000000000000e+04,2.999999999999999737e-05,-1.000000000000000082e-05,-4.000000000000000327e-05,-6.999999999999999387e-05,0.000000000000000000e+00,-5.999999999999999474e-05,-2.000000000000000164e-05,-2.999999999999999737e-05,5.000000000000000000e+00,2.100000000000000000e+01
5.843500000000000000e+04,2.999999999999999737e-05,-1.000000000000000082e-05,-4.000000000000000327e-05,-6.999999999999999387e-05,0.000000000000000000e+00,-5.999999999999999474e-05,-2.000000000000000164e-05,-2.999999999999999737e-05,5.000000000000000000e+00,2.100000000000000000e+01
5.843600000000000000e+04,2.999999999999999737e-05,-1.000000000000000082e-05,-4.000000000000000327e-05,-6.999999999999999387e-05,0.000000000000000000e+00,-5.999999999999999474e-05,-2.000000000000000164e-05,-2.999999999999999737e-05,5.000000000000000000e+00,2.100000000000000000e+01
5.843900000000000000e+04,-5.000000000000000240e-05,-1.800000000000000113e-04,-2.600000000000000314e-04,-4.499999999999999877e-04,2.000000000000000164e-05,9.000000000000000567e-05,1.000000000000000082e-05,-4.000000000000000327e-05,5.000000000000000000e+00,2.100000000000000000e+01
5.844000000000000000e+04,1.000000000000000082e-05,-1.000000000000000082e-05,1.000000000000000048e-04,8.000000000000000654e-05,2.000000000000000096e-04,-2.399999999999999790e-04,-8.000000000000000654e-05,-2.000000000000000164e-05,5.000000000000000000e+00,2.100000000000000000e+01
5.844100000000000000e+04,1.000000000000000082e-05,-1.000000000000000082e-05,1.000000000000000048e-04,8.000000000000000654e-05,2.000000000000000096e-04,-2.399999999999999790e-04,-8.000000000000000654e-05,-2.000000000000000164e-05,5.000000000000000000e+00,2.100000000000000000e+01
5.844200000000000000e+04,1.000000000000000082e-05,-1.000000000000000082e-05,1.000000000000000048e-04,8.000000000000000654e-05,2.000000000000000096e-04,-2.399999999999999790e-04,-8.000000000000000654e-05,-2.000000000000000164e-05,5.000000000000000000e+00,2.100000000000000000e+01
5.844300000000000000e+04,1.000000000000000082e-05,-1.000000000000000082e-05,1.000000000000000048e-04,8.000000000000000654e-05,2.000000000000000096e-04,-2.399999999999999790e-04,-8.000000000000000654e-05,-2.000000000000000164e-05,5.000000000000000000e+00,2.100000000000000000e+01
5.844400000000000000e+04,1.000000000000000082e-05,-1.000000000000000082e-05,1.000000000000000048e-04,8.000000000000000654e-05,2.000000000000000096e-04,-2.399999999999999790e-04,-8.000000000000000654e-05,-2.000000000000000164e-05,5.000000000000000000e+00,2.100000000000000000e+01
5.844500000000000000e+04,1.000000000000000082e-05,-1.000000000000000082e-05,1.000000000000000048e-04,8.000000000000000654e-05,2.000000000000000096e-04,-2.399999999999999790e-04,-8.000000000000000654e-05,-2.000000000000000164e-05,5.000000000000000000e+00,2.100000000000000000e+01
5.844600000000000000e+04,1.000000000000000082e-05,-1.000000000000000082e-05,1.000000000000000048e-04,8.000000000000000654e-05,2.000000000000000096e-04,-2.399999999999999790e-04,-8.000000000000000654e-05,-2.000000000000000164e-05,5.000000000000000000e+00,2.100000000000000000e+01
5.844700000000000000e+04,1.000000000000000082e-05,-1.000000000000000082e-05,1.000000000000000048e-04,8.000000000000000654e-05,2.000000000000000096e-04,-2.399999999999999790e-04,-8.000000000000000654e-05,-2.000000000000000164e-05,5.000000000000000000e+00,2.100000000000000000e+01
5.844800000000000000e+04,1.000000000000000082e-05,-1.000000000000000082e-05,1.000000000000000048e-04,8.000000000000000654e-05,2.000000000000000096e-04,-2.399999999999999790e-04,-8.000000000000000654e-05,-2.000000000000000164e-05,5.000000000000000000e+00,2.100000000000000000e+01
5.844900000000000000e+04,1.000000000000000082e-05,-1.000000000000000082e-05,1.000000000000000048e-04,8.000000000000000654e-05,2.000000000000000096e-04,-2.399999999999999790e-04,-8.000000000000000654e-05,-2.000000000000000164e-05,5.000000000000000000e+00,2.100000000000000000e+01
5.845000000000000000e+04,1.000000000000000082e-05,-1.000000000000000082e-05,1.000000000000000048e-04,8.000000000000000654e-05,2.000000000000000096e-04,-2.399999999999999790e-04,-8.000000000000000654e-05,-2.000000000000000164e-05,5.000000000000000000e+00,2.100000000000000000e+01
5.845100000000000000e+04,1.000000000000000082e-05,-1.000000000000000082e-05,1.000000000000000048e-04,8.000000000000000654e-05,2.000000000000000096e-04,-2.399999999999999790e-04,-8.000000000000000654e-05,-2.000000000000000164e-05,5.000000000000000000e+00,2.100000000000000000e+01
5.845200000000000000e+04,1.000000000000000082e-05,-1.000000000000000082e-05,1.000000000000000048e-04,8.000000000000000654e-05,2.000000000000000096e-04,-2.399999999999999790e-04,-8.000000000000000654e-05,-2.000000000000000164e-05,5.000000000000000000e+00,2.100000000000000000e+01
5.845300000000000000e+04,1.000000000000000082e-05,-1.000000000000000082e-05,1.000000000000000048e-04,8.000000000000000654e-05,2.000000000000000096e-04,-2.399999999999999790e-04,-8.000000000000000654e-05,-2.000000000000000164e-05,5.000000000000000000e+00,2.100000000000000000e+01
5.845400000000000000e+04,1.000000000000000082e-05,-1.000000000000000082e-05,1.000000000000000048e-04,8.000000000000000654e-05,2.000000000000000096e-04,-2.399999999999999790e-04,-8.000000000000000654e-05,-2.000000000000000164e-05,5.000000000000000000e+00,2.100000000000000000e+01
5.845500000000000000e+04,1.000000000000000082e-05,-1.000000000000000082e-05,1.000000000000000048e-04,8.000000000000000654e-05,2.000000000000000096e-04,-2.399999999999999790e-04,-8.000000000000000654e-05,-2.000000000000000164e-05,5.000000000000000000e+00,2.100000000000000000e+01
5.845600000000000000e+04,1.000000000000000082e-05,-1.000000000000000082e-05,1.000000000000000048e-04,8.000000000000000654e-05,2.000000000000000096e-04,-2.399999999999999790e-04,-8.000000000000000654e-05,-2.000000000000000164e-05,5.000000000000000000e+00,2.100000000000000000e+01
5.845700000000000000e+04,1.000000000000000082e-05,-1.000000000000000082e-05,1.000000000000000048e-04,8.000000000000000654e-05,2.000000000000000096e-04,-2.399999999999999790e-04,-8.000000000000000654e-05,-2.000000000000000164e-05,5.000000000000000000e+00,2.100000000000000000e+01
5.845800000000000000e+04,1.000000000000000082e-05,-1.000000000000000082e-05,1.000000000000000048e-04,8.000000000000000654e-05,2.000000000000000096e-04,-2.399999999999999790e-04,-8.000000000000000654e-05,-2.000000000000000164e-05,5.000000000000000000e+00,2.100000000000000000e+01
5.845900000000000000e+04,1.000000000000000082e-05,-1.000000000000000082e-05,1.000000000000000048e-04,8.000000000000000654e-05,2.000000000000000096e-04,-2.399999999999999790e-04,-8.000000000000000654e-05,-2.000000000000000164e-05,5.000000000000000000e+00,2.100000000000000000e+01
5.846000000000000000e+04,1.000000000000000082e-05,-1.000000000000000082e-05,1.000000000000000048e-04,8.000000000000000654e-05,2.000000000000000096e-04,-2.399999999999999790e-04,-8.000000000000000654e-05,-2.000000000000000164e-05,5.000000000000000000e+00,2.100000000000000000e+01
5.846100000000000000e+04,-1.000000000000000082e-05,-8.000000000000000654e-05,-1.899999999999999834e-04,2.299999999999999799e-04,4.599999999999999597e-04,2.799999999999999755e-04,2.299999999999999799e-04,6.999999999999999387e-05,5.000000000000000000e+00,2.100000000000000000e+01
5.846200000000000000e+04,8.000000000000000654e-05,1.800000000000000113e-04,3.399999999999999702e-04,6.499999999999999702e-04,5.800000000000000034e-04,3.099999999999999999e-04,1.000000000000000048e-04,8.000000000000000654e-05,5.000000000000000000e+00,2.100000000000000000e+01
5.846300000000000000e+04,8.000000000000000654e-05,1.800000000000000113e-04,3.399999999999999702e-04,6.499999999999999702e-04,5.800000000000000034e-04,3.099999999999999999e-04,1.000000000000000048e-04,8.000000000000000654e-05,5.000000000000000000e+00,2.100000000000000000e+01
5.846400000000000000e+04,8.000000000000000654e-05,1.800000000000000113e-04,3.399999999999999702e-04,6.499999999999999702e-04,5.800000000000000034e-04,3.099999999999999999e-04,1.000000000000000048e-04,8.000000000000000654e-05,5.000000000000000000e+00,2.100000000000000000e+01
5.846500000000000000e+04,8.000000000000000654e-05,1.800000000000000113e-04,3.399999999999999702e-04,6.499999999999999702e-04,5.800000000000000034e-04,3.099999999999999999e-04,1.000000000000000048e-04,8.000000000000000654e-05,5.000000000000000000e+00,2.100000000000000000e+01
5.846600000000000000e+04,8.000000000000000654e-05,1.800000000000000113e-04,3.399999999999999702e-04,6.499999999999999702e-04,5.800000000000000034e-04,3.099999999999999999e-04,1.000000000000000048e-04,8.000000000000000654e-05,5.000000000000000000e+00,2.100000000000000000e+01
5.846700000000000000e+04,8.000000000000000654e-05,1.800000000000000113e-04,3.399999999999999702e-04,6.499999999999999702e-04,5.800000000000000034e-04,3.099999999999999999e-04,1.000000000000000048e-04,8.000000000000000654e-05,5.000000000000000000e+00,2.100000000000000000e+01
5.846800000000000000e+04,8.000000000000000654e-05,1.800000000000000113e-04,3.399999999999999702e-04,6.499999999999999702e-04,5.800000000000000034e-04,3.099999999999999999e-04,1.000000000000000048e-04,8.000000000000000654e-05,5.000000000000000000e+00,2.100000000000000000e+01
5.846900000000000000e+04,8.000000000000000654e-05,1.800000000000000113e-04,3.399999999999999702e-04,6.499999999999999702e-04,5.800000000000000034e-04,3.099999999999999999e-04,1.000000000000000048e-04,8.000000000000000654e-05,5.000000000000000000e+00,2.100000000000000000e+01
5.847000000000000000e+04,8.000000000000000654e-05,1.800000000000000113e-04,3.399999999999999702e-04,6.499999999999999702e-04,5.800000000000000034e-04,3.099999999999999999e-04,1.000000000000000048e-04,8.000000000000000654e-05,5.000000000000000000e+00,2.100000000000000000e+01
5.847100000000000000e+04,8.000000000000000654e-05,1.800000000000000113e-04,3.399999999999999702e-04,6.499999999999999702e-04,5.800000000000000034e-04,3.099999999999999999e-04,1.000000000000000048e-04,8.000000000000000654e-05,5.000000000000000000e+00,2.100000000000000000e+01
5.847200000000000000e+04,8.000000000000000654e-05,1.800000000000000113e-04,3.399999999999999702e-04,6.499999999999999702e-04,5.800000000000000034e-04,3.099999999999999999e-04,1.000000000000000048e-04,8.000000000000000654e-05,5.000000000000000000e+00,2.100000000000000000e+01
5.847300000000000000e+04,8.000000000000000654e-05,1.800000000000000113e-04,3.399999999999999702e-04,6.499999999999999702e-04,5.800000000000000034e-04,3.099999999999999999e-04,1.000000000000000048e-04,8.000000000000000654e-05,5.000000000000000000e+00,2.100000000000000000e+01
5.847400000000000000e+04,8.000000000000000654e-05,1.800000000000000113e-04,3.399999999999999702e-04,6.499999999999999702e-04,5.800000000000000034e-04,3.099999999999999999e-04,1.000000000000000048e-04,8.000000000000000654e-05,5.000000000000000000e+00,2.100000000000000000e+01
5.847500000000000000e+04,8.000000000000000654e-05,1.800000000000000113e-04,3.399999999999999702e-04,6.499999999999999702e-04,5.800000000000000034e-04,3.099999999999999999e-04,1.000000000000000048e-04,8.000000000000000654e-05,5.000000000000000000e+00,2.100000000000000000e+01
5.847600000000000000e+04,8.000000000000000654e-05,1.800000000000000113e-04,3.399999999999999702e-04,6.499999999999999702e-04,5.800000000000000034e-04,3.099999999999999999e-04,1.000000000000000048e-04,8.000000000000000654e-05,5.000000000000000000e+00,2.100000000000000000e+01
5.847800000000000000e+04,8.000000000000000654e-05,1.800000000000000113e-04,3.399999999999999702e-04,6.499999999999999702e-04,5.800000000000000034e-04,3.099999999999999999e-04,1.000000000000000048e-04,8.000000000000000654e-05,5.000000000000000000e+00,2.100000000000000000e+01
5.847900000000000000e+04,8.000000000000000654e-05,1.800000000000000113e-04,3.399999999999999702e-04,6.499999999999999702e-04,5.800000000000000034e-04,3.099999999999999999e-04,1.000000000000000048e-04,8.000000000000000654e-05,5.000000000000000000e+00,2.100000000000000000e+01
5.848000000000000000e+04,8.000000000000000654e-05,1.800000000000000113e-04,3.399999999999999702e-04,6.499999999999999702e-04,5.800000000000000034e-04,3.099999999999999999e-04,1.000000000000000048e-04,8.000000000000000654e-05,5.000000000000000000e+00,2.100000000000000000e+01
5.848100000000000000e+04,8.000000000000000654e-05,1.800000000000000113e-04,3.399999999999999702e-04,6.499999999999999702e-04,5.800000000000000034e-04,3.099999999999999999e-04,1.000000000000000048e-04,8.000000000000000654e-05,5.000000000000000000e+00,2.100000000000000000e+01
5.848200000000000000e+04,8.000000000000000654e-05,1.800000000000000113e-04,3.399999999999999702e-04,6.499999999999999702e-04,5.800000000000000034e-04,3.099999999999999999e-04,1.000000000000000048e-04,8.000000000000000654e-05,5.000000000000000000e+00,2.100000000000000000e+01
5.848300000000000000e+04,8.000000000000000654e-05,1.800000000000000113e-04,3.399999999999999702e-04,6.499999999999999702e-04,5.800000000000000034e-04,3.099999999999999999e-04,1.000000000000000048e-04,8.000000000000000654e-05,5.000000000000000000e+00,2.100000000000000000e+01
5.848400000000000000e+04,5.000000000000000240e-05,1.699999999999999851e-04,2.900000000000000017e-04,4.299999999999999894e-04,-5.999999999999999474e-05,1.199999999999999895e-04,2.200000000000000078e-04,8.000000000000000654e-05,5.000000000000000000e+00,2.100000000000000000e+01
5.848500000000000000e+04,-1.000000000000000082e-05,5.000000000000000240e-05,1.000000000000000082e-05,1.199999999999999895e-04,-9.000000000000000567e-05,-1.000000000000000082e-05,1.000000000000000082e-05,-1.000000000000000082e-05,5.000000000000000000e+00,2.100000000000000000e+01
5.848600000000000000e+04,-1.000000000000000082e-05,5.000000000000000240e-05,1.000000000000000082e-05,1.199999999999999895e-04,-9.000000000000000567e-05,-1.000000000000000082e-05,1.000000000000000082e-05,-1.000000000000000082e-05,5.000000000000000000e+00,2.100000000000000000e+01
5.848900000000000000e+04,-1.000000000000000082e-05,5.000000000000000240e-05,1.000000000000000082e-05,1.199999999999999895e-04,-9.000000000000000567e-05,-1.000000000000000082e-05,1.000000000000000082e-05,-1.000000000000000082e-05,5.000000000000000000e+00,2.100000000000000000e+01
5.849000000000000000e+04,-1.000000000000000082e-05,5.000000000000000240e-05,1.000000000000000082e-05,1.199999999999999895e-04,-9.000000000000000567e-05,-1.000000000000000082e-05,1.000000000000000082e-05,-1.000000000000000082e-05,5.000000000000000000e+00,2.100000000000000000e+01
5.849100000000000000e+04,-1.000000000000000082e-05,5.000000000000000240e-05,1.000000000000000082e-05,1.199999999999999895e-04,-9.000000000000000567e-05,-1.000000000000000082e-05,1.000000000000000082e-05,-1.000000000000000082e-05,5.000000000000000000e+00,2.100000000000000000e+01
5.849200000000000000e+04,-1.000000000000000082e-05,5.000000000000000240e-05,1.000000000000000082e-05,1.199999999999999895e-04,-9.000000000000000567e-05,-1.000000000000000082e-05,1.000000000000000082e-05,-1.000000000000000082e-05,5.000000000000000000e+00,2.100000000000000000e+01
5.849300000000000000e+04,-1.000000000000000082e-05,5.000000000000000240e-05,1.000000000000000082e-05,1.199999999999999895e-04,-9.000000000000000567e-05,-1.000000000000000082e-05,1.000000000000000082e-05,-1.000000000000000082e-05,5.000000000000000000e+00,2.100000000000000000e+01
5.849400000000000000e+04,-1.000000000000000082e-05,5.000000000000000240e-05,1.000000000000000082e-05,1.199999999999999895e-04,-9.000000000000000567e-05,-1.000000000000000082e-05,1.000000000000000082e-05,-1.000000000000000082e-05,5.000000000000000000e+00,2.100000000000000000e+01
5.849500000000000000e+04,-1.000000000000000082e-05,5.000000000000000240e-05,1.000000000000000082e-05,1.199999999999999895e-04,-9.000000000000000567e-05,-1.000000000000000082e-05,1.000000000000000082e-05,-1.000000000000000082e-05,5.000000000000000000e+00,2.100000000000000000e+01
5.849600000000000000e+04,-1.000000000000000082e-05,5.000000000000000240e-05,1.000000000000000082e-05,1.199999999999999895e-04,-9.000000000000000567e-05,-1.000000000000000082e-05,1.000000000000000082e-05,-1.000000000000000082e-05,5.000000000000000000e+00,2.100000000000000000e+01
5.849700000000000000e+04,-1.000000000000000082e-05,5.000000000000000240e-05,1.000000000000000082e-05,1.199999999999999895e-04,-9.000000000000000567e-05,-1.000000000000000082e-05,1.000000000000000082e-05,-1.000000000000000082e-05,5.000000000000000000e+00,2.100000000000000000e+01
5.849800000000000000e+04,-1.000000000000000082e-05,5.000000000000000240e-05,1.000000000000000082e-05,1.199999999999999895e-04,-9.000000000000000567e-05,-1.000000000000000082e-05,1.000000000000000082e-05,-1.000000000000000082e-05,5.000000000000000000e+00,2.100000000000000000e+01
5.849900000000000000e+04,-2.999999999999999737e-05,-8.000000000000000654e-05,-2.299999999999999799e-04,-1.699999999999999851e-04,1.300000000000000157e-04,0.000000000000000000e+00,-2.000000000000000164e-05,-2.000000000000000164e-05,5.000000000000000000e+00,2.100000000000000000e+01
5.850000000000000000e+04,2.999999999999999737e-05,4.000000000000000327e-05,2.000000000000000096e-04,2.500000000000000052e-04,1.800000000000000113e-04,2.999999999999999737e-04,1.800000000000000113e-04,1.100000000000000039e-04,5.000000000000000000e+00,2.100000000000000000e+01
5.850100000000000000e+04,2.999999999999999737e-05,4.000000000000000327e-05,2.000000000000000096e-04,2.500000000000000052e-04,1.800000000000000113e-04,2.999999999999999737e-04,1.800000000000000113e-04,1.100000000000000039e-04,5.000000000000000000e+00,2.100000000000000000e+01
5.850200000000000000e+04,2.999999999999999737e-05,4.000000000000000327e-05,2.000000000000000096e-04,2.500000000000000052e-04,1.800000000000000113e-04,2.999999999999999737e-04,1.800000000000000113e-04,1.100000000000000039e-04,5.000000000000000000e+00,2.100000000000000000e+01
5.850300000000000000e+04,2.999999999999999737e-05,4.000000000000000327e-05,2.000000000000000096e-04,2.500000000000000052e-04,1.800000000000000113e-04,2.999999999999999737e-04,1.800000000000000113e-04,1.100000000000000039e-04,5.000000000000000000e+00,2.100000000000000000e+01
5.850400000000000000e+04,2.999999999999999737e-05,4.000000000000000327e-05,2.000000000000000096e-04,2.500000000000000052e-04,1.800000000000000113e-04,2.999999999999999737e-04,1.800000000000000113e-04,1.100000000000000039e-04,5.000000000000000000e+00,2.100000000000000000e+01
5.850500000000000000e+04,2.999999999999999737e-05,4.000000000000000327e-05,2.000000000000000096e-04,2.500000000000000052e-04,1.800000000000000113e-04,2.999999999999999737e-04,1.800000000000000113e-04,1.100000000000000039e-04,5.000000000000000000e+00,2.100000000000000000e+01
5.850600000000000000e+04,2.999999999999999737e-05,4.000000000000000327e-05,2.000000000000000096e-04,2.500000000000000052e-04,1.800000000000000113e-04,2.999999999999999737e-04,1.800000000000000113e-04,1.100000000000000039e-04,5.000000000000000000e+00,2.100000000000000000e+01
5.850700000000000000e+04,2.999999999999999737e-05,4.000000000000000327e-05,2.000000000000000096e-04,2.500000000000000052e-04,1.800000000000000113e-04,2.999999999999999737e-04,1.800000000000000113e-04,1.100000000000000039e-04,5.000000000000000000e+00,2.100000000000000000e+01
5.850800000000000000e+04,2.999999999999999737e-05,4.000000000000000327e-05,2.000000000000000096e-04,2.500000000000000052e-04,1.800000000000000113e-04,2.999999999999999737e-04,1.800000000000000113e-04,1.100000000000000039e-04,5.000000000000000000e+00,2.100000000000000000e+01
5.850900000000000000e+04,2.999999999999999737e-05,4.000000000000000327e-05,2.000000000000000096e-04,2.500000000000000052e-04,1.800000000000000113e-04,2.999999999999999737e-04,1.800000000000000113e-04,1.100000000000000039e-04,5.000000000000000000e+00,2.100000000000000000e+01
5.851000000000000000e+04,2.999999999999999737e-05,4.000000000000000327e-05,2.000000000000000096e-04,2.500000000000000052e-04,1.800000000000000113e-04,2.999999999999999737e-04,1.800000000000000113e-04,1.100000000000000039e-04,5.000000000000000000e+00,2.100000000000000000e+01
5.851100000000000000e+04,2.999999999999999737e-05,4.000000000000000327e-05,2.000000000000000096e-04,2.500000000000000052e-04,1.800000000000000113e-04,2.999999999999999737e-04,1.800000000000000113e-04,1.100000000000000039e-04,5.000000000000000000e+00,2.100000000000000000e+01
5.851200000000000000e+04,2.999999999999999737e-05,4.000000000000000327e-05,2.000000000000000096e-04,2.500000000000000052e-04,1.800000000000000113e-04,2.999999999999999737e-04,1.800000000000000113e-04,1.100000000000000039e-04,5.000000000000000000e+00,2.100000000000000000e+01
5.851300000000000000e+04,2.999999999999999737e-05,4.000000000000000327e-05,2.000000000000000096e-04,2.500000000000000052e-04,1.800000000000000113e-04,2.999999999999999737e-04,1.800000000000000113e-04,1.100000000000000039e-04,5.000000000000000000e+00,2.100000000000000000e+01
5.851400000000000000e+04,2.999999999999999737e-05,4.000000000000000327e-05,2.000000000000000096e-04,2.500000000000000052e-04,1.800000000000000113e-04,2.999999999999999737e-04,1.800000000000000113e-04,1.100000000000000039e-04,5.000000000000000000e+00,2.100000000000000000e+01
5.851500000000000000e+04,2.999999999999999737e-05,4.000000000000000327e-05,2.000000000000000096e-04,2.500000000000000052e-04,1.800000000000000113e-04,2.999999999999999737e-04,1.800000000000000113e-04,1.100000000000000039e-04,5.000000000000000000e+00,2.100000000000000000e+01
5.851600000000000000e+04,2.999999999999999737e-05,4.000000000000000327e-05,2.000000000000000096e-04,2.500000000000000052e-04,1.800000000000000113e-04,2.999999999999999737e-04,1.800000000000000113e-04,1.100000000000000039e-04,5.000000000000000000e+00,2.100000000000000000e+01
5.851700000000000000e+04,2.999999999999999737e-05,4.000000000000000327e-05,2.000000000000000096e-04,2.500000000000000052e-04,1.800000000000000113e-04,2.999999999999999737e-04,1.800000000000000113e-04,1.100000000000000039e-04,5.000000000000000000e+00,2.100000000000000000e+01
5.851800000000000000e+04,2.999999999999999737e-05,4.000000000000000327e-05,2.000000000000000096e-04,2.500000000000000052e-04,1.800000000000000113e-04,2.999999999999999737e-04,1.800000000000000113e-04,1.100000000000000039e-04,5.000000000000000000e+00,2.100000000000000000e+01
5.851900000000000000e+04,2.999999999999999737e-05,4.000000000000000327e-05,2.000000000000000096e-04,2.500000000000000052e-04,1.800000000000000113e-04,2.999999999999999737e-04,1.800000000000000113e-04,1.100000000000000039e-04,5.000000000000000000e+00,2.100000000000000000e+01
5.852000000000000000e+04,2.999999999999999737e-05,4.000000000000000327e-05,2.000000000000000096e-04,2.500000000000000052e-04,1.800000000000000113e-04,2.999999999999999737e-04,1.800000000000000113e-04,1.100000000000000039e-04,5.000000000000000000e+00,2.100000000000000000e+01
5.852100000000000000e+04,-8.000000000000000654e-05,-6.999999999999999387e-05,-6.999999999999999387e-05,-1.000000000000000048e-04,-3.399999999999999702e-04,-2.999999999999999737e-04,-1.600000000000000131e-04,-9.000000000000000567e-05,5.000000000000000000e+00,2.100000000000000000e+01
5.852200000000000000e+04,2.999999999999999737e-05,1.399999999999999877e-04,3.399999999999999702e-04,2.799999999999999755e-04,6.999999999999999387e-05,1.000000000000000048e-04,1.000000000000000048e-04,2.000000000000000164e-05,5.000000000000000000e+00,2.100000000000000000e+01
5.852300000000000000e+04,-2.999999999999999737e-05,-4.000000000000000327e-05,-1.699999999999999851e-04,-3.699999999999999947e-04,-5.599999999999999509e-04,-2.700000000000000035e-04,-5.000000000000000240e-05,-2.000000000000000164e-05,5.000000000000000000e+00,2.100000000000000000e+01
5.852400000000000000e+04,-2.999999999999999737e-05,-4.000000000000000327e-05,-1.699999999999999851e-04,-3.699999999999999947e-04,-5.599999999999999509e-04,-2.700000000000000035e-04,-5.000000000000000240e-05,-2.000000000000000164e-05,5.000000000000000000e+00,2.100000000000000000e+01
5.852500000000000000e+04,-2.999999999999999737e-05,-4.000000000000000327e-05,-1.699999999999999851e-04,-3.699999999999999947e-04,-5.599999999999999509e-04,-2.700000000000000035e-04,-5.000000000000000240e-05,-2.000000000000000164e-05,5.000000000000000000e+00,2.100000000000000000e+01
5.852600000000000000e+04,-2.999999999999999737e-05,-4.000000000000000327e-05,-1.699999999999999851e-04,-3.699999999999999947e-04,-5.599999999999999509e-04,-2.700000000000000035e-04,-5.000000000000000240e-05,-2.000000000000000164e-05,5.000000000000000000e+00,2.100000000000000000e+01
5.852700000000000000e+04,-2.999999999999999737e-05,-4.000000000000000327e-05,-1.699999999999999851e-04,-3.699999999999999947e-04,-5.599999999999999509e-04,-2.700000000000000035e-04,-5.000000000000000240e-05,-2.000000000000000164e-05,5.000000000000000000e+00,2.100000000000000000e+01
5.852800000000000000e+04,-2.999999999999999737e-05,-4.000000000000000327e-05,-1.699999999999999851e-04,-3.699999999999999947e-04,-5.599999999999999509e-04,-2.700000000000000035e-04,-5.000000000000000240e-05,-2.000000000000000164e-05,5.000000000000000000e+00,2.100000000000000000e+01
5.852900000000000000e+04,-2.999999999999999737e-05,-4.000000000000000327e-05,-1.699999999999999851e-04,-3.699999999999999947e-04,-5.599999999999999509e-04,-2.700000000000000035e-04,-5.000000000000000240e-05,-2.000000000000000164e-05,5.000000000000000000e+00,2.100000000000000000e+01
5.853000000000000000e+04,-2.999999999999999737e-05,-4.000000000000000327e-05,-1.699999999999999851e-04,-3.699999999999999947e-04,-5.599999999999999509e-04,-2.700000000000000035e-04,-5.000000000000000240e-05,-2.000000000000000164e-05,5.000000000000000000e+00,2.100000000000000000e+01
5.853100000000000000e+04,-2.999999999999999737e-05,-4.000000000000000327e-05,-1.699999999999999851e-04,-3.699999999999999947e-04,-5.599999999999999509e-04,-2.700000000000000035e-04,-5.000000000000000240e-05,-2.000000000000000164e-05,5.000000000000000000e+00,2.100000000000000000e+01
5.853200000000000000e+04,-2.999999999999999737e-05,-4.000000000000000327e-05,-1.699999999999999851e-04,-3.699999999999999947e-04,-5.599999999999999509e-04,-2.700000000000000035e-04,-5.000000000000000240e-05,-2.000000000000000164e-05,5.000000000000000000e+00,2.100000000000000000e+01
5.853300000000000000e+04,-2.999999999999999737e-05,-4.000000000000000327e-05,-1.699999999999999851e-04,-3.699999999999999947e-04,-5.599999999999999509e-04,-2.700000000000000035e-04,-5.000000000000000240e-05,-2.000000000000000164e-05,5.000000000000000000e+00,2.100000000000000000e+01
5.853400000000000000e+04,-2.999999999999999737e-05,-4.000000000000000327e-05,-1.699999999999999851e-04,-3.699999999999999947e-04,-5.599999999999999509e-04,-2.700000000000000035e-04,-5.000000000000000240e-05,-2.000000000000000164e-05,5.000000000000000000e+00,2.100000000000000000e+01
5.853500000000000000e+04,-2.999999999999999737e-05,-4.000000000000000327e-05,-1.699999999999999851e-04,-3.699999999999999947e-04,-5.599999999999999509e-04,-2.700000000000000035e-04,-5.000000000000000240e-05,-2.000000000000000164e-05,5.000000000000000000e+00,2.100000000000000000e+01
5.853600000000000000e+04,-2.999999999999999737e-05,-4.000000000000000327e-05,-1.699999999999999851e-04,-3.699999999999999947e-04,-5.599999999999999509e-04,-2.700000000000000035e-04,-5.000000000000000240e-05,-2.000000000000000164e-05,5.000000000000000000e+00,2.100000000000000000e+01
5.853900000000000000e+04,-2.999999999999999737e-05,-4.000000000000000327e-05,-1.699999999999999851e-04,-3.699999999999999947e-04,-5.599999999999999509e-04,-2.700000000000000035e-04,-5.000000000000000240e-05,-2.000000000000000164e-05,5.000000000000000000e+00,2.100000000000000000e+01
5.854000000000000000e+04,-2.999999999999999737e-05,-4.000000000000000327e-05,-1.699999999999999851e-04,-3.699999999999999947e-04,-5.599999999999999509e-04,-2.700000000000000035e-04,-5.000000000000000240e-05,-2.000000000000000164e-05,5.000000000000000000e+00,2.100000000000000000e+01
5.854100000000000000e+04,-2.999999999999999737e-05,-4.000000000000000327e-05,-1.699999999999999851e-04,-3.699999999999999947e-04,-5.599999999999999509e-04,-2.700000000000000035e-04,-5.000000000000000240e-05,-2.000000000000000164e-05,5.000000000000000000e+00,2.100000000000000000e+01
5.854200000000000000e+04,-2.999999999999999737e-05,-4.000000000000000327e-05,-1.699999999999999851e-04,-3.699999999999999947e-04,-5.599999999999999509e-04,-2.700000000000000035e-04,-5.000000000000000240e-05,-2.000000000000000164e-05,5.000000000000000000e+00,2.100000000000000000e+01
5.854300000000000000e+04,-2.999999999999999737e-05,-4.000000000000000327e-05,-1.699999999999999851e-04,-3.699999999999999947e-04,-5.599999999999999509e-04,-2.700000000000000035e-04,-5.000000000000000240e-05,-2.000000000000000164e-05,5.000000000000000000e+00,2.100000000000000000e+01
5.854400000000000000e+04,-5.999999999999999474e-05,-1.300000000000000157e-04,-3.099999999999999999e-04,6.999999999999999387e-05,2.999999999999999737e-05,-9.000000000000000567e-05,-4.000000000000000327e-05,0.000000000000000000e+00,5.000000000000000000e+00,2.100000000000000000e+01
5.854500000000000000e+04,-5.999999999999999474e-05,-1.300000000000000157e-04,-3.099999999999999999e-04,6.999999999999999387e-05,2.999999999999999737e-05,-9.000000000000000567e-05,-4.000000000000000327e-05,0.000000000000000000e+00,5.000000000000000000e+00,2.100000000000000000e+01
5.854600000000000000e+04,0.000000000000000000e+00,2.999999999999999737e-05,0.000000000000000000e+00,-1.399999999999999877e-04,-2.900000000000000017e-04,1.000000000000000082e-05,0.000000000000000000e+00,-1.000000000000000082e-05,5.000000000000000000e+00,2.100000000000000000e+01
5.854700000000000000e+04,0.000000000000000000e+00,2.999999999999999737e-05,0.000000000000000000e+00,-1.399999999999999877e-04,-2.900000000000000017e-04,1.000000000000000082e-05,0.000000000000000000e+00,-1.000000000000000082e-05,5.000000000000000000e+00,2.100000000000000000e+01
5.854800000000000000e+04,0.000000000000000000e+00,2.999999999999999737e-05,0.000000000000000000e+00,-1.399999999999999877e-04,-2.900000000000000017e-04,1.000000000000000082e-05,0.000000000000000000e+00,-1.000000000000000082e-05,5.000000000000000000e+00,2.100000000000000000e+01
5.854900000000000000e+04,0.000000000000000000e+00,2.999999999999999737e-05,0.000000000000000000e+00,-1.399999999999999877e-04,-2.900000000000000017e-04,1.000000000000000082e-05,0.000000000000000000e+00,-1.000000000000000082e-05,5.000000000000000000e+00,2.100000000000000000e+01
5.855000000000000000e+04,0.000000000000000000e+00,2.999999999999999737e-05,0.000000000000000000e+00,-1.399999999999999877e-04,-2.900000000000000017e-04,1.000000000000000082e-05,0.000000000000000000e+00,-1.000000000000000082e-05,5.000000000000000000e+00,2.100000000000000000e+01
5.855100000000000000e+04,0.000000000000000000e+00,2.999999999999999737e-05,0.000000000000000000e+00,-1.399999999999999877e-04,-2.900000000000000017e-04,1.000000000000000082e-05,0.000000000000000000e+00,-1.000000000000000082e-05,5.000000000000000000e+00,2.100000000000000000e+01
5.855200000000000000e+04,0.000000000000000000e+00,2.999999999999999737e-05,0.000000000000000000e+00,-1.399999999999999877e-04,-2.900000000000000017e-04,1.000000000000000082e-05,0.000000000000000000e+00,-1.000000000000000082e-05,5.000000000000000000e+00,2.100000000000000000e+01
5.855300000000000000e+04,0.000000000000000000e+00,2.999999999999999737e-05,0.000000000000000000e+00,-1.399999999999999877e-04,-2.900000000000000017e-04,1.000000000000000082e-05,0.000000000000000000e+00,-1.000000000000000082e-05,5.000000000000000000e+00,2.100000000000000000e+01
5.855400000000000000e+04,0.000000000000000000e+00,2.999999999999999737e-05,0.000000000000000000e+00,-1.399999999999999877e-04,-2.900000000000000017e-04,1.000000000000000082e-05,0.000000000000000000e+00,-1.000000000000000082e-05,5.000000000000000000e+00,2.100000000000000000e+01
5.855500000000000000e+04,0.000000000000000000e+00,2.999999999999999737e-05,0.000000000000000000e+00,-1.399999999999999877e-04,-2.900000000000000017e-04,1.000000000000000082e-05,0.000000000000000000e+00,-1.000000000000000082e-05,5.000000000000000000e+00,2.100000000000000000e+01
5.855600000000000000e+04,0.000000000000000000e+00,2.999999999999999737e-05,0.000000000000000000e+00,-1.399999999999999877e-04,-2.900000000000000017e-04,1.000000000000000082e-05,0.000000000000000000e+00,-1.000000000000000082e-05,5.000000000000000000e+00,2.100000000000000000e+01
5.855700000000000000e+04,0.000000000000000000e+00,2.999999999999999737e-05,0.000000000000000000e+00,-1.399999999999999877e-04,-2.900000000000000017e-04,1.000000000000000082e-05,0.000000000000000000e+00,-1.000000000000000082e-05,5.000000000000000000e+00,2.100000000000000000e+01
5.855800000000000000e+04,2.000000000000000164e-05,5.000000000000000240e-05,1.399999999999999877e-04,1.000000000000000048e-04,1.499999999999999869e-04,-2.999999999999999737e-05,4.000000000000000327e-05,2.000000000000000164e-05,5.000000000000000000e+00,2.100000000000000000e+01
5.855900000000000000e+04,2.000000000000000164e-05,5.000000000000000240e-05,1.399999999999999877e-04,1.000000000000000048e-04,1.499999999999999869e-04,-2.999999999999999737e-05,4.000000000000000327e-05,2.000000000000000164e-05,5.000000000000000000e+00,2.100000000000000000e+01
5.856000000000000000e+04,2.000000000000000164e-05,5.000000000000000240e-05,1.399999999999999877e-04,1.000000000000000048e-04,1.499999999999999869e-04,-2.999999999999999737e-05,4.000000000000000327e-05,2.000000000000000164e-05,5.000000000000000000e+00,2.100000000000000000e+01
5.856100000000000000e+04,2.000000000000000164e-05,5.000000000000000240e-05,1.399999999999999877e-04,1.000000000000000048e-04,1.499999999999999869e-04,-2.999999999999999737e-05,4.000000000000000327e-05,2.000000000000000164e-05,5.000000000000000000e+00,2.100000000000000000e+01
5.856200000000000000e+04,2.000000000000000164e-05,5.000000000000000240e-05,1.399999999999999877e-04,1.000000000000000048e-04,1.499999999999999869e-04,-2.999999999999999737e-05,4.000000000000000327e-05,2.000000000000000164e-05,5.000000000000000000e+00,2.100000000000000000e+01
5.856300000000000000e+04,2.000000000000000164e-05,5.000000000000000240e-05,1.399999999999999877e-04,1.000000000000000048e-04,1.499999999999999869e-04,-2.999999999999999737e-05,4.000000000000000327e-05,2.000000000000000164e-05,5.000000000000000000e+00,2.100000000000000000e+01
5.856400000000000000e+04,2.000000000000000164e-05,5.000000000000000240e-05,1.399999999999999877e-04,1.000000000000000048e-04,1.499999999999999869e-04,-2.999999999999999737e-05,4.000000000000000327e-05,2.000000000000000164e-05,5.000000000000000000e+00,2.100000000000000000e+01
5.856500000000000000e+04,2.000000000000000164e-05,5.000000000000000240e-05,1.399999999999999877e-04,1.000000000000000048e-04,1.499999999999999869e-04,-2.999999999999999737e-05,4.000000000000000327e-05,2.000000000000000164e-05,5.000000000000000000e+00,2.100000000000000000e+01
5.856600000000000000e+04,2.000000000000000164e-05,5.000000000000000240e-05,1.399999999999999877e-04,1.000000000000000048e-04,1.499999999999999869e-04,-2.999999999999999737e-05,4.000000000000000327e-05,2.000000000000000164e-05,5.000000000000000000e+00,2.100000000000000000e+01
5.856700000000000000e+04,-5.999999999999999474e-05,-1.000000000000000048e-04,-1.399999999999999877e-04,3.799999999999999667e-04,2.600000000000000314e-04,1.699999999999999851e-04,2.000000000000000164e-05,-2.999999999999999737e-05,5.000000000000000000e+00,2.100000000000000000e+01
5.856800000000000000e+04,-5.999999999999999474e-05,-1.000000000000000048e-04,-1.399999999999999877e-04,3.799999999999999667e-04,2.600000000000000314e-04,1.699999999999999851e-04,2.000000000000000164e-05,-2.999999999999999737e-05,5.000000000000000000e+00,2.100000000000000000e+01
5.856900000000000000e+04,-5.999999999999999474e-05,-1.000000000000000048e-04,-1.399999999999999877e-04,3.799999999999999667e-04,2.600000000000000314e-04,1.699999999999999851e-04,2.000000000000000164e-05,-2.999999999999999737e-05,5.000000000000000000e+00,2.100000000000000000e+01
5.857000000000000000e+04,-5.999999999999999474e-05,-1.000000000000000048e-04,-1.399999999999999877e-04,3.799999999999999667e-04,2.600000000000000314e-04,1.699999999999999851e-04,2.000000000000000164e-05,-2.999999999999999737e-05,5.000000000000000000e+00,2.100000000000000000e+01
5.857100000000000000e+04,-5.999999999999999474e-05,-1.000000000000000048e-04,-1.399999999999999877e-04,3.799999999999999667e-04,2.600000000000000314e-04,1.699999999999999851e-04,2.000000000000000164e-05,-2.999999999999999737e-05,5.000000000000000000e+00,2.100000000000000000e+01
5.857200000000000000e+04,-5.999999999999999474e-05,-1.000000000000000048e-04,-1.399999999999999877e-04,3.799999999999999667e-04,2.600000000000000314e-04,1.699999999999999851e-04,2.000000000000000164e-05,-2.999999999999999737e-05,5.000000000000000000e+00,2.100000000000000000e+01
5.857300000000000000e+04,-5.999999999999999474e-05,-1.000000000000000048e-04,-1.399999999999999877e-04,3.799999999999999667e-04,2.600000000000000314e-04,1.699999999999999851e-04,2.000000000000000164e-05,-2.999999999999999737e-05,5.000000000000000000e+00,2.100000000000000000e+01
5.857400000000000000e+04,-5.999999999999999474e-05,-1.000000000000000048e-04,-1.399999999999999877e-04,3.799999999999999667e-04,2.600000000000000314e-04,1.699999999999999851e-04,2.000000000000000164e-05,-2.999999999999999737e-05,5.000000000000000000e+00,2.100000000000000000e+01
5.857500000000000000e+04,-5.999999999999999474e-05,-1.000000000000000048e-04,-1.399999999999999877e-04,3.799999999999999667e-04,2.600000000000000314e-04,1.699999999999999851e-04,2.000000000000000164e-05,-2.999999999999999737e-05,5.000000000000000000e+00,2.100000000000000000e+01
5.857600000000000000e+04,-5.999999999999999474e-05,-1.000000000000000048e-04,-1.399999999999999877e-04,3.799999999999999667e-04,2.600000000000000314e-04,1.699999999999999851e-04,2.000000000000000164e-05,-2.999999999999999737e-05,5.000000000000000000e+00,2.100000000000000000e+01
5.857700000000000000e+04,-5.999999999999999474e-05,-1.000000000000000048e-04,-1.399999999999999877e-04,3.799999999999999667e-04,2.600000000000000314e-04,1.699999999999999851e-04,2.000000000000000164e-05,-2.999999999999999737e-05,5.000000000000000000e+00,2.100000000000000000e+01
5.857800000000000000e+04,-5.999999999999999474e-05,-1.000000000000000048e-04,-1.399999999999999877e-04,3.799999999999999667e-04,2.600000000000000314e-04,1.699999999999999851e-04,2.000000000000000164e-05,-2.999999999999999737e-05,5.000000000000000000e+00,2.100000000000000000e+01
5.857900000000000000e+04,-5.999999999999999474e-05,-1.000000000000000048e-04,-1.399999999999999877e-04,3.799999999999999667e-04,2.600000000000000314e-04,1.699999999999999851e-04,2.000000000000000164e-05,-2.999999999999999737e-05,5.000000000000000000e+00,2.100000000000000000e+01
5.858000000000000000e+04,-5.999999999999999474e-05,-1.000000000000000048e-04,-1.399999999999999877e-04,3.799999999999999667e-04,2.600000000000000314e-04,1.699999999999999851e-04,2.000000000000000164e-05,-2.999999999999999737e-05,5.000000000000000000e+00,2.100000000000000000e+01
5.858100000000000000e+04,5.000000000000000240e-05,9.000000000000000567e-05,2.100000000000000087e-04,1.199999999999999895e-04,1.899999999999999834e-04,2.299999999999999799e-04,-4.000000000000000327e-05,-1.000000000000000082e-05,5.000000000000000000e+00,2.100000000000000000e+01
5.858200000000000000e+04,5.000000000000000240e-05,9.000000000000000567e-05,2.100000000000000087e-04,1.199999999999999895e-04,1.899999999999999834e-04,2.299999999999999799e-04,-4.000000000000000327e-05,-1.000000000000000082e-05,5.000000000000000000e+00,2.100000000000000000e+01
5.858300000000000000e+04,0.000000000000000000e+00,2.000000000000000164e-05,8.000000000000000654e-05,-2.100000000000000087e-04,-1.100000000000000039e-04,-1.199999999999999895e-04,-5.000000000000000240e-05,-2.999999999999999737e-05,5.000000000000000000e+00,2.100000000000000000e+01
5.858400000000000000e+04,0.000000000000000000e+00,2.000000000000000164e-05,8.000000000000000654e-05,-2.100000000000000087e-04,-1.100000000000000039e-04,-1.199999999999999895e-04,-5.000000000000000240e-05,-2.999999999999999737e-05,5.000000000000000000e+00,2.100000000000000000e+01
5.858500000000000000e+04,0.000000000000000000e+00,2.000000000000000164e-05,8.000000000000000654e-05,-2.100000000000000087e-04,-1.100000000000000039e-04,-1.199999999999999895e-04,-5.000000000000000240e-05,-2.999999999999999737e-05,5.000000000000000000e+00,2.100000000000000000e+01
5.858600000000000000e+04,0.000000000000000000e+00,2.000000000000000164e-05,8.000000000000000654e-05,-2.100000000000000087e-04,-1.100000000000000039e-04,-1.199999999999999895e-04,-5.000000000000000240e-05,-2.999999999999999737e-05,5.000000000000000000e+00,2.100000000000000000e+01
5.858800000000000000e+04,0.000000000000000000e+00,2.000000000000000164e-05,8.000000000000000654e-05,-2.100000000000000087e-04,-1.100000000000000039e-04,-1.199999999999999895e-04,-5.000000000000000240e-05,-2.999999999999999737e-05,5.000000000000000000e+00,2.100000000000000000e+01
5.858900000000000000e+04,0.000000000000000000e+00,2.000000000000000164e-05,8.000000000000000654e-05,-2.100000000000000087e-04,-1.100000000000000039e-04,-1.199999999999999895e-04,-5.000000000000000240e-05,-2.999999999999999737e-05,5.000000000000000000e+00,2.100000000000000000e+01
5.859000000000000000e+04,0.000000000000000000e+00,2.000000000000000164e-05,8.000000000000000654e-05,-2.100000000000000087e-04,-1.100000000000000039e-04,-1.199999999999999895e-04,-5.000000000000000240e-05,-2.999999999999999737e-05,5.000000000000000000e+00,2.100000000000000000e+01
5.859100000000000000e+04,0.000000000000000000e+00,2.000000000000000164e-05,8.000000000000000654e-05,-2.100000000000000087e-04,-1.100000000000000039e-04,-1.199999999999999895e-04,-5.000000000000000240e-05,-2.999999999999999737e-05,5.000000000000000000e+00,2.100000000000000000e+01
5.859200000000000000e+04,0.000000000000000000e+00,2.000000000000000164e-05,8.000000000000000654e-05,-2.100000000000000087e-04,-1.100000000000000039e-04,-1.199999999999999895e-04,-5.000000000000000240e-05,-2.999999999999999737e-05,5.000000000000000000e+00,2.100000000000000000e+01
5.859300000000000000e+04,0.000000000000000000e+00,2.000000000000000164e-05,8.000000000000000654e-05,-2.100000000000000087e-04,-1.100000000000000039e-04,-1.199999999999999895e-04,-5.000000000000000240e-05,-2.999999999999999737e-05,5.000000000000000000e+00,2.100000000000000000e+01
5.859400000000000000e+04,0.000000000000000000e+00,2.000000000000000164e-05,8.000000000000000654e-05,-2.100000000000000087e-04,-1.100000000000000039e-04,-1.199999999999999895e-04,-5.000000000000000240e-05,-2.999999999999999737e-05,5.000000000000000000e+00,2.100000000000000000e+01
5.859500000000000000e+04,0.000000000000000000e+00,2.000000000000000164e-05,8.000000000000000654e-05,-2.100000000000000087e-04,-1.100000000000000039e-04,-1.199999999999999895e-04,-5.000000000000000240e-05,-2.999999999999999737e-05,5.000000000000000000e+00,2.100000000000000000e+01
5.859600000000000000e+04,0.000000000000000000e+00,2.000000000000000164e-05,8.000000000000000654e-05,-2.100000000000000087e-04,-1.100000000000000039e-04,-1.199999999999999895e-04,-5.000000000000000240e-05,-2.999999999999999737e-05,5.000000000000000000e+00,2.100000000000000000e+01
5.859800000000000000e+04,0.000000000000000000e+00,2.000000000000000164e-05,8.000000000000000654e-05,-2.100000000000000087e-04,-1.100000000000000039e-04,-1.199999999999999895e-04,-5.000000000000000240e-05,-2.999999999999999737e-05,5.000000000000000000e+00,2.100000000000000000e+01
5.859900000000000000e+04,0.000000000000000000e+00,2.000000000000000164e-05,8.000000000000000654e-05,-2.100000000000000087e-04,-1.100000000000000039e-04,-1.199999999999999895e-04,-5.000000000000000240e-05,-2.999999999999999737e-05,5.000000000000000000e+00,2.100000000000000000e+01
5.860000000000000000e+04,0.000000000000000000e+00,2.000000000000000164e-05,8.000000000000000654e-05,-2.100000000000000087e-04,-1.100000000000000039e-04,-1.199999999999999895e-04,-5.000000000000000240e-05,-2.999999999999999737e-05,5.000000000000000000e+00,2.100000000000000000e+01
5.860100000000000000e+04,0.000000000000000000e+00,2.000000000000000164e-05,8.000000000000000654e-05,-2.100000000000000087e-04,-1.100000000000000039e-04,-1.199999999999999895e-04,-5.000000000000000240e-05,-2.999999999999999737e-05,5.000000000000000000e+00,2.100000000000000000e+01
5.860200000000000000e+04,0.000000000000000000e+00,2.000000000000000164e-05,8.000000000000000654e-05,-2.100000000000000087e-04,-1.100000000000000039e-04,-1.199999999999999895e-04,-5.000000000000000240e-05,-2.999999999999999737e-05,5.000000000000000000e+00,2.100000000000000000e+01
5.860300000000000000e+04,0.000000000000000000e+00,2.000000000000000164e-05,8.000000000000000654e-05,-2.100000000000000087e-04,-1.100000000000000039e-04,-1.199999999999999895e-04,-5.000000000000000240e-05,-2.999999999999999737e-05,5.000000000000000000e+00,2.100000000000000000e+01
5.860400000000000000e+04,-5.000000000000000240e-05,2.000000000000000164e-05,2.000000000000000164e-05,1.000000000000000048e-04,0.000000000000000000e+00,9.000000000000000567e-05,-1.300000000000000157e-04,-5.000000000000000240e-05,5.000000000000000000e+00,2.100000000000000000e+01
5.860500000000000000e+04,5.000000000000000240e-05,-2.000000000000000164e-05,-4.000000000000000327e-05,6.999999999999999387e-05,-1.000000000000000048e-04,9.000000000000000567e-05,4.000000000000000327e-05,4.000000000000000327e-05,5.000000000000000000e+00,2.100000000000000000e+01
5.860600000000000000e+04,-1.000000000000000082e-05,1.000000000000000082e-05,1.100000000000000039e-04,2.700000000000000035e-04,1.899999999999999834e-04,4.000000000000000327e-05,-1.000000000000000082e-05,-2.999999999999999737e-05,5.000000000000000000e+00,2.100000000000000000e+01
5.860700000000000000e+04,-1.000000000000000082e-05,1.000000000000000082e-05,1.100000000000000039e-04,2.700000000000000035e-04,1.899999999999999834e-04,4.000000000000000327e-05,-1.000000000000000082e-05,-2.999999999999999737e-05,5.000000000000000000e+00,2.100000000000000000e+01
5.860800000000000000e+04,-1.000000000000000082e-05,1.000000000000000082e-05,1.100000000000000039e-04,2.700000000000000035e-04,1.899999999999999834e-04,4.000000000000000327e-05,-1.000000000000000082e-05,-2.999999999999999737e-05,5.000000000000000000e+00,2.100000000000000000e+01
5.860900000000000000e+04,-1.000000000000000082e-05,1.000000000000000082e-05,1.100000000000000039e-04,2.700000000000000035e-04,1.899999999999999834e-04,4.000000000000000327e-05,-1.000000000000000082e-05,-2.999999999999999737e-05,5.000000000000000000e+00,2.100000000000000000e+01
5.861000000000000000e+04,-1.000000000000000082e-05,1.000000000000000082e-05,1.100000000000000039e-04,2.700000000000000035e-04,1.899999999999999834e-04,4.000000000000000327e-05,-1.000000000000000082e-05,-2.999999999999999737e-05,5.000000000000000000e+00,2.100000000000000000e+01
5.861100000000000000e+04,-1.000000000000000082e-05,1.000000000000000082e-05,1.100000000000000039e-04,2.700000000000000035e-04,1.899999999999999834e-04,4.000000000000000327e-05,-1.000000000000000082e-05,-2.999999999999999737e-05,5.000000000000000000e+00,2.100000000000000000e+01
5.861200000000000000e+04,-1.000000000000000082e-05,1.000000000000000082e-05,1.100000000000000039e-04,2.700000000000000035e-04,1.899999999999999834e-04,4.000000000000000327e-05,-1.000000000000000082e-05,-2.999999999999999737e-05,5.000000000000000000e+00,2.100000000000000000e+01
5.861300000000000000e+04,-1.000000000000000082e-05,1.000000000000000082e-05,1.100000000000000039e-04,2.700000000000000035e-04,1.899999999999999834e-04,4.000000000000000327e-05,-1.000000000000000082e-05,-2.999999999999999737e-05,5.000000000000000000e+00,2.100000000000000000e+01
5.861400000000000000e+04,-1.000000000000000082e-05,1.000000000000000082e-05,1.100000000000000039e-04,2.700000000000000035e-04,1.899999999999999834e-04,4.000000000000000327e-05,-1.000000000000000082e-05,-2.999999999999999737e-05,5.000000000000000000e+00,2.100000000000000000e+01
5.861500000000000000e+04,-1.000000000000000082e-05,1.000000000000000082e-05,1.100000000000000039e-04,2.700000000000000035e-04,1.899999999999999834e-04,4.000000000000000327e-05,-1.000000000000000082e-05,-2.999999999999999737e-05,5.000000000000000000e+00,2.100000000000000000e+01
5.861600000000000000e+04,-1.000000000000000082e-05,1.000000000000000082e-05,1.100000000000000039e-04,2.700000000000000035e-04,1.899999999999999834e-04,4.000000000000000327e-05,-1.000000000000000082e-05,-2.999999999999999737e-05,5.000000000000000000e+00,2.100000000000000000e+01
5.861700000000000000e+04,-1.000000000000000082e-05,1.000000000000000082e-05,1.100000000000000039e-04,2.700000000000000035e-04,1.899999999999999834e-04,4.000000000000000327e-05,-1.000000000000000082e-05,-2.999999999999999737e-05,5.000000000000000000e+00,2.100000000000000000e+01
5.861800000000000000e+04,-1.199999999999999895e-04,-1.800000000000000113e-04,-3.200000000000000262e-04,-5.999999999999999474e-05,-2.000000000000000164e-05,-1.100000000000000039e-04,-1.600000000000000131e-04,-1.000000000000000048e-04,5.000000000000000000e+00,2.100000000000000000e+01
5.861900000000000000e+04,-1.199999999999999895e-04,-1.800000000000000113e-04,-3.200000000000000262e-04,-5.999999999999999474e-05,-2.000000000000000164e-05,-1.100000000000000039e-04,-1.600000000000000131e-04,-1.000000000000000048e-04,5.000000000000000000e+00,2.100000000000000000e+01
5.862000000000000000e+04,-1.199999999999999895e-04,-1.800000000000000113e-04,-3.200000000000000262e-04,-5.999999999999999474e-05,-2.000000000000000164e-05,-1.100000000000000039e-04,-1.600000000000000131e-04,-1.000000000000000048e-04,5.000000000000000000e+00,2.100000000000000000e+01
5.862100000000000000e+04,-1.199999999999999895e-04,-1.800000000000000113e-04,-3.200000000000000262e-04,-5.999999999999999474e-05,-2.000000000000000164e-05,-1.100000000000000039e-04,-1.600000000000000131e-04,-1.000000000000000048e-04,5.000000000000000000e+00,2.100000000000000000e+01
5.862200000000000000e+04,-1.199999999999999895e-04,-1.800000000000000113e-04,-3.200000000000000262e-04,-5.999999999999999474e-05,-2.000000000000000164e-05,-1.100000000000000039e-04,-1.600000000000000131e-04,-1.000000000000000048e-04,5.000000000000000000e+00,2.100000000000000000e+01
5.862300000000000000e+04,-1.199999999999999895e-04,-1.800000000000000113e-04,-3.200000000000000262e-04,-5.999999999999999474e-05,-2.000000000000000164e-05,-1.100000000000000039e-04,-1.600000000000000131e-04,-1.000000000000000048e-04,5.000000000000000000e+00,2.100000000000000000e+01
5.862400000000000000e+04,-1.199999999999999895e-04,-1.800000000000000113e-04,-3.200000000000000262e-04,-5.999999999999999474e-05,-2.000000000000000164e-05,-1.100000000000000039e-04,-1.600000000000000131e-04,-1.000000000000000048e-04,5.000000000000000000e+00,2.100000000000000000e+01
5.862500000000000000e+04,-1.199999999999999895e-04,-1.800000000000000113e-04,-3.200000000000000262e-04,-5.999999999999999474e-05,-2.000000000000000164e-05,-1.100000000000000039e-04,-1.600000000000000131e-04,-1.000000000000000048e-04,5.000000000000000000e+00,2.100000000000000000e+01
5.862600000000000000e+04,-1.199999999999999895e-04,-1.800000000000000113e-04,-3.200000000000000262e-04,-5.999999999999999474e-05,-2.000000000000000164e-05,-1.100000000000000039e-04,-1.600000000000000131e-04,-1.000000000000000048e-04,5.000000000000000000e+00,2.100000000000000000e+01
5.862700000000000000e+04,-8.000000000000000654e-05,-8.000000000000000654e-05,-1.699999999999999851e-04,-2.799999999999999755e-04,-6.999999999999999387e-05,-2.500000000000000052e-04,-6.999999999999999387e-05,-2.000000000000000164e-05,5.000000000000000000e+00,2.100000000000000000e+01
5.862800000000000000e+04,-8.000000000000000654e-05,-8.000000000000000654e-05,-1.699999999999999851e-04,-2.799999999999999755e-04,-6.999999999999999387e-05,-2.500000000000000052e-04,-6.999999999999999387e-05,-2.000000000000000164e-05,5.000000000000000000e+00,2.100000000000000000e+01
5.862900000000000000e+04,-8.000000000000000654e-05,-8.000000000000000654e-05,-1.699999999999999851e-04,-2.799999999999999755e-04,-6.999999999999999387e-05,-2.500000000000000052e-04,-6.999999999999999387e-05,-2.000000000000000164e-05,5.000000000000000000e+00,2.100000000000000000e+01
5.863000000000000000e+04,-8.000000000000000654e-05,-8.000000000000000654e-05,-1.699999999999999851e-04,-2.799999999999999755e-04,-6.999999999999999387e-05,-2.500000000000000052e-04,-6.999999999999999387e-05,-2.000000000000000164e-05,5.000000000000000000e+00,2.100000000000000000e+01
5.863100000000000000e+04,-8.000000000000000654e-05,-8.000000000000000654e-05,-1.699999999999999851e-04,-2.799999999999999755e-04,-6.999999999999999387e-05,-2.500000000000000052e-04,-6.999999999999999387e-05,-2.000000000000000164e-05,5.000000000000000000e+00,2.100000000000000000e+01
5.863200000000000000e+04,-8.000000000000000654e-05,-8.000000000000000654e-05,-1.699999999999999851e-04,-2.799999999999999755e-04,-6.999999999999999387e-05,-2.500000000000000052e-04,-6.999999999999999387e-05,-2.000000000000000164e-05,5.000000000000000000e+00,2.100000000000000000e+01
5.863300000000000000e+04,-8.000000000000000654e-05,-8.000000000000000654e-05,-1.699999999999999851e-04,-2.799999999999999755e-04,-6.999999999999999387e-05,-2.500000000000000052e-04,-6.999999999999999387e-05,-2.000000000000000164e-05,5.000000000000000000e+00,2.100000000000000000e+01
5.863400000000000000e+04,-8.000000000000000654e-05,-8.000000000000000654e-05,-1.699999999999999851e-04,-2.799999999999999755e-04,-6.999999999999999387e-05,-2.500000000000000052e-04,-6.999999999999999387e-05,-2.000000000000000164e-05,5.000000000000000000e+00,2.100000000000000000e+01
5.863500000000000000e+04,-8.000000000000000654e-05,-8.000000000000000654e-05,-1.699999999999999851e-04,-2.799999999999999755e-04,-6.999999999999999387e-05,-2.500000000000000052e-04,-6.999999999999999387e-05,-2.000000000000000164e-05,5.000000000000000000e+00,2.100000000000000000e+01
5.863600000000000000e+04,-8.000000000000000654e-05,-8.000000000000000654e-05,-1.699999999999999851e-04,-2.799999999999999755e-04,-6.999999999999999387e-05,-2.500000000000000052e-04,-6.999999999999999387e-05,-2.000000000000000164e-05,5.000000000000000000e+00,2.100000000000000000e+01
5.863800000000000000e+04,-8.000000000000000654e-05,-8.000000000000000654e-05,-1.699999999999999851e-04,-2.799999999999999755e-04,-6.999999999999999387e-05,-2.500000000000000052e-04,-6.999999999999999387e-05,-2.000000000000000164e-05,5.000000000000000000e+00,2.100000000000000000e+01
5.863900000000000000e+04,-8.000000000000000654e-05,-8.000000000000000654e-05,-1.699999999999999851e-04,-2.799999999999999755e-04,-6.999999999999999387e-05,-2.500000000000000052e-04,-6.999999999999999387e-05,-2.000000000000000164e-05,5.000000000000000000e+00,2.100000000000000000e+01
5.864000000000000000e+04,-8.000000000000000654e-05,-8.000000000000000654e-05,-1.699999999999999851e-04,-2.799999999999999755e-04,-6.999999999999999387e-05,-2.500000000000000052e-04,-6.999999999999999387e-05,-2.000000000000000164e-05,5.000000000000000000e+00,2.100000000000000000e+01
5.864100000000000000e+04,-8.000000000000000654e-05,-8.000000000000000654e-05,-1.699999999999999851e-04,-2.799999999999999755e-04,-6.999999999999999387e-05,-2.500000000000000052e-04,-6.999999999999999387e-05,-2.000000000000000164e-05,5.000000000000000000e+00,2.100000000000000000e+01
5.864200000000000000e+04,-8.000000000000000654e-05,-8.000000000000000654e-05,-1.699999999999999851e-04,-2.799999999999999755e-04,-6.999999999999999387e-05,-2.500000000000000052e-04,-6.999999999999999387e-05,-2.000000000000000164e-05,5.000000000000000000e+00,2.100000000000000000e+01
5.864300000000000000e+04,2.000000000000000164e-05,9.000000000000000567e-05,1.899999999999999834e-04,2.799999999999999755e-04,-5.999999999999999474e-05,-4.000000000000000327e-05,4.000000000000000327e-05,2.000000000000000164e-05,5.000000000000000000e+00,2.100000000000000000e+01
5.864400000000000000e+04,2.000000000000000164e-05,9.000000000000000567e-05,1.899999999999999834e-04,2.799999999999999755e-04,-5.999999999999999474e-05,-4.000000000000000327e-05,4.000000000000000327e-05,2.000000000000000164e-05,5.000000000000000000e+00,2.100000000000000000e+01
5.864500000000000000e+04,-2.999999999999999737e-05,-5.999999999999999474e-05,-9.000000000000000567e-05,-4.000000000000000327e-05,2.000000000000000164e-05,5.999999999999999474e-05,-2.000000000000000164e-05,-2.000000000000000164e-05,5.000000000000000000e+00,2.100000000000000000e+01
5.864600000000000000e+04,-2.999999999999999737e-05,-5.999999999999999474e-05,-9.000000000000000567e-05,-4.000000000000000327e-05,2.000000000000000164e-05,5.999999999999999474e-05,-2.000000000000000164e-05,-2.000000000000000164e-05,5.000000000000000000e+00,2.100000000000000000e+01
5.864700000000000000e+04,-2.999999999999999737e-05,-5.999999999999999474e-05,-9.000000000000000567e-05,-4.000000000000000327e-05,2.000000000000000164e-05,5.999999999999999474e-05,-2.000000000000000164e-05,-2.000000000000000164e-05,5.000000000000000000e+00,2.100000000000000000e+01
5.864800000000000000e+04,-2.999999999999999737e-05,-5.999999999999999474e-05,-9.000000000000000567e-05,-4.000000000000000327e-05,2.000000000000000164e-05,5.999999999999999474e-05,-2.000000000000000164e-05,-2.000000000000000164e-05,5.000000000000000000e+00,2.100000000000000000e+01
5.864900000000000000e+04,-2.999999999999999737e-05,-5.999999999999999474e-05,-9.000000000000000567e-05,-4.000000000000000327e-05,2.000000000000000164e-05,5.999999999999999474e-05,-2.000000000000000164e-05,-2.000000000000000164e-05,5.000000000000000000e+00,2.100000000000000000e+01
5.865000000000000000e+04,-2.999999999999999737e-05,-5.999999999999999474e-05,-9.000000000000000567e-05,-4.000000000000000327e-05,2.000000000000000164e-05,5.999999999999999474e-05,-2.000000000000000164e-05,-2.000000000000000164e-05,5.000000000000000000e+00,2.100000000000000000e+01
5.865100000000000000e+04,-2.999999999999999737e-05,-5.999999999999999474e-05,-9.000000000000000567e-05,-4.000000000000000327e-05,2.000000000000000164e-05,5.999999999999999474e-05,-2.000000000000000164e-05,-2.000000000000000164e-05,5.000000000000000000e+00,2.100000000000000000e+01
5.865200000000000000e+04,-2.999999999999999737e-05,-5.999999999999999474e-05,-9.000000000000000567e-05,-4.000000000000000327e-05,2.000000000000000164e-05,5.999999999999999474e-05,-2.000000000000000164e-05,-2.000000000000000164e-05,5.000000000000000000e+00,2.100000000000000000e+01
5.865300000000000000e+04,-2.999999999999999737e-05,-5.999999999999999474e-05,-9.000000000000000567e-05,-4.000000000000000327e-05,2.000000000000000164e-05,5.999999999999999474e-05,-2.000000000000000164e-05,-2.000000000000000164e-05,5.000000000000000000e+00,2.100000000000000000e+01
5.865400000000000000e+04,-2.999999999999999737e-05,-5.999999999999999474e-05,-9.000000000000000567e-05,-4.000000000000000327e-05,2.000000000000000164e-05,5.999999999999999474e-05,-2.000000000000000164e-05,-2.000000000000000164e-05,5.000000000000000000e+00,2.100000000000000000e+01
5.865500000000000000e+04,-2.999999999999999737e-05,-5.999999999999999474e-05,-9.000000000000000567e-05,-4.000000000000000327e-05,2.000000000000000164e-05,5.999999999999999474e-05,-2.000000000000000164e-05,-2.000000000000000164e-05,5.000000000000000000e+00,2.100000000000000000e+01
5.865600000000000000e+04,-2.999999999999999737e-05,-5.999999999999999474e-05,-9.000000000000000567e-05,-4.000000000000000327e-05,2.000000000000000164e-05,5.999999999999999474e-05,-2.000000000000000164e-05,-2.000000000000000164e-05,5.000000000000000000e+00,2.100000000000000000e+01
5.865800000000000000e+04,-2.999999999999999737e-05,-5.999999999999999474e-05,-9.000000000000000567e-05,-4.000000000000000327e-05,2.000000000000000164e-05,5.999999999999999474e-05,-2.000000000000000164e-05,-2.000000000000000164e-05,5.000000000000000000e+00,2.100000000000000000e+01
5.865900000000000000e+04,-2.999999999999999737e-05,-5.999999999999999474e-05,-9.000000000000000567e-05,-4.000000000000000327e-05,2.000000000000000164e-05,5.999999999999999474e-05,-2.000000000000000164e-05,-2.000000000000000164e-05,5.000000000000000000e+00,2.100000000000000000e+01
5.866000000000000000e+04,-2.999999999999999737e-05,-5.999999999999999474e-05,-9.000000000000000567e-05,-4.000000000000000327e-05,2.000000000000000164e-05,5.999999999999999474e-05,-2.000000000000000164e-05,-2.000000000000000164e-05,5.000000000000000000e+00,2.100000000000000000e+01
5.866100000000000000e+04,-2.999999999999999737e-05,-5.999999999999999474e-05,-9.000000000000000567e-05,-4.000000000000000327e-05,2.000000000000000164e-05,5.999999999999999474e-05,-2.000000000000000164e-05,-2.000000000000000164e-05,5.000000000000000000e+00,2.100000000000000000e+01
5.866200000000000000e+04,-2.999999999999999737e-05,-5.999999999999999474e-05,-9.000000000000000567e-05,-4.000000000000000327e-05,2.000000000000000164e-05,5.999999999999999474e-05,-2.000000000000000164e-05,-2.000000000000000164e-05,5.000000000000000000e+00,2.100000000000000000e+01
5.866300000000000000e+04,-2.999999999999999737e-05,-5.999999999999999474e-05,-9.000000000000000567e-05,-4.000000000000000327e-05,2.000000000000000164e-05,5.999999999999999474e-05,-2.000000000000000164e-05,-2.000000000000000164e-05,5.000000000000000000e+00,2.100000000000000000e+01
5.866400000000000000e+04,-1.000000000000000082e-05,-5.999999999999999474e-05,-1.600000000000000131e-04,-1.800000000000000113e-04,1.600000000000000131e-04,-2.000000000000000164e-05,-2.000000000000000164e-05,-2.000000000000000164e-05,5.000000000000000000e+00,2.100000000000000000e+01
5.866500000000000000e+04,-2.999999999999999737e-05,-2.000000000000000164e-05,-1.000000000000000082e-05,-9.000000000000000567e-05,-2.200000000000000078e-04,-1.100000000000000039e-04,-8.000000000000000654e-05,-5.000000000000000240e-05,5.000000000000000000e+00,2.100000000000000000e+01
5.866600000000000000e+04,0.000000000000000000e+00,5.000000000000000240e-05,-2.000000000000000164e-05,-2.999999999999999737e-05,4.000000000000000192e-04,8.000000000000000654e-05,1.000000000000000082e-05,-1.000000000000000082e-05,5.000000000000000000e+00,2.100000000000000000e+01
5.866700000000000000e+04,0.000000000000000000e+00,5.000000000000000240e-05,-2.000000000000000164e-05,-2.999999999999999737e-05,4.000000000000000192e-04,8.000000000000000654e-05,1.000000000000000082e-05,-1.000000000000000082e-05,5.000000000000000000e+00,2.100000000000000000e+01
5.866800000000000000e+04,0.000000000000000000e+00,5.000000000000000240e-05,-2.000000000000000164e-05,-2.999999999999999737e-05,4.000000000000000192e-04,8.000000000000000654e-05,1.000000000000000082e-05,-1.000000000000000082e-05,5.000000000000000000e+00,2.100000000000000000e+01
5.866900000000000000e+04,0.000000000000000000e+00,5.000000000000000240e-05,-2.000000000000000164e-05,-2.999999999999999737e-05,4.000000000000000192e-04,8.000000000000000654e-05,1.000000000000000082e-05,-1.000000000000000082e-05,5.000000000000000000e+00,2.100000000000000000e+01
5.867000000000000000e+04,0.000000000000000000e+00,5.000000000000000240e-05,-2.000000000000000164e-05,-2.999999999999999737e-05,4.000000000000000192e-04,8.000000000000000654e-05,1.000000000000000082e-05,-1.000000000000000082e-05,5.000000000000000000e+00,2.100000000000000000e+01
5.867100000000000000e+04,0.000000000000000000e+00,5.000000000000000240e-05,-2.000000000000000164e-05,-2.999999999999999737e-05,4.000000000000000192e-04,8.000000000000000654e-05,1.000000000000000082e-05,-1.000000000000000082e-05,5.000000000000000000e+00,2.100000000000000000e+01
5.867200000000000000e+04,0.000000000000000000e+00,5.000000000000000240e-05,-2.000000000000000164e-05,-2.999999999999999737e-05,4.000000000000000192e-04,8.000000000000000654e-05,1.000000000000000082e-05,-1.000000000000000082e-05,5.000000000000000000e+00,2.100000000000000000e+01
5.867300000000000000e+04,0.000000000000000000e+00,5.000000000000000240e-05,-2.000000000000000164e-05,-2.999999999999999737e-05,4.000000000000000192e-04,8.000000000000000654e-05,1.000000000000000082e-05,-1.000000000000000082e-05,5.000000000000000000e+00,2.100000000000000000e+01
5.867400000000000000e+04,0.000000000000000000e+00,5.000000000000000240e-05,-2.000000000000000164e-05,-2.999999999999999737e-05,4.000000000000000192e-04,8.000000000000000654e-05,1.000000000000000082e-05,-1.000000000000000082e-05,5.000000000000000000e+00,2.100000000000000000e+01
5.867500000000000000e+04,0.000000000000000000e+00,5.000000000000000240e-05,-2.000000000000000164e-05,-2.999999999999999737e-05,4.000000000000000192e-04,8.000000000000000654e-05,1.000000000000000082e-05,-1.000000000000000082e-05,5.000000000000000000e+00,2.100000000000000000e+01
5.867600000000000000e+04,0.000000000000000000e+00,5.000000000000000240e-05,-2.000000000000000164e-05,-2.999999999999999737e-05,4.000000000000000192e-04,8.000000000000000654e-05,1.000000000000000082e-05,-1.000000000000000082e-05,5.000000000000000000e+00,2.100000000000000000e+01
5.867700000000000000e+04,0.000000000000000000e+00,5.000000000000000240e-05,-2.000000000000000164e-05,-2.999999999999999737e-05,4.000000000000000192e-04,8.000000000000000654e-05,1.000000000000000082e-05,-1.000000000000000082e-05,5.000000000000000000e+00,2.100000000000000000e+01
5.867800000000000000e+04,0.000000000000000000e+00,5.000000000000000240e-05,-2.000000000000000164e-05,-2.999999999999999737e-05,4.000000000000000192e-04,8.000000000000000654e-05,1.000000000000000082e-05,-1.000000000000000082e-05,5.000000000000000000e+00,2.100000000000000000e+01
5.867900000000000000e+04,0.000000000000000000e+00,5.000000000000000240e-05,-2.000000000000000164e-05,-2.999999999999999737e-05,4.000000000000000192e-04,8.000000000000000654e-05,1.000000000000000082e-05,-1.000000000000000082e-05,5.000000000000000000e+00,2.100000000000000000e+01
5.868000000000000000e+04,0.000000000000000000e+00,5.000000000000000240e-05,-2.000000000000000164e-05,-2.999999999999999737e-05,4.000000000000000192e-04,8.000000000000000654e-05,1.000000000000000082e-05,-1.000000000000000082e-05,5.000000000000000000e+00,2.100000000000000000e+01
5.868100000000000000e+04,0.000000000000000000e+00,5.000000000000000240e-05,-2.000000000000000164e-05,-2.999999999999999737e-05,4.000000000000000192e-04,8.000000000000000654e-05,1.000000000000000082e-05,-1.000000000000000082e-05,5.000000000000000000e+00,2.100000000000000000e+01
5.868200000000000000e+04,0.000000000000000000e+00,5.000000000000000240e-05,-2.000000000000000164e-05,-2.999999999999999737e-05,4.000000000000000192e-04,8.000000000000000654e-05,1.000000000000000082e-05,-1.000000000000000082e-05,5.000000000000000000e+00,2.100000000000000000e+01
5.868300000000000000e+04,0.000000000000000000e+00,5.000000000000000240e-05,-2.000000000000000164e-05,-2.999999999999999737e-05,4.000000000000000192e-04,8.000000000000000654e-05,1.000000000000000082e-05,-1.000000000000000082e-05,5.000000000000000000e+00,2.100000000000000000e+01
5.868400000000000000e+04,0.000000000000000000e+00,5.000000000000000240e-05,-2.000000000000000164e-05,-2.999999999999999737e-05,4.000000000000000192e-04,8.000000000000000654e-05,1.000000000000000082e-05,-1.000000000000000082e-05,5.000000000000000000e+00,2.100000000000000000e+01
5.868500000000000000e+04,0.000000000000000000e+00,5.000000000000000240e-05,-2.000000000000000164e-05,-2.999999999999999737e-05,4.000000000000000192e-04,8.000000000000000654e-05,1.000000000000000082e-05,-1.000000000000000082e-05,5.000000000000000000e+00,2.100000000000000000e+01
5.868600000000000000e+04,0.000000000000000000e+00,5.000000000000000240e-05,-2.000000000000000164e-05,-2.999999999999999737e-05,4.000000000000000192e-04,8.000000000000000654e-05,1.000000000000000082e-05,-1.000000000000000082e-05,5.000000000000000000e+00,2.100000000000000000e+01
5.868800000000000000e+04,0.000000000000000000e+00,5.000000000000000240e-05,-2.000000000000000164e-05,-2.999999999999999737e-05,4.000000000000000192e-04,8.000000000000000654e-05,1.000000000000000082e-05,-1.000000000000000082e-05,5.000000000000000000e+00,2.100000000000000000e+01
5.868900000000000000e+04,0.000000000000000000e+00,5.000000000000000240e-05,-2.000000000000000164e-05,-2.999999999999999737e-05,4.000000000000000192e-04,8.000000000000000654e-05,1.000000000000000082e-05,-1.000000000000000082e-05,5.000000000000000000e+00,2.100000000000000000e+01
5.869000000000000000e+04,0.000000000000000000e+00,5.000000000000000240e-05,-2.000000000000000164e-05,-2.999999999999999737e-05,4.000000000000000192e-04,8.000000000000000654e-05,1.000000000000000082e-05,-1.000000000000000082e-05,5.000000000000000000e+00,2.100000000000000000e+01
5.869100000000000000e+04,0.000000000000000000e+00,5.000000000000000240e-05,-2.000000000000000164e-05,-2.999999999999999737e-05,4.000000000000000192e-04,8.000000000000000654e-05,1.000000000000000082e-05,-1.000000000000000082e-05,5.000000000000000000e+00,2.100000000000000000e+01
5.869200000000000000e+04,0.000000000000000000e+00,5.000000000000000240e-05,-2.000000000000000164e-05,-2.999999999999999737e-05,4.000000000000000192e-04,8.000000000000000654e-05,1.000000000000000082e-05,-1.000000000000000082e-05,5.000000000000000000e+00,2.100000000000000000e+01
5.869300000000000000e+04,0.000000000000000000e+00,5.000000000000000240e-05,-2.000000000000000164e-05,-2.999999999999999737e-05,4.000000000000000192e-04,8.000000000000000654e-05,1.000000000000000082e-05,-1.000000000000000082e-05,5.000000000000000000e+00,2.100000000000000000e+01
5.869400000000000000e+04,2.000000000000000164e-05,-8.000000000000000654e-05,-1.699999999999999851e-04,-9.000000000000000567e-05,-5.400000000000000069e-04,-1.000000000000000048e-04,2.999999999999999737e-05,0.000000000000000000e+00,5.000000000000000000e+00,2.100000000000000000e+01
5.869500000000000000e+04,-5.999999999999999474e-05,-2.999999999999999737e-05,1.000000000000000082e-05,-4.000000000000000327e-05,2.000000000000000164e-05,0.000000000000000000e+00,-8.000000000000000654e-05,-2.999999999999999737e-05,5.000000000000000000e+00,2.100000000000000000e+01
5.869600000000000000e+04,9.000000000000000567e-05,1.199999999999999895e-04,2.000000000000000164e-05,-1.000000000000000082e-05,4.000000000000000327e-05,6.999999999999999387e-05,5.000000000000000240e-05,5.999999999999999474e-05,5.000000000000000000e+00,2.100000000000000000e+01
5.869700000000000000e+04,9.000000000000000567e-05,1.199999999999999895e-04,2.000000000000000164e-05,-1.000000000000000082e-05,4.000000000000000327e-05,6.999999999999999387e-05,5.000000000000000240e-05,5.999999999999999474e-05,5.000000000000000000e+00,2.100000000000000000e+01
5.869800000000000000e+04,9.000000000000000567e-05,1.199999999999999895e-04,2.000000000000000164e-05,-1.000000000000000082e-05,4.000000000000000327e-05,6.999999999999999387e-05,5.000000000000000240e-05,5.999999999999999474e-05,5.000000000000000000e+00,2.100000000000000000e+01
5.869900000000000000e+04,9.000000000000000567e-05,1.199999999999999895e-04,2.000000000000000164e-05,-1.000000000000000082e-05,4.000000000000000327e-05,6.999999999999999387e-05,5.000000000000000240e-05,5.999999999999999474e-05,5.000000000000000000e+00,2.100000000000000000e+01
5.870000000000000000e+04,9.000000000000000567e-05,1.199999999999999895e-04,2.000000000000000164e-05,-1.000000000000000082e-05,4.000000000000000327e-05,6.999999999999999387e-05,5.000000000000000240e-05,5.999999999999999474e-05,5.000000000000000000e+00,2.100000000000000000e+01
5.870100000000000000e+04,2.999999999999999737e-05,5.999999999999999474e-05,5.999999999999999474e-05,-3.799999999999999667e-04,-2.299999999999999799e-04,-5.000000000000000240e-05,4.000000000000000327e-05,2.000000000000000164e-05,5.000000000000000000e+00,2.100000000000000000e+01
5.870200000000000000e+04,-4.000000000000000327e-05,-4.000000000000000327e-05,-2.999999999999999737e-05,-2.999999999999999737e-05,-2.900000000000000017e-04,0.000000000000000000e+00,6.999999999999999387e-05,-1.000000000000000082e-05,5.000000000000000000e+00,2.100000000000000000e+01
5.870300000000000000e+04,-2.999999999999999737e-05,-5.000000000000000240e-05,4.000000000000000327e-05,1.000000000000000082e-05,-3.299999999999999982e-04,5.000000000000000240e-05,-1.000000000000000082e-05,1.000000000000000082e-05,5.000000000000000000e+00,2.100000000000000000e+01
5.870400000000000000e+04,-2.999999999999999737e-05,-5.000000000000000240e-05,4.000000000000000327e-05,1.000000000000000082e-05,-3.299999999999999982e-04,5.000000000000000240e-05,-1.000000000000000082e-05,1.000000000000000082e-05,5.000000000000000000e+00,2.100000000000000000e+01
5.870500000000000000e+04,-2.999999999999999737e-05,-5.000000000000000240e-05,4.000000000000000327e-05,1.000000000000000082e-05,-3.299999999999999982e-04,5.000000000000000240e-05,-1.000000000000000082e-05,1.000000000000000082e-05,5.000000000000000000e+00,2.100000000000000000e+01
5.870600000000000000e+04,-2.999999999999999737e-05,-5.000000000000000240e-05,4.000000000000000327e-05,1.000000000000000082e-05,-3.299999999999999982e-04,5.000000000000000240e-05,-1.000000000000000082e-05,1.000000000000000082e-05,5.000000000000000000e+00,2.100000000000000000e+01
5.870700000000000000e+04,-2.999999999999999737e-05,-5.000000000000000240e-05,4.000000000000000327e-05,1.000000000000000082e-05,-3.299999999999999982e-04,5.000000000000000240e-05,-1.000000000000000082e-05,1.000000000000000082e-05,5.000000000000000000e+00,2.100000000000000000e+01
5.870800000000000000e+04,-2.999999999999999737e-05,-5.000000000000000240e-05,4.000000000000000327e-05,1.000000000000000082e-05,-3.299999999999999982e-04,5.000000000000000240e-05,-1.000000000000000082e-05,1.000000000000000082e-05,5.000000000000000000e+00,2.100000000000000000e+01
5.870900000000000000e+04,-2.999999999999999737e-05,-5.000000000000000240e-05,4.000000000000000327e-05,1.000000000000000082e-05,-3.299999999999999982e-04,5.000000000000000240e-05,-1.000000000000000082e-05,1.000000000000000082e-05,5.000000000000000000e+00,2.100000000000000000e+01
5.871000000000000000e+04,-2.999999999999999737e-05,-5.000000000000000240e-05,4.000000000000000327e-05,1.000000000000000082e-05,-3.299999999999999982e-04,5.000000000000000240e-05,-1.000000000000000082e-05,1.000000000000000082e-05,5.000000000000000000e+00,2.100000000000000000e+01
5.871100000000000000e+04,-2.999999999999999737e-05,-5.000000000000000240e-05,4.000000000000000327e-05,1.000000000000000082e-05,-3.299999999999999982e-04,5.000000000000000240e-05,-1.000000000000000082e-05,1.000000000000000082e-05,5.000000000000000000e+00,2.100000000000000000e+01
5.871200000000000000e+04,-2.999999999999999737e-05,-5.000000000000000240e-05,4.000000000000000327e-05,1.000000000000000082e-05,-3.299999999999999982e-04,5.000000000000000240e-05,-1.000000000000000082e-05,1.000000000000000082e-05,5.000000000000000000e+00,2.100000000000000000e+01
5.871300000000000000e+04,-2.999999999999999737e-05,-5.000000000000000240e-05,4.000000000000000327e-05,1.000000000000000082e-05,-3.299999999999999982e-04,5.000000000000000240e-05,-1.000000000000000082e-05,1.000000000000000082e-05,5.000000000000000000e+00,2.100000000000000000e+01
5.871400000000000000e+04,-2.999999999999999737e-05,-5.000000000000000240e-05,4.000000000000000327e-05,1.000000000000000082e-05,-3.299999999999999982e-04,5.000000000000000240e-05,-1.000000000000000082e-05,1.000000000000000082e-05,5.000000000000000000e+00,2.100000000000000000e+01
5.871500000000000000e+04,-2.999999999999999737e-05,-5.000000000000000240e-05,4.000000000000000327e-05,1.000000000000000082e-05,-3.299999999999999982e-04,5.000000000000000240e-05,-1.000000000000000082e-05,1.000000000000000082e-05,5.000000000000000000e+00,2.100000000000000000e+01
5.871600000000000000e+04,-2.999999999999999737e-05,-5.000000000000000240e-05,4.000000000000000327e-05,1.000000000000000082e-05,-3.299999999999999982e-04,5.000000000000000240e-05,-1.000000000000000082e-05,1.000000000000000082e-05,5.000000000000000000e+00,2.100000000000000000e+01
5.871700000000000000e+04,-2.999999999999999737e-05,-5.000000000000000240e-05,4.000000000000000327e-05,1.000000000000000082e-05,-3.299999999999999982e-04,5.000000000000000240e-05,-1.000000000000000082e-05,1.000000000000000082e-05,5.000000000000000000e+00,2.100000000000000000e+01
5.871800000000000000e+04,-2.999999999999999737e-05,-5.000000000000000240e-05,4.000000000000000327e-05,1.000000000000000082e-05,-3.299999999999999982e-04,5.000000000000000240e-05,-1.000000000000000082e-05,1.000000000000000082e-05,5.000000000000000000e+00,2.100000000000000000e+01
5.871900000000000000e+04,-2.999999999999999737e-05,-5.000000000000000240e-05,4.000000000000000327e-05,1.000000000000000082e-05,-3.299999999999999982e-04,5.000000000000000240e-05,-1.000000000000000082e-05,1.000000000000000082e-05,5.000000000000000000e+00,2.100000000000000000e+01
5.872000000000000000e+04,-2.999999999999999737e-05,-5.000000000000000240e-05,4.000000000000000327e-05,1.000000000000000082e-05,-3.299999999999999982e-04,5.000000000000000240e-05,-1.000000000000000082e-05,1.000000000000000082e-05,5.000000000000000000e+00,2.100000000000000000e+01
5.872100000000000000e+04,-2.999999999999999737e-05,-5.000000000000000240e-05,4.000000000000000327e-05,1.000000000000000082e-05,-3.299999999999999982e-04,5.000000000000000240e-05,-1.000000000000000082e-05,1.000000000000000082e-05,5.000000000000000000e+00,2.100000000000000000e+01
5.872200000000000000e+04,-2.999999999999999737e-05,-5.000000000000000240e-05,4.000000000000000327e-05,1.000000000000000082e-05,-3.299999999999999982e-04,5.000000000000000240e-05,-1.000000000000000082e-05,1.000000000000000082e-05,5.000000000000000000e+00,2.100000000000000000e+01
5.872300000000000000e+04,-2.999999999999999737e-05,-5.000000000000000240e-05,4.000000000000000327e-05,1.000000000000000082e-05,-3.299999999999999982e-04,5.000000000000000240e-05,-1.000000000000000082e-05,1.000000000000000082e-05,5.000000000000000000e+00,2.100000000000000000e+01
5.872400000000000000e+04,-2.999999999999999737e-05,-5.000000000000000240e-05,4.000000000000000327e-05,1.000000000000000082e-05,-3.299999999999999982e-04,5.000000000000000240e-05,-1.000000000000000082e-05,1.000000000000000082e-05,5.000000000000000000e+00,2.100000000000000000e+01
5.872500000000000000e+04,2.000000000000000164e-05,6.999999999999999387e-05,1.399999999999999877e-04,1.800000000000000113e-04,-1.699999999999999851e-04,-1.399999999999999877e-04,-5.000000000000000240e-05,-1.000000000000000082e-05,5.000000000000000000e+00,2.100000000000000000e+01
5.872600000000000000e+04,2.000000000000000164e-05,6.999999999999999387e-05,1.399999999999999877e-04,1.800000000000000113e-04,-1.699999999999999851e-04,-1.399999999999999877e-04,-5.000000000000000240e-05,-1.000000000000000082e-05,5.000000000000000000e+00,2.100000000000000000e+01
5.872700000000000000e+04,2.000000000000000164e-05,2.000000000000000164e-05,2.999999999999999737e-05,-6.999999999999999387e-05,2.000000000000000096e-04,5.000000000000000240e-05,0.000000000000000000e+00,0.000000000000000000e+00,5.000000000000000000e+00,2.100000000000000000e+01
5.872800000000000000e+04,2.000000000000000164e-05,2.000000000000000164e-05,2.999999999999999737e-05,-6.999999999999999387e-05,2.000000000000000096e-04,5.000000000000000240e-05,0.000000000000000000e+00,0.000000000000000000e+00,5.000000000000000000e+00,2.100000000000000000e+01
5.872900000000000000e+04,2.000000000000000164e-05,2.000000000000000164e-05,2.999999999999999737e-05,-6.999999999999999387e-05,2.000000000000000096e-04,5.000000000000000240e-05,0.000000000000000000e+00,0.000000000000000000e+00,5.000000000000000000e+00,2.100000000000000000e+01
5.873000000000000000e+04,2.000000000000000164e-05,2.000000000000000164e-05,2.999999999999999737e-05,-6.999999999999999387e-05,2.000000000000000096e-04,5.000000000000000240e-05,0.000000000000000000e+00,0.000000000000000000e+00,5.000000000000000000e+00,2.100000000000000000e+01
5.873100000000000000e+04,2.000000000000000164e-05,2.000000000000000164e-05,2.999999999999999737e-05,-6.999999999999999387e-05,2.000000000000000096e-04,5.000000000000000240e-05,0.000000000000000000e+00,0.000000000000000000e+00,5.000000000000000000e+00,2.100000000000000000e+01
5.873200000000000000e+04,2.000000000000000164e-05,2.000000000000000164e-05,2.999999999999999737e-05,-6.999999999999999387e-05,2.000000000000000096e-04,5.000000000000000240e-05,0.000000000000000000e+00,0.000000000000000000e+00,5.000000000000000000e+00,2.100000000000000000e+01
5.873300000000000000e+04,2.000000000000000164e-05,2.000000000000000164e-05,2.999999999999999737e-05,-6.999999999999999387e-05,2.000000000000000096e-04,5.000000000000000240e-05,0.000000000000000000e+00,0.000000000000000000e+00,5.000000000000000000e+00,2.100000000000000000e+01
5.873400000000000000e+04,2.000000000000000164e-05,2.000000000000000164e-05,2.999999999999999737e-05,-6.999999999999999387e-05,2.000000000000000096e-04,5.000000000000000240e-05,0.000000000000000000e+00,0.000000000000000000e+00,5.000000000000000000e+00,2.100000000000000000e+01
5.873500000000000000e+04,2.000000000000000164e-05,2.000000000000000164e-05,2.999999999999999737e-05,-6.999999999999999387e-05,2.000000000000000096e-04,5.000000000000000240e-05,0.000000000000000000e+00,0.000000000000000000e+00,5.000000000000000000e+00,2.100000000000000000e+01
5.873600000000000000e+04,2.000000000000000164e-05,2.000000000000000164e-05,2.999999999999999737e-05,-6.999999999999999387e-05,2.000000000000000096e-04,5.000000000000000240e-05,0.000000000000000000e+00,0.000000000000000000e+00,5.000000000000000000e+00,2.100000000000000000e+01
5.873800000000000000e+04,2.000000000000000164e-05,2.000000000000000164e-05,2.999999999999999737e-05,-6.999999999999999387e-05,2.000000000000000096e-04,5.000000000000000240e-05,0.000000000000000000e+00,0.000000000000000000e+00,5.000000000000000000e+00,2.100000000000000000e+01
5.873900000000000000e+04,-2.000000000000000164e-05,-5.000000000000000240e-05,-5.999999999999999474e-05,4.000000000000000327e-05,5.000000000000000240e-05,1.000000000000000082e-05,2.999999999999999737e-05,2.999999999999999737e-05,5.000000000000000000e+00,2.100000000000000000e+01
5.874000000000000000e+04,-2.000000000000000164e-05,-5.000000000000000240e-05,-5.999999999999999474e-05,4.000000000000000327e-05,5.000000000000000240e-05,1.000000000000000082e-05,2.999999999999999737e-05,2.999999999999999737e-05,5.000000000000000000e+00,2.100000000000000000e+01
5.874100000000000000e+04,-2.000000000000000164e-05,-5.000000000000000240e-05,-5.999999999999999474e-05,4.000000000000000327e-05,5.000000000000000240e-05,1.000000000000000082e-05,2.999999999999999737e-05,2.999999999999999737e-05,5.000000000000000000e+00,2.100000000000000000e+01
5.874200000000000000e+04,-2.000000000000000164e-05,-5.000000000000000240e-05,-5.999999999999999474e-05,4.000000000000000327e-05,5.000000000000000240e-05,1.000000000000000082e-05,2.999999999999999737e-05,2.999999999999999737e-05,5.000000000000000000e+00,2.100000000000000000e+01
5.874300000000000000e+04,-2.000000000000000164e-05,-5.000000000000000240e-05,-5.999999999999999474e-05,4.000000000000000327e-05,5.000000000000000240e-05,1.000000000000000082e-05,2.999999999999999737e-05,2.999999999999999737e-05,5.000000000000000000e+00,2.100000000000000000e+01
5.874400000000000000e+04,-2.000000000000000164e-05,-5.000000000000000240e-05,-5.999999999999999474e-05,4.000000000000000327e-05,5.000000000000000240e-05,1.000000000000000082e-05,2.999999999999999737e-05,2.999999999999999737e-05,5.000000000000000000e+00,2.100000000000000000e+01
5.874500000000000000e+04,2.999999999999999737e-05,5.000000000000000240e-05,8.000000000000000654e-05,1.100000000000000039e-04,1.100000000000000039e-04,-1.000000000000000048e-04,-2.999999999999999737e-05,-1.000000000000000082e-05,5.000000000000000000e+00,2.100000000000000000e+01
5.874600000000000000e+04,2.999999999999999737e-05,5.000000000000000240e-05,8.000000000000000654e-05,1.100000000000000039e-04,1.100000000000000039e-04,-1.000000000000000048e-04,-2.999999999999999737e-05,-1.000000000000000082e-05,5.000000000000000000e+00,2.100000000000000000e+01
5.874700000000000000e+04,2.999999999999999737e-05,5.000000000000000240e-05,8.000000000000000654e-05,1.100000000000000039e-04,1.100000000000000039e-04,-1.000000000000000048e-04,-2.999999999999999737e-05,-1.000000000000000082e-05,5.000000000000000000e+00,2.100000000000000000e+01
5.874800000000000000e+04,2.999999999999999737e-05,5.000000000000000240e-05,8.000000000000000654e-05,1.100000000000000039e-04,1.100000000000000039e-04,-1.000000000000000048e-04,-2.999999999999999737e-05,-1.000000000000000082e-05,5.000000000000000000e+00,2.100000000000000000e+01
5.874900000000000000e+04,2.999999999999999737e-05,5.000000000000000240e-05,8.000000000000000654e-05,1.100000000000000039e-04,1.100000000000000039e-04,-1.000000000000000048e-04,-2.999999999999999737e-05,-1.000000000000000082e-05,5.000000000000000000e+00,2.100000000000000000e+01
5.875000000000000000e+04,2.999999999999999737e-05,5.000000000000000240e-05,8.000000000000000654e-05,1.100000000000000039e-04,1.100000000000000039e-04,-1.000000000000000048e-04,-2.999999999999999737e-05,-1.000000000000000082e-05,5.000000000000000000e+00,2.100000000000000000e+01
5.875100000000000000e+04,2.999999999999999737e-05,5.000000000000000240e-05,8.000000000000000654e-05,1.100000000000000039e-04,1.100000000000000039e-04,-1.000000000000000048e-04,-2.999999999999999737e-05,-1.000000000000000082e-05,5.000000000000000000e+00,2.100000000000000000e+01
5.875200000000000000e+04,2.999999999999999737e-05,5.000000000000000240e-05,8.000000000000000654e-05,1.100000000000000039e-04,1.100000000000000039e-04,-1.000000000000000048e-04,-2.999999999999999737e-05,-1.000000000000000082e-05,5.000000000000000000e+00,2.100000000000000000e+01
5.875300000000000000e+04,2.999999999999999737e-05,5.000000000000000240e-05,8.000000000000000654e-05,1.100000000000000039e-04,1.100000000000000039e-04,-1.000000000000000048e-04,-2.999999999999999737e-05,-1.000000000000000082e-05,5.000000000000000000e+00,2.100000000000000000e+01
5.875400000000000000e+04,2.999999999999999737e-05,5.000000000000000240e-05,8.000000000000000654e-05,1.100000000000000039e-04,1.100000000000000039e-04,-1.000000000000000048e-04,-2.999999999999999737e-05,-1.000000000000000082e-05,5.000000000000000000e+00,2.100000000000000000e+01
5.875500000000000000e+04,2.999999999999999737e-05,5.000000000000000240e-05,8.000000000000000654e-05,1.100000000000000039e-04,1.100000000000000039e-04,-1.000000000000000048e-04,-2.999999999999999737e-05,-1.000000000000000082e-05,5.000000000000000000e+00,2.100000000000000000e+01
5.875600000000000000e+04,2.999999999999999737e-05,5.000000000000000240e-05,8.000000000000000654e-05,1.100000000000000039e-04,1.100000000000000039e-04,-1.000000000000000048e-04,-2.999999999999999737e-05,-1.000000000000000082e-05,5.000000000000000000e+00,2.100000000000000000e+01
5.875700000000000000e+04,2.999999999999999737e-05,5.000000000000000240e-05,8.000000000000000654e-05,1.100000000000000039e-04,1.100000000000000039e-04,-1.000000000000000048e-04,-2.999999999999999737e-05,-1.000000000000000082e-05,5.000000000000000000e+00,2.100000000000000000e+01
5.875800000000000000e+04,2.999999999999999737e-05,5.000000000000000240e-05,8.000000000000000654e-05,1.100000000000000039e-04,1.100000000000000039e-04,-1.000000000000000048e-04,-2.999999999999999737e-05,-1.000000000000000082e-05,5.000000000000000000e+00,2.100000000000000000e+01
5.875900000000000000e+04,2.999999999999999737e-05,5.000000000000000240e-05,8.000000000000000654e-05,1.100000000000000039e-04,1.100000000000000039e-04,-1.000000000000000048e-04,-2.999999999999999737e-05,-1.000000000000000082e-05,5.000000000000000000e+00,2.100000000000000000e+01
5.876000000000000000e+04,2.999999999999999737e-05,5.000000000000000240e-05,8.000000000000000654e-05,1.100000000000000039e-04,1.100000000000000039e-04,-1.000000000000000048e-04,-2.999999999999999737e-05,-1.000000000000000082e-05,5.000000000000000000e+00,2.100000000000000000e+01
5.876100000000000000e+04,2.999999999999999737e-05,5.000000000000000240e-05,8.000000000000000654e-05,1.100000000000000039e-04,1.100000000000000039e-04,-1.000000000000000048e-04,-2.999999999999999737e-05,-1.000000000000000082e-05,5.000000000000000000e+00,2.100000000000000000e+01
5.876200000000000000e+04,2.999999999999999737e-05,5.000000000000000240e-05,8.000000000000000654e-05,1.100000000000000039e-04,1.100000000000000039e-04,-1.000000000000000048e-04,-2.999999999999999737e-05,-1.000000000000000082e-05,5.000000000000000000e+00,2.100000000000000000e+01
5.876300000000000000e+04,2.999999999999999737e-05,5.000000000000000240e-05,8.000000000000000654e-05,1.100000000000000039e-04,1.100000000000000039e-04,-1.000000000000000048e-04,-2.999999999999999737e-05,-1.000000000000000082e-05,5.000000000000000000e+00,2.100000000000000000e+01
5.876400000000000000e+04,2.999999999999999737e-05,5.000000000000000240e-05,8.000000000000000654e-05,1.100000000000000039e-04,1.100000000000000039e-04,-1.000000000000000048e-04,-2.999999999999999737e-05,-1.000000000000000082e-05,5.000000000000000000e+00,2.100000000000000000e+01
5.876500000000000000e+04,2.999999999999999737e-05,5.000000000000000240e-05,8.000000000000000654e-05,1.100000000000000039e-04,1.100000000000000039e-04,-1.000000000000000048e-04,-2.999999999999999737e-05,-1.000000000000000082e-05,5.000000000000000000e+00,2.100000000000000000e+01
5.876600000000000000e+04,2.999999999999999737e-05,5.000000000000000240e-05,8.000000000000000654e-05,1.100000000000000039e-04,1.100000000000000039e-04,-1.000000000000000048e-04,-2.999999999999999737e-05,-1.000000000000000082e-05,5.000000000000000000e+00,2.100000000000000000e+01
5.876700000000000000e+04,2.999999999999999737e-05,5.000000000000000240e-05,8.000000000000000654e-05,1.100000000000000039e-04,1.100000000000000039e-04,-1.000000000000000048e-04,-2.999999999999999737e-05,-1.000000000000000082e-05,5.000000000000000000e+00,2.100000000000000000e+01
5.876800000000000000e+04,2.999999999999999737e-05,5.000000000000000240e-05,8.000000000000000654e-05,1.100000000000000039e-04,1.100000000000000039e-04,-1.000000000000000048e-04,-2.999999999999999737e-05,-1.000000000000000082e-05,5.000000000000000000e+00,2.100000000000000000e+01
5.876900000000000000e+04,2.999999999999999737e-05,5.000000000000000240e-05,8.000000000000000654e-05,1.100000000000000039e-04,1.100000000000000039e-04,-1.000000000000000048e-04,-2.999999999999999737e-05,-1.000000000000000082e-05,5.000000000000000000e+00,2.100000000000000000e+01
5.877000000000000000e+04,2.999999999999999737e-05,5.000000000000000240e-05,8.000000000000000654e-05,1.100000000000000039e-04,1.100000000000000039e-04,-1.000000000000000048e-04,-2.999999999999999737e-05,-1.000000000000000082e-05,5.000000000000000000e+00,2.100000000000000000e+01
5.877100000000000000e+04,2.999999999999999737e-05,5.000000000000000240e-05,8.000000000000000654e-05,1.100000000000000039e-04,1.100000000000000039e-04,-1.000000000000000048e-04,-2.999999999999999737e-05,-1.000000000000000082e-05,5.000000000000000000e+00,2.100000000000000000e+01
5.877200000000000000e+04,2.999999999999999737e-05,5.000000000000000240e-05,8.000000000000000654e-05,1.100000000000000039e-04,1.100000000000000039e-04,-1.000000000000000048e-04,-2.999999999999999737e-05,-1.000000000000000082e-05,5.000000000000000000e+00,2.100000000000000000e+01
5.877300000000000000e+04,2.999999999999999737e-05,5.000000000000000240e-05,8.000000000000000654e-05,1.100000000000000039e-04,1.100000000000000039e-04,-1.000000000000000048e-04,-2.999999999999999737e-05,-1.000000000000000082e-05,5.000000000000000000e+00,2.100000000000000000e+01
5.877400000000000000e+04,2.999999999999999737e-05,5.000000000000000240e-05,8.000000000000000654e-05,1.100000000000000039e-04,1.100000000000000039e-04,-1.000000000000000048e-04,-2.999999999999999737e-05,-1.000000000000000082e-05,5.000000000000000000e+00,2.100000000000000000e+01
5.877500000000000000e+04,2.999999999999999737e-05,5.000000000000000240e-05,8.000000000000000654e-05,1.100000000000000039e-04,1.100000000000000039e-04,-1.000000000000000048e-04,-2.999999999999999737e-05,-1.000000000000000082e-05,5.000000000000000000e+00,2.100000000000000000e+01
5.877600000000000000e+04,2.999999999999999737e-05,5.000000000000000240e-05,8.000000000000000654e-05,1.100000000000000039e-04,1.100000000000000039e-04,-1.000000000000000048e-04,-2.999999999999999737e-05,-1.000000000000000082e-05,5.000000000000000000e+00,2.100000000000000000e+01
5.877700000000000000e+04,-4.000000000000000327e-05,-5.000000000000000240e-05,1.000000000000000082e-05,2.299999999999999799e-04,5.900000000000000296e-04,1.100000000000000039e-04,-5.000000000000000240e-05,-4.000000000000000327e-05,5.000000000000000000e+00,2.100000000000000000e+01
5.877800000000000000e+04,-4.000000000000000327e-05,-5.000000000000000240e-05,1.000000000000000082e-05,2.299999999999999799e-04,5.900000000000000296e-04,1.100000000000000039e-04,-5.000000000000000240e-05,-4.000000000000000327e-05,5.000000000000000000e+00,2.100000000000000000e+01
5.877900000000000000e+04,-6.999999999999999387e-05,-5.000000000000000240e-05,-5.000000000000000240e-05,-1.000000000000000048e-04,-3.099999999999999999e-04,-1.300000000000000157e-04,-2.999999999999999737e-05,-5.000000000000000240e-05,5.000000000000000000e+00,2.100000000000000000e+01
5.878000000000000000e+04,-6.999999999999999387e-05,-5.000000000000000240e-05,-5.000000000000000240e-05,-1.000000000000000048e-04,-3.099999999999999999e-04,-1.300000000000000157e-04,-2.999999999999999737e-05,-5.000000000000000240e-05,5.000000000000000000e+00,2.100000000000000000e+01
5.878100000000000000e+04,-6.999999999999999387e-05,-5.000000000000000240e-05,-5.000000000000000240e-05,-1.000000000000000048e-04,-3.099999999999999999e-04,-1.300000000000000157e-04,-2.999999999999999737e-05,-5.000000000000000240e-05,5.000000000000000000e+00,2.100000000000000000e+01
5.878200000000000000e+04,-6.999999999999999387e-05,-5.000000000000000240e-05,-5.000000000000000240e-05,-1.000000000000000048e-04,-3.099999999999999999e-04,-1.300000000000000157e-04,-2.999999999999999737e-05,-5.000000000000000240e-05,5.000000000000000000e+00,2.100000000000000000e+01
5.878300000000000000e+04,-6.999999999999999387e-05,-5.000000000000000240e-05,-5.000000000000000240e-05,-1.000000000000000048e-04,-3.099999999999999999e-04,-1.300000000000000157e-04,-2.999999999999999737e-05,-5.000000000000000240e-05,5.000000000000000000e+00,2.100000000000000000e+01
5.878400000000000000e+04,5.000000000000000240e-05,1.100000000000000039e-04,5.999999999999999474e-05,-1.100000000000000039e-04,-2.299999999999999799e-04,-1.699999999999999851e-04,1.000000000000000082e-05,4.000000000000000327e-05,5.000000000000000000e+00,2.100000000000000000e+01
5.878500000000000000e+04,-8.000000000000000654e-05,-8.000000000000000654e-05,-2.399999999999999790e-04,-2.299999999999999799e-04,-3.200000000000000262e-04,-5.000000000000000240e-05,-9.000000000000000567e-05,-5.000000000000000240e-05,5.000000000000000000e+00,2.100000000000000000e+01
5.878600000000000000e+04,-2.000000000000000164e-05,0.000000000000000000e+00,-2.999999999999999737e-05,5.000000000000000240e-05,-2.399999999999999790e-04,-1.499999999999999869e-04,1.000000000000000082e-05,-1.000000000000000082e-05,5.000000000000000000e+00,2.100000000000000000e+01
5.878800000000000000e+04,-2.000000000000000164e-05,0.000000000000000000e+00,-2.999999999999999737e-05,5.000000000000000240e-05,-2.399999999999999790e-04,-1.499999999999999869e-04,1.000000000000000082e-05,-1.000000000000000082e-05,5.000000000000000000e+00,2.100000000000000000e+01
5.878900000000000000e+04,-2.000000000000000164e-05,0.000000000000000000e+00,-2.999999999999999737e-05,5.000000000000000240e-05,-2.399999999999999790e-04,-1.499999999999999869e-04,1.000000000000000082e-05,-1.000000000000000082e-05,5.000000000000000000e+00,2.100000000000000000e+01
5.879000000000000000e+04,-2.000000000000000164e-05,0.000000000000000000e+00,-2.999999999999999737e-05,5.000000000000000240e-05,-2.399999999999999790e-04,-1.499999999999999869e-04,1.000000000000000082e-05,-1.000000000000000082e-05,5.000000000000000000e+00,2.100000000000000000e+01
5.879100000000000000e+04,-2.000000000000000164e-05,0.000000000000000000e+00,-2.999999999999999737e-05,5.000000000000000240e-05,-2.399999999999999790e-04,-1.499999999999999869e-04,1.000000000000000082e-05,-1.000000000000000082e-05,5.000000000000000000e+00,2.100000000000000000e+01
5.879200000000000000e+04,-2.000000000000000164e-05,0.000000000000000000e+00,-2.999999999999999737e-05,5.000000000000000240e-05,-2.399999999999999790e-04,-1.499999999999999869e-04,1.000000000000000082e-05,-1.000000000000000082e-05,5.000000000000000000e+00,2.100000000000000000e+01
5.879300000000000000e+04,-2.000000000000000164e-05,0.000000000000000000e+00,-2.999999999999999737e-05,5.000000000000000240e-05,-2.399999999999999790e-04,-1.499999999999999869e-04,1.000000000000000082e-05,-1.000000000000000082e-05,5.000000000000000000e+00,2.100000000000000000e+01
5.879400000000000000e+04,-2.000000000000000164e-05,0.000000000000000000e+00,-2.999999999999999737e-05,5.000000000000000240e-05,-2.399999999999999790e-04,-1.499999999999999869e-04,1.000000000000000082e-05,-1.000000000000000082e-05,5.000000000000000000e+00,2.100000000000000000e+01
5.879500000000000000e+04,-2.000000000000000164e-05,0.000000000000000000e+00,-2.999999999999999737e-05,5.000000000000000240e-05,-2.399999999999999790e-04,-1.499999999999999869e-04,1.000000000000000082e-05,-1.000000000000000082e-05,5.000000000000000000e+00,2.100000000000000000e+01
5.879600000000000000e+04,-2.000000000000000164e-05,0.000000000000000000e+00,-2.999999999999999737e-05,5.000000000000000240e-05,-2.399999999999999790e-04,-1.499999999999999869e-04,1.000000000000000082e-05,-1.000000000000000082e-05,5.000000000000000000e+00,2.100000000000000000e+01
5.879700000000000000e+04,-2.000000000000000164e-05,0.000000000000000000e+00,-2.999999999999999737e-05,5.000000000000000240e-05,-2.399999999999999790e-04,-1.499999999999999869e-04,1.000000000000000082e-05,-1.000000000000000082e-05,5.000000000000000000e+00,2.100000000000000000e+01
5.879800000000000000e+04,0.000000000000000000e+00,1.000000000000000082e-05,1.000000000000000048e-04,6.999999999999999387e-05,-2.000000000000000096e-04,2.000000000000000164e-05,1.100000000000000039e-04,5.999999999999999474e-05,5.000000000000000000e+00,2.100000000000000000e+01
5.879900000000000000e+04,0.000000000000000000e+00,1.000000000000000082e-05,1.000000000000000048e-04,6.999999999999999387e-05,-2.000000000000000096e-04,2.000000000000000164e-05,1.100000000000000039e-04,5.999999999999999474e-05,5.000000000000000000e+00,2.100000000000000000e+01
5.880000000000000000e+04,0.000000000000000000e+00,1.000000000000000082e-05,1.000000000000000048e-04,6.999999999999999387e-05,-2.000000000000000096e-04,2.000000000000000164e-05,1.100000000000000039e-04,5.999999999999999474e-05,5.000000000000000000e+00,2.100000000000000000e+01
5.880100000000000000e+04,0.000000000000000000e+00,1.000000000000000082e-05,1.000000000000000048e-04,6.999999999999999387e-05,-2.000000000000000096e-04,2.000000000000000164e-05,1.100000000000000039e-04,5.999999999999999474e-05,5.000000000000000000e+00,2.100000000000000000e+01
5.880200000000000000e+04,0.000000000000000000e+00,1.000000000000000082e-05,1.000000000000000048e-04,6.999999999999999387e-05,-2.000000000000000096e-04,2.000000000000000164e-05,1.100000000000000039e-04,5.999999999999999474e-05,5.000000000000000000e+00,2.100000000000000000e+01
5.880300000000000000e+04,0.000000000000000000e+00,1.000000000000000082e-05,1.000000000000000048e-04,6.999999999999999387e-05,-2.000000000000000096e-04,2.000000000000000164e-05,1.100000000000000039e-04,5.999999999999999474e-05,5.000000000000000000e+00,2.100000000000000000e+01
5.880400000000000000e+04,0.000000000000000000e+00,1.000000000000000082e-05,1.000000000000000048e-04,6.999999999999999387e-05,-2.000000000000000096e-04,2.000000000000000164e-05,1.100000000000000039e-04,5.999999999999999474e-05,5.000000000000000000e+00,2.100000000000000000e+01
5.880500000000000000e+04,0.000000000000000000e+00,1.000000000000000082e-05,1.000000000000000048e-04,6.999999999999999387e-05,-2.000000000000000096e-04,2.000000000000000164e-05,1.100000000000000039e-04,5.999999999999999474e-05,5.000000000000000000e+00,2.100000000000000000e+01
5.880600000000000000e+04,0.000000000000000000e+00,1.000000000000000082e-05,1.000000000000000048e-04,6.999999999999999387e-05,-2.000000000000000096e-04,2.000000000000000164e-05,1.100000000000000039e-04,5.999999999999999474e-05,5.000000000000000000e+00,2.100000000000000000e+01
5.880700000000000000e+04,0.000000000000000000e+00,1.000000000000000082e-05,1.000000000000000048e-04,6.999999999999999387e-05,-2.000000000000000096e-04,2.000000000000000164e-05,1.100000000000000039e-04,5.999999999999999474e-05,5.000000000000000000e+00,2.100000000000000000e+01
5.880800000000000000e+04,0.000000000000000000e+00,1.000000000000000082e-05,1.000000000000000048e-04,6.999999999999999387e-05,-2.000000000000000096e-04,2.000000000000000164e-05,1.100000000000000039e-04,5.999999999999999474e-05,5.000000000000000000e+00,2.100000000000000000e+01
5.880900000000000000e+04,0.000000000000000000e+00,1.000000000000000082e-05,1.000000000000000048e-04,6.999999999999999387e-05,-2.000000000000000096e-04,2.000000000000000164e-05,1.100000000000000039e-04,5.999999999999999474e-05,5.000000000000000000e+00,2.100000000000000000e+01
5.881000000000000000e+04,0.000000000000000000e+00,1.000000000000000082e-05,1.000000000000000048e-04,6.999999999999999387e-05,-2.000000000000000096e-04,2.000000000000000164e-05,1.100000000000000039e-04,5.999999999999999474e-05,5.000000000000000000e+00,2.100000000000000000e+01
5.881100000000000000e+04,0.000000000000000000e+00,1.000000000000000082e-05,1.000000000000000048e-04,6.999999999999999387e-05,-2.000000000000000096e-04,2.000000000000000164e-05,1.100000000000000039e-04,5.999999999999999474e-05,5.000000000000000000e+00,2.100000000000000000e+01
5.881200000000000000e+04,0.000000000000000000e+00,1.000000000000000082e-05,1.000000000000000048e-04,6.999999999999999387e-05,-2.000000000000000096e-04,2.000000000000000164e-05,1.100000000000000039e-04,5.999999999999999474e-05,5.000000000000000000e+00,2.100000000000000000e+01
5.881300000000000000e+04,0.000000000000000000e+00,1.000000000000000082e-05,1.000000000000000048e-04,6.999999999999999387e-05,-2.000000000000000096e-04,2.000000000000000164e-05,1.100000000000000039e-04,5.999999999999999474e-05,5.000000000000000000e+00,2.100000000000000000e+01
5.881400000000000000e+04,0.000000000000000000e+00,1.000000000000000082e-05,1.000000000000000048e-04,6.999999999999999387e-05,-2.000000000000000096e-04,2.000000000000000164e-05,1.100000000000000039e-04,5.999999999999999474e-05,5.000000000000000000e+00,2.100000000000000000e+01
5.881500000000000000e+04,0.000000000000000000e+00,1.000000000000000082e-05,1.000000000000000048e-04,6.999999999999999387e-05,-2.000000000000000096e-04,2.000000000000000164e-05,1.100000000000000039e-04,5.999999999999999474e-05,5.000000000000000000e+00,2.100000000000000000e+01
5.881600000000000000e+04,0.000000000000000000e+00,1.000000000000000082e-05,1.000000000000000048e-04,6.999999999999999387e-05,-2.000000000000000096e-04,2.000000000000000164e-05,1.100000000000000039e-04,5.999999999999999474e-05,5.000000000000000000e+00,2.100000000000000000e+01
5.881700000000000000e+04,0.000000000000000000e+00,1.000000000000000082e-05,1.000000000000000048e-04,6.999999999999999387e-05,-2.000000000000000096e-04,2.000000000000000164e-05,1.100000000000000039e-04,5.999999999999999474e-05,5.000000000000000000e+00,2.100000000000000000e+01
5.881800000000000000e+04,0.000000000000000000e+00,1.000000000000000082e-05,1.000000000000000048e-04,6.999999999999999387e-05,-2.000000000000000096e-04,2.000000000000000164e-05,1.100000000000000039e-04,5.999999999999999474e-05,5.000000000000000000e+00,2.100000000000000000e+01
5.881900000000000000e+04,0.000000000000000000e+00,1.000000000000000082e-05,1.000000000000000048e-04,6.999999999999999387e-05,-2.000000000000000096e-04,2.000000000000000164e-05,1.100000000000000039e-04,5.999999999999999474e-05,5.000000000000000000e+00,2.100000000000000000e+01
5.882000000000000000e+04,0.000000000000000000e+00,1.000000000000000082e-05,1.000000000000000048e-04,6.999999999999999387e-05,-2.000000000000000096e-04,2.000000000000000164e-05,1.100000000000000039e-04,5.999999999999999474e-05,5.000000000000000000e+00,2.100000000000000000e+01
5.882100000000000000e+04,0.000000000000000000e+00,1.000000000000000082e-05,1.000000000000000048e-04,6.999999999999999387e-05,-2.000000000000000096e-04,2.000000000000000164e-05,1.100000000000000039e-04,5.999999999999999474e-05,5.000000000000000000e+00,2.100000000000000000e+01
