5.240000000000000000e+03,-1.000000000000000082e-05,4.000000000000000327e-05,9.000000000000000567e-05,1.000000000000000048e-04,-2.000000000000000164e-05,-1.000000000000000082e-05,-1.000000000000000082e-05,-1.000000000000000082e-05,2.000000000000000000e+00,3.000000000000000000e+00
5.241000000000000000e+03,-1.000000000000000082e-05,4.000000000000000327e-05,9.000000000000000567e-05,1.000000000000000048e-04,-2.000000000000000164e-05,-1.000000000000000082e-05,-1.000000000000000082e-05,-1.000000000000000082e-05,2.000000000000000000e+00,3.000000000000000000e+00
5.242000000000000000e+03,-2.000000000000000164e-05,1.000000000000000082e-05,1.000000000000000082e-05,-2.000000000000000164e-05,0.000000000000000000e+00,1.300000000000000157e-04,4.000000000000000327e-05,1.000000000000000082e-05,2.000000000000000000e+00,3.000000000000000000e+00
5.243000000000000000e+03,-4.000000000000000327e-05,-5.999999999999999474e-05,-4.000000000000000327e-05,-4.000000000000000327e-05,-5.999999999999999474e-05,-1.300000000000000157e-04,-6.999999999999999387e-05,-6.999999999999999387e-05,2.000000000000000000e+00,3.000000000000000000e+00
5.244000000000000000e+03,-4.000000000000000327e-05,-5.999999999999999474e-05,-4.000000000000000327e-05,-4.000000000000000327e-05,-5.999999999999999474e-05,-1.300000000000000157e-04,-6.999999999999999387e-05,-6.999999999999999387e-05,2.000000000000000000e+00,3.000000000000000000e+00
5.245000000000000000e+03,-4.000000000000000327e-05,-5.999999999999999474e-05,-4.000000000000000327e-05,-4.000000000000000327e-05,-5.999999999999999474e-05,-1.300000000000000157e-04,-6.999999999999999387e-05,-6.999999999999999387e-05,2.000000000000000000e+00,3.000000000000000000e+00
5.246000000000000000e+03,-4.000000000000000327e-05,-5.999999999999999474e-05,-4.000000000000000327e-05,-4.000000000000000327e-05,-5.999999999999999474e-05,-1.300000000000000157e-04,-6.999999999999999387e-05,-6.999999999999999387e-05,2.000000000000000000e+00,3.000000000000000000e+00
5.247000000000000000e+03,-4.000000000000000327e-05,-5.999999999999999474e-05,-4.000000000000000327e-05,-4.000000000000000327e-05,-5.999999999999999474e-05,-1.300000000000000157e-04,-6.999999999999999387e-05,-6.999999999999999387e-05,2.000000000000000000e+00,3.000000000000000000e+00
5.248000000000000000e+03,-4.000000000000000327e-05,-5.999999999999999474e-05,-4.000000000000000327e-05,-4.000000000000000327e-05,-5.999999999999999474e-05,-1.300000000000000157e-04,-6.999999999999999387e-05,-6.999999999999999387e-05,2.000000000000000000e+00,3.000000000000000000e+00
5.249000000000000000e+03,-4.000000000000000327e-05,-5.999999999999999474e-05,-4.000000000000000327e-05,-4.000000000000000327e-05,-5.999999999999999474e-05,-1.300000000000000157e-04,-6.999999999999999387e-05,-6.999999999999999387e-05,2.000000000000000000e+00,3.000000000000000000e+00
5.250000000000000000e+03,-4.000000000000000327e-05,-5.999999999999999474e-05,-4.000000000000000327e-05,-4.000000000000000327e-05,-5.999999999999999474e-05,-1.300000000000000157e-04,-6.999999999999999387e-05,-6.999999999999999387e-05,2.000000000000000000e+00,3.000000000000000000e+00
5.251000000000000000e+03,-1.000000000000000082e-05,-2.999999999999999737e-05,-1.000000000000000082e-05,-1.000000000000000082e-05,-6.999999999999999387e-05,-8.000000000000000654e-05,-1.600000000000000131e-04,-2.000000000000000164e-05,2.000000000000000000e+00,3.000000000000000000e+00
5.252000000000000000e+03,-1.000000000000000082e-05,-2.999999999999999737e-05,-1.000000000000000082e-05,-1.000000000000000082e-05,-6.999999999999999387e-05,-8.000000000000000654e-05,-1.600000000000000131e-04,-2.000000000000000164e-05,2.000000000000000000e+00,3.000000000000000000e+00
5.253000000000000000e+03,-1.000000000000000082e-05,-2.999999999999999737e-05,-1.000000000000000082e-05,-1.000000000000000082e-05,-6.999999999999999387e-05,-8.000000000000000654e-05,-1.600000000000000131e-04,-2.000000000000000164e-05,2.000000000000000000e+00,3.000000000000000000e+00
5.254000000000000000e+03,-1.000000000000000082e-05,-2.999999999999999737e-05,-1.000000000000000082e-05,-1.000000000000000082e-05,-6.999999999999999387e-05,-8.000000000000000654e-05,-1.600000000000000131e-04,-2.000000000000000164e-05,2.000000000000000000e+00,3.000000000000000000e+00
5.255000000000000000e+03,-1.000000000000000082e-05,-2.999999999999999737e-05,-1.000000000000000082e-05,-1.000000000000000082e-05,-6.999999999999999387e-05,-8.000000000000000654e-05,-1.600000000000000131e-04,-2.000000000000000164e-05,2.000000000000000000e+00,3.000000000000000000e+00
5.256000000000000000e+03,-1.000000000000000082e-05,-2.999999999999999737e-05,-1.000000000000000082e-05,-1.000000000000000082e-05,-6.999999999999999387e-05,-8.000000000000000654e-05,-1.600000000000000131e-04,-2.000000000000000164e-05,2.000000000000000000e+00,3.000000000000000000e+00
5.257000000000000000e+03,-1.000000000000000082e-05,-2.999999999999999737e-05,-1.000000000000000082e-05,-1.000000000000000082e-05,-6.999999999999999387e-05,-8.000000000000000654e-05,-1.600000000000000131e-04,-2.000000000000000164e-05,2.000000000000000000e+00,3.000000000000000000e+00
5.258000000000000000e+03,-1.000000000000000082e-05,-2.999999999999999737e-05,-1.000000000000000082e-05,-1.000000000000000082e-05,-6.999999999999999387e-05,-8.000000000000000654e-05,-1.600000000000000131e-04,-2.000000000000000164e-05,2.000000000000000000e+00,3.000000000000000000e+00
5.259000000000000000e+03,-1.000000000000000082e-05,-2.999999999999999737e-05,-1.000000000000000082e-05,-1.000000000000000082e-05,-6.999999999999999387e-05,-8.000000000000000654e-05,-1.600000000000000131e-04,-2.000000000000000164e-05,2.000000000000000000e+00,3.000000000000000000e+00
5.260000000000000000e+03,-1.000000000000000082e-05,-2.999999999999999737e-05,-1.000000000000000082e-05,-1.000000000000000082e-05,-6.999999999999999387e-05,-8.000000000000000654e-05,-1.600000000000000131e-04,-2.000000000000000164e-05,2.000000000000000000e+00,3.000000000000000000e+00
5.261000000000000000e+03,-1.000000000000000082e-05,-2.999999999999999737e-05,-1.000000000000000082e-05,-1.000000000000000082e-05,-6.999999999999999387e-05,-8.000000000000000654e-05,-1.600000000000000131e-04,-2.000000000000000164e-05,2.000000000000000000e+00,3.000000000000000000e+00
5.262000000000000000e+03,-1.000000000000000082e-05,-2.999999999999999737e-05,-1.000000000000000082e-05,-1.000000000000000082e-05,-6.999999999999999387e-05,-8.000000000000000654e-05,-1.600000000000000131e-04,-2.000000000000000164e-05,2.000000000000000000e+00,3.000000000000000000e+00
5.263000000000000000e+03,-1.000000000000000082e-05,-2.999999999999999737e-05,-1.000000000000000082e-05,-1.000000000000000082e-05,-6.999999999999999387e-05,-8.000000000000000654e-05,-1.600000000000000131e-04,-2.000000000000000164e-05,2.000000000000000000e+00,3.000000000000000000e+00
5.264000000000000000e+03,-1.000000000000000082e-05,-2.999999999999999737e-05,-1.000000000000000082e-05,-1.000000000000000082e-05,-6.999999999999999387e-05,-8.000000000000000654e-05,-1.600000000000000131e-04,-2.000000000000000164e-05,2.000000000000000000e+00,3.000000000000000000e+00
5.265000000000000000e+03,-1.000000000000000082e-05,-2.999999999999999737e-05,-1.000000000000000082e-05,-1.000000000000000082e-05,-6.999999999999999387e-05,-8.000000000000000654e-05,-1.600000000000000131e-04,-2.000000000000000164e-05,2.000000000000000000e+00,3.000000000000000000e+00
5.266000000000000000e+03,0.000000000000000000e+00,0.000000000000000000e+00,2.000000000000000164e-05,5.999999999999999474e-05,1.000000000000000082e-05,2.999999999999999737e-05,8.000000000000000654e-05,-1.000000000000000082e-05,2.000000000000000000e+00,3.000000000000000000e+00
5.267000000000000000e+03,0.000000000000000000e+00,0.000000000000000000e+00,2.000000000000000164e-05,5.999999999999999474e-05,1.000000000000000082e-05,2.999999999999999737e-05,8.000000000000000654e-05,-1.000000000000000082e-05,2.000000000000000000e+00,3.000000000000000000e+00
5.268000000000000000e+03,-2.000000000000000164e-05,-2.999999999999999737e-05,-4.000000000000000327e-05,2.999999999999999737e-05,1.000000000000000082e-05,-4.000000000000000327e-05,-9.000000000000000567e-05,-4.000000000000000327e-05,2.000000000000000000e+00,3.000000000000000000e+00
5.269000000000000000e+03,-2.000000000000000164e-05,-2.999999999999999737e-05,-4.000000000000000327e-05,2.999999999999999737e-05,1.000000000000000082e-05,-4.000000000000000327e-05,-9.000000000000000567e-05,-4.000000000000000327e-05,2.000000000000000000e+00,3.000000000000000000e+00
5.270000000000000000e+03,-2.000000000000000164e-05,-2.999999999999999737e-05,-4.000000000000000327e-05,2.999999999999999737e-05,1.000000000000000082e-05,-4.000000000000000327e-05,-9.000000000000000567e-05,-4.000000000000000327e-05,2.000000000000000000e+00,3.000000000000000000e+00
5.271000000000000000e+03,-2.000000000000000164e-05,-2.999999999999999737e-05,-4.000000000000000327e-05,2.999999999999999737e-05,1.000000000000000082e-05,-4.000000000000000327e-05,-9.000000000000000567e-05,-4.000000000000000327e-05,2.000000000000000000e+00,3.000000000000000000e+00
5.272000000000000000e+03,-2.000000000000000164e-05,-2.999999999999999737e-05,-4.000000000000000327e-05,2.999999999999999737e-05,1.000000000000000082e-05,-4.000000000000000327e-05,-9.000000000000000567e-05,-4.000000000000000327e-05,2.000000000000000000e+00,3.000000000000000000e+00
5.273000000000000000e+03,-2.000000000000000164e-05,-2.999999999999999737e-05,-4.000000000000000327e-05,2.999999999999999737e-05,1.000000000000000082e-05,-4.000000000000000327e-05,-9.000000000000000567e-05,-4.000000000000000327e-05,2.000000000000000000e+00,3.000000000000000000e+00
5.274000000000000000e+03,-2.000000000000000164e-05,-2.999999999999999737e-05,-4.000000000000000327e-05,2.999999999999999737e-05,1.000000000000000082e-05,-4.000000000000000327e-05,-9.000000000000000567e-05,-4.000000000000000327e-05,2.000000000000000000e+00,3.000000000000000000e+00
5.275000000000000000e+03,-2.000000000000000164e-05,-2.999999999999999737e-05,-4.000000000000000327e-05,2.999999999999999737e-05,1.000000000000000082e-05,-4.000000000000000327e-05,-9.000000000000000567e-05,-4.000000000000000327e-05,2.000000000000000000e+00,3.000000000000000000e+00
5.276000000000000000e+03,-2.000000000000000164e-05,-2.999999999999999737e-05,-4.000000000000000327e-05,2.999999999999999737e-05,1.000000000000000082e-05,-4.000000000000000327e-05,-9.000000000000000567e-05,-4.000000000000000327e-05,2.000000000000000000e+00,3.000000000000000000e+00
5.277000000000000000e+03,-2.000000000000000164e-05,-2.999999999999999737e-05,-4.000000000000000327e-05,2.999999999999999737e-05,1.000000000000000082e-05,-4.000000000000000327e-05,-9.000000000000000567e-05,-4.000000000000000327e-05,2.000000000000000000e+00,3.000000000000000000e+00
5.278000000000000000e+03,-2.000000000000000164e-05,-2.999999999999999737e-05,-4.000000000000000327e-05,2.999999999999999737e-05,1.000000000000000082e-05,-4.000000000000000327e-05,-9.000000000000000567e-05,-4.000000000000000327e-05,2.000000000000000000e+00,3.000000000000000000e+00
5.279000000000000000e+03,-2.000000000000000164e-05,-2.999999999999999737e-05,-4.000000000000000327e-05,2.999999999999999737e-05,1.000000000000000082e-05,-4.000000000000000327e-05,-9.000000000000000567e-05,-4.000000000000000327e-05,2.000000000000000000e+00,3.000000000000000000e+00
5.280000000000000000e+03,-2.000000000000000164e-05,-2.999999999999999737e-05,-4.000000000000000327e-05,2.999999999999999737e-05,1.000000000000000082e-05,-4.000000000000000327e-05,-9.000000000000000567e-05,-4.000000000000000327e-05,2.000000000000000000e+00,3.000000000000000000e+00
5.281000000000000000e+03,-2.000000000000000164e-05,-2.999999999999999737e-05,-4.000000000000000327e-05,2.999999999999999737e-05,1.000000000000000082e-05,-4.000000000000000327e-05,-9.000000000000000567e-05,-4.000000000000000327e-05,2.000000000000000000e+00,3.000000000000000000e+00
5.282000000000000000e+03,-2.000000000000000164e-05,-2.999999999999999737e-05,-4.000000000000000327e-05,2.999999999999999737e-05,1.000000000000000082e-05,-4.000000000000000327e-05,-9.000000000000000567e-05,-4.000000000000000327e-05,2.000000000000000000e+00,3.000000000000000000e+00
5.283000000000000000e+03,-2.000000000000000164e-05,-2.999999999999999737e-05,-4.000000000000000327e-05,2.999999999999999737e-05,1.000000000000000082e-05,-4.000000000000000327e-05,-9.000000000000000567e-05,-4.000000000000000327e-05,2.000000000000000000e+00,3.000000000000000000e+00
5.284000000000000000e+03,-2.000000000000000164e-05,-2.999999999999999737e-05,-4.000000000000000327e-05,2.999999999999999737e-05,1.000000000000000082e-05,-4.000000000000000327e-05,-9.000000000000000567e-05,-4.000000000000000327e-05,2.000000000000000000e+00,3.000000000000000000e+00
5.285000000000000000e+03,-2.000000000000000164e-05,-2.999999999999999737e-05,-4.000000000000000327e-05,2.999999999999999737e-05,1.000000000000000082e-05,-4.000000000000000327e-05,-9.000000000000000567e-05,-4.000000000000000327e-05,2.000000000000000000e+00,3.000000000000000000e+00
5.286000000000000000e+03,-2.000000000000000164e-05,-2.999999999999999737e-05,-4.000000000000000327e-05,2.999999999999999737e-05,1.000000000000000082e-05,-4.000000000000000327e-05,-9.000000000000000567e-05,-4.000000000000000327e-05,2.000000000000000000e+00,3.000000000000000000e+00
5.288000000000000000e+03,-2.000000000000000164e-05,-2.999999999999999737e-05,-4.000000000000000327e-05,2.999999999999999737e-05,1.000000000000000082e-05,-4.000000000000000327e-05,-9.000000000000000567e-05,-4.000000000000000327e-05,2.000000000000000000e+00,3.000000000000000000e+00
5.289000000000000000e+03,0.000000000000000000e+00,-1.000000000000000082e-05,-1.199999999999999895e-04,-2.399999999999999790e-04,-1.000000000000000082e-05,2.000000000000000164e-05,-9.000000000000000567e-05,-1.000000000000000082e-05,2.000000000000000000e+00,3.000000000000000000e+00
5.290000000000000000e+03,0.000000000000000000e+00,-1.000000000000000082e-05,-1.199999999999999895e-04,-2.399999999999999790e-04,-1.000000000000000082e-05,2.000000000000000164e-05,-9.000000000000000567e-05,-1.000000000000000082e-05,2.000000000000000000e+00,3.000000000000000000e+00
5.291000000000000000e+03,0.000000000000000000e+00,-1.000000000000000082e-05,-1.199999999999999895e-04,-2.399999999999999790e-04,-1.000000000000000082e-05,2.000000000000000164e-05,-9.000000000000000567e-05,-1.000000000000000082e-05,2.000000000000000000e+00,3.000000000000000000e+00
5.292000000000000000e+03,0.000000000000000000e+00,-1.000000000000000082e-05,-1.199999999999999895e-04,-2.399999999999999790e-04,-1.000000000000000082e-05,2.000000000000000164e-05,-9.000000000000000567e-05,-1.000000000000000082e-05,2.000000000000000000e+00,3.000000000000000000e+00
5.293000000000000000e+03,0.000000000000000000e+00,-1.000000000000000082e-05,-1.199999999999999895e-04,-2.399999999999999790e-04,-1.000000000000000082e-05,2.000000000000000164e-05,-9.000000000000000567e-05,-1.000000000000000082e-05,2.000000000000000000e+00,3.000000000000000000e+00
5.294000000000000000e+03,0.000000000000000000e+00,-1.000000000000000082e-05,-1.199999999999999895e-04,-2.399999999999999790e-04,-1.000000000000000082e-05,2.000000000000000164e-05,-9.000000000000000567e-05,-1.000000000000000082e-05,2.000000000000000000e+00,3.000000000000000000e+00
5.295000000000000000e+03,-2.000000000000000164e-05,0.000000000000000000e+00,5.999999999999999474e-05,1.600000000000000131e-04,2.999999999999999737e-05,-1.000000000000000082e-05,-4.000000000000000327e-05,1.000000000000000082e-05,2.000000000000000000e+00,3.000000000000000000e+00
5.296000000000000000e+03,-2.000000000000000164e-05,0.000000000000000000e+00,5.999999999999999474e-05,1.600000000000000131e-04,2.999999999999999737e-05,-1.000000000000000082e-05,-4.000000000000000327e-05,1.000000000000000082e-05,2.000000000000000000e+00,3.000000000000000000e+00
5.297000000000000000e+03,-2.000000000000000164e-05,0.000000000000000000e+00,5.999999999999999474e-05,1.600000000000000131e-04,2.999999999999999737e-05,-1.000000000000000082e-05,-4.000000000000000327e-05,1.000000000000000082e-05,2.000000000000000000e+00,3.000000000000000000e+00
5.298000000000000000e+03,-2.000000000000000164e-05,0.000000000000000000e+00,5.999999999999999474e-05,1.600000000000000131e-04,2.999999999999999737e-05,-1.000000000000000082e-05,-4.000000000000000327e-05,1.000000000000000082e-05,2.000000000000000000e+00,3.000000000000000000e+00
5.299000000000000000e+03,-2.000000000000000164e-05,0.000000000000000000e+00,5.999999999999999474e-05,1.600000000000000131e-04,2.999999999999999737e-05,-1.000000000000000082e-05,-4.000000000000000327e-05,1.000000000000000082e-05,2.000000000000000000e+00,3.000000000000000000e+00
5.300000000000000000e+03,-2.000000000000000164e-05,0.000000000000000000e+00,5.999999999999999474e-05,1.600000000000000131e-04,2.999999999999999737e-05,-1.000000000000000082e-05,-4.000000000000000327e-05,1.000000000000000082e-05,2.000000000000000000e+00,3.000000000000000000e+00
5.301000000000000000e+03,-2.000000000000000164e-05,0.000000000000000000e+00,5.999999999999999474e-05,1.600000000000000131e-04,2.999999999999999737e-05,-1.000000000000000082e-05,-4.000000000000000327e-05,1.000000000000000082e-05,2.000000000000000000e+00,3.000000000000000000e+00
5.302000000000000000e+03,-1.000000000000000082e-05,-2.000000000000000164e-05,-1.699999999999999851e-04,-1.600000000000000131e-04,-2.999999999999999737e-05,0.000000000000000000e+00,2.999999999999999737e-05,0.000000000000000000e+00,2.000000000000000000e+00,3.000000000000000000e+00
5.303000000000000000e+03,-1.000000000000000082e-05,-2.000000000000000164e-05,-1.699999999999999851e-04,-1.600000000000000131e-04,-2.999999999999999737e-05,0.000000000000000000e+00,2.999999999999999737e-05,0.000000000000000000e+00,2.000000000000000000e+00,3.000000000000000000e+00
5.304000000000000000e+03,-1.000000000000000082e-05,-2.000000000000000164e-05,-1.699999999999999851e-04,-1.600000000000000131e-04,-2.999999999999999737e-05,0.000000000000000000e+00,2.999999999999999737e-05,0.000000000000000000e+00,2.000000000000000000e+00,3.000000000000000000e+00
5.305000000000000000e+03,-1.000000000000000082e-05,-2.000000000000000164e-05,-1.699999999999999851e-04,-1.600000000000000131e-04,-2.999999999999999737e-05,0.000000000000000000e+00,2.999999999999999737e-05,0.000000000000000000e+00,2.000000000000000000e+00,3.000000000000000000e+00
5.306000000000000000e+03,-1.000000000000000082e-05,-2.000000000000000164e-05,-1.699999999999999851e-04,-1.600000000000000131e-04,-2.999999999999999737e-05,0.000000000000000000e+00,2.999999999999999737e-05,0.000000000000000000e+00,2.000000000000000000e+00,3.000000000000000000e+00
5.307000000000000000e+03,-1.000000000000000082e-05,-2.000000000000000164e-05,-1.699999999999999851e-04,-1.600000000000000131e-04,-2.999999999999999737e-05,0.000000000000000000e+00,2.999999999999999737e-05,0.000000000000000000e+00,2.000000000000000000e+00,3.000000000000000000e+00
5.308000000000000000e+03,-1.000000000000000082e-05,-2.000000000000000164e-05,-1.699999999999999851e-04,-1.600000000000000131e-04,-2.999999999999999737e-05,0.000000000000000000e+00,2.999999999999999737e-05,0.000000000000000000e+00,2.000000000000000000e+00,3.000000000000000000e+00
5.309000000000000000e+03,-1.000000000000000082e-05,-2.000000000000000164e-05,-1.699999999999999851e-04,-1.600000000000000131e-04,-2.999999999999999737e-05,0.000000000000000000e+00,2.999999999999999737e-05,0.000000000000000000e+00,2.000000000000000000e+00,3.000000000000000000e+00
5.310000000000000000e+03,-1.000000000000000082e-05,-2.000000000000000164e-05,-1.699999999999999851e-04,-1.600000000000000131e-04,-2.999999999999999737e-05,0.000000000000000000e+00,2.999999999999999737e-05,0.000000000000000000e+00,2.000000000000000000e+00,3.000000000000000000e+00
5.311000000000000000e+03,1.000000000000000082e-05,0.000000000000000000e+00,9.000000000000000567e-05,2.000000000000000096e-04,6.999999999999999387e-05,1.499999999999999869e-04,1.300000000000000157e-04,-1.000000000000000082e-05,2.000000000000000000e+00,3.000000000000000000e+00
5.312000000000000000e+03,1.000000000000000082e-05,0.000000000000000000e+00,9.000000000000000567e-05,2.000000000000000096e-04,6.999999999999999387e-05,1.499999999999999869e-04,1.300000000000000157e-04,-1.000000000000000082e-05,2.000000000000000000e+00,3.000000000000000000e+00
5.313000000000000000e+03,1.000000000000000082e-05,0.000000000000000000e+00,9.000000000000000567e-05,2.000000000000000096e-04,6.999999999999999387e-05,1.499999999999999869e-04,1.300000000000000157e-04,-1.000000000000000082e-05,2.000000000000000000e+00,3.000000000000000000e+00
5.314000000000000000e+03,1.000000000000000082e-05,0.000000000000000000e+00,9.000000000000000567e-05,2.000000000000000096e-04,6.999999999999999387e-05,1.499999999999999869e-04,1.300000000000000157e-04,-1.000000000000000082e-05,2.000000000000000000e+00,3.000000000000000000e+00
5.315000000000000000e+03,1.000000000000000082e-05,0.000000000000000000e+00,9.000000000000000567e-05,2.000000000000000096e-04,6.999999999999999387e-05,1.499999999999999869e-04,1.300000000000000157e-04,-1.000000000000000082e-05,2.000000000000000000e+00,3.000000000000000000e+00
5.316000000000000000e+03,1.000000000000000082e-05,0.000000000000000000e+00,9.000000000000000567e-05,2.000000000000000096e-04,6.999999999999999387e-05,1.499999999999999869e-04,1.300000000000000157e-04,-1.000000000000000082e-05,2.000000000000000000e+00,3.000000000000000000e+00
5.317000000000000000e+03,1.000000000000000082e-05,0.000000000000000000e+00,9.000000000000000567e-05,2.000000000000000096e-04,6.999999999999999387e-05,1.499999999999999869e-04,1.300000000000000157e-04,-1.000000000000000082e-05,2.000000000000000000e+00,3.000000000000000000e+00
5.318000000000000000e+03,1.000000000000000082e-05,0.000000000000000000e+00,9.000000000000000567e-05,2.000000000000000096e-04,6.999999999999999387e-05,1.499999999999999869e-04,1.300000000000000157e-04,-1.000000000000000082e-05,2.000000000000000000e+00,3.000000000000000000e+00
5.319000000000000000e+03,1.000000000000000082e-05,0.000000000000000000e+00,9.000000000000000567e-05,2.000000000000000096e-04,6.999999999999999387e-05,1.499999999999999869e-04,1.300000000000000157e-04,-1.000000000000000082e-05,2.000000000000000000e+00,3.000000000000000000e+00
5.320000000000000000e+03,1.000000000000000082e-05,0.000000000000000000e+00,9.000000000000000567e-05,2.000000000000000096e-04,6.999999999999999387e-05,1.499999999999999869e-04,1.300000000000000157e-04,-1.000000000000000082e-05,2.000000000000000000e+00,3.000000000000000000e+00
5.321000000000000000e+03,1.000000000000000082e-05,0.000000000000000000e+00,9.000000000000000567e-05,2.000000000000000096e-04,6.999999999999999387e-05,1.499999999999999869e-04,1.300000000000000157e-04,-1.000000000000000082e-05,2.000000000000000000e+00,3.000000000000000000e+00
5.322000000000000000e+03,1.000000000000000082e-05,0.000000000000000000e+00,9.000000000000000567e-05,2.000000000000000096e-04,6.999999999999999387e-05,1.499999999999999869e-04,1.300000000000000157e-04,-1.000000000000000082e-05,2.000000000000000000e+00,3.000000000000000000e+00
5.323000000000000000e+03,1.000000000000000082e-05,0.000000000000000000e+00,9.000000000000000567e-05,2.000000000000000096e-04,6.999999999999999387e-05,1.499999999999999869e-04,1.300000000000000157e-04,-1.000000000000000082e-05,2.000000000000000000e+00,3.000000000000000000e+00
5.324000000000000000e+03,1.000000000000000082e-05,0.000000000000000000e+00,9.000000000000000567e-05,2.000000000000000096e-04,6.999999999999999387e-05,1.499999999999999869e-04,1.300000000000000157e-04,-1.000000000000000082e-05,2.000000000000000000e+00,3.000000000000000000e+00
5.325000000000000000e+03,1.000000000000000082e-05,0.000000000000000000e+00,9.000000000000000567e-05,2.000000000000000096e-04,6.999999999999999387e-05,1.499999999999999869e-04,1.300000000000000157e-04,-1.000000000000000082e-05,2.000000000000000000e+00,3.000000000000000000e+00
5.326000000000000000e+03,1.000000000000000082e-05,2.000000000000000164e-05,8.000000000000000654e-05,1.100000000000000039e-04,-1.000000000000000082e-05,5.000000000000000240e-05,9.000000000000000567e-05,1.000000000000000082e-05,2.000000000000000000e+00,3.000000000000000000e+00
5.327000000000000000e+03,1.000000000000000082e-05,2.000000000000000164e-05,8.000000000000000654e-05,1.100000000000000039e-04,-1.000000000000000082e-05,5.000000000000000240e-05,9.000000000000000567e-05,1.000000000000000082e-05,2.000000000000000000e+00,3.000000000000000000e+00
5.328000000000000000e+03,1.000000000000000082e-05,-2.000000000000000164e-05,-5.000000000000000240e-05,-1.000000000000000082e-05,-1.000000000000000082e-05,0.000000000000000000e+00,5.999999999999999474e-05,2.999999999999999737e-05,2.000000000000000000e+00,3.000000000000000000e+00
5.329000000000000000e+03,1.000000000000000082e-05,-2.000000000000000164e-05,-5.000000000000000240e-05,-1.000000000000000082e-05,-1.000000000000000082e-05,0.000000000000000000e+00,5.999999999999999474e-05,2.999999999999999737e-05,2.000000000000000000e+00,3.000000000000000000e+00
5.330000000000000000e+03,1.000000000000000082e-05,-2.000000000000000164e-05,-5.000000000000000240e-05,-1.000000000000000082e-05,-1.000000000000000082e-05,0.000000000000000000e+00,5.999999999999999474e-05,2.999999999999999737e-05,2.000000000000000000e+00,3.000000000000000000e+00
5.331000000000000000e+03,1.000000000000000082e-05,-2.000000000000000164e-05,-5.000000000000000240e-05,-1.000000000000000082e-05,-1.000000000000000082e-05,0.000000000000000000e+00,5.999999999999999474e-05,2.999999999999999737e-05,2.000000000000000000e+00,3.000000000000000000e+00
5.332000000000000000e+03,1.000000000000000082e-05,-2.000000000000000164e-05,-5.000000000000000240e-05,-1.000000000000000082e-05,-1.000000000000000082e-05,0.000000000000000000e+00,5.999999999999999474e-05,2.999999999999999737e-05,2.000000000000000000e+00,3.000000000000000000e+00
5.333000000000000000e+03,1.000000000000000082e-05,-2.000000000000000164e-05,-5.000000000000000240e-05,-1.000000000000000082e-05,-1.000000000000000082e-05,0.000000000000000000e+00,5.999999999999999474e-05,2.999999999999999737e-05,2.000000000000000000e+00,3.000000000000000000e+00
5.334000000000000000e+03,1.000000000000000082e-05,-2.000000000000000164e-05,-5.000000000000000240e-05,-1.000000000000000082e-05,-1.000000000000000082e-05,0.000000000000000000e+00,5.999999999999999474e-05,2.999999999999999737e-05,2.000000000000000000e+00,3.000000000000000000e+00
5.335000000000000000e+03,1.000000000000000082e-05,-2.000000000000000164e-05,-5.000000000000000240e-05,-1.000000000000000082e-05,-1.000000000000000082e-05,0.000000000000000000e+00,5.999999999999999474e-05,2.999999999999999737e-05,2.000000000000000000e+00,3.000000000000000000e+00
5.336000000000000000e+03,1.000000000000000082e-05,-2.000000000000000164e-05,-5.000000000000000240e-05,-1.000000000000000082e-05,-1.000000000000000082e-05,0.000000000000000000e+00,5.999999999999999474e-05,2.999999999999999737e-05,2.000000000000000000e+00,3.000000000000000000e+00
5.338000000000000000e+03,1.000000000000000082e-05,-2.000000000000000164e-05,-5.000000000000000240e-05,-1.000000000000000082e-05,-1.000000000000000082e-05,0.000000000000000000e+00,5.999999999999999474e-05,2.999999999999999737e-05,2.000000000000000000e+00,3.000000000000000000e+00
5.339000000000000000e+03,1.000000000000000082e-05,-2.000000000000000164e-05,-5.000000000000000240e-05,-1.000000000000000082e-05,-1.000000000000000082e-05,0.000000000000000000e+00,5.999999999999999474e-05,2.999999999999999737e-05,2.000000000000000000e+00,3.000000000000000000e+00
5.340000000000000000e+03,1.000000000000000082e-05,-2.000000000000000164e-05,-5.000000000000000240e-05,-1.000000000000000082e-05,-1.000000000000000082e-05,0.000000000000000000e+00,5.999999999999999474e-05,2.999999999999999737e-05,2.000000000000000000e+00,3.000000000000000000e+00
5.341000000000000000e+03,1.000000000000000082e-05,-2.000000000000000164e-05,-5.000000000000000240e-05,-1.000000000000000082e-05,-1.000000000000000082e-05,0.000000000000000000e+00,5.999999999999999474e-05,2.999999999999999737e-05,2.000000000000000000e+00,3.000000000000000000e+00
5.342000000000000000e+03,1.000000000000000082e-05,-2.000000000000000164e-05,-5.000000000000000240e-05,-1.000000000000000082e-05,-1.000000000000000082e-05,0.000000000000000000e+00,5.999999999999999474e-05,2.999999999999999737e-05,2.000000000000000000e+00,3.000000000000000000e+00
5.343000000000000000e+03,1.000000000000000082e-05,-2.000000000000000164e-05,-5.000000000000000240e-05,-1.000000000000000082e-05,-1.000000000000000082e-05,0.000000000000000000e+00,5.999999999999999474e-05,2.999999999999999737e-05,2.000000000000000000e+00,3.000000000000000000e+00
5.344000000000000000e+03,1.000000000000000082e-05,-2.000000000000000164e-05,-5.000000000000000240e-05,-1.000000000000000082e-05,-1.000000000000000082e-05,0.000000000000000000e+00,5.999999999999999474e-05,2.999999999999999737e-05,2.000000000000000000e+00,3.000000000000000000e+00
5.345000000000000000e+03,1.000000000000000082e-05,-2.000000000000000164e-05,-5.000000000000000240e-05,-1.000000000000000082e-05,-1.000000000000000082e-05,0.000000000000000000e+00,5.999999999999999474e-05,2.999999999999999737e-05,2.000000000000000000e+00,3.000000000000000000e+00
5.346000000000000000e+03,1.000000000000000082e-05,-2.000000000000000164e-05,-5.000000000000000240e-05,-1.000000000000000082e-05,-1.000000000000000082e-05,0.000000000000000000e+00,5.999999999999999474e-05,2.999999999999999737e-05,2.000000000000000000e+00,3.000000000000000000e+00
5.347000000000000000e+03,1.000000000000000082e-05,-2.000000000000000164e-05,-5.000000000000000240e-05,-1.000000000000000082e-05,-1.000000000000000082e-05,0.000000000000000000e+00,5.999999999999999474e-05,2.999999999999999737e-05,2.000000000000000000e+00,3.000000000000000000e+00
5.348000000000000000e+03,1.000000000000000082e-05,-2.000000000000000164e-05,-5.000000000000000240e-05,-1.000000000000000082e-05,-1.000000000000000082e-05,0.000000000000000000e+00,5.999999999999999474e-05,2.999999999999999737e-05,2.000000000000000000e+00,3.000000000000000000e+00
5.349000000000000000e+03,1.000000000000000082e-05,1.000000000000000082e-05,9.000000000000000567e-05,4.000000000000000327e-05,2.000000000000000164e-05,1.499999999999999869e-04,2.000000000000000096e-04,5.000000000000000240e-05,2.000000000000000000e+00,3.000000000000000000e+00
5.350000000000000000e+03,-4.000000000000000327e-05,-4.000000000000000327e-05,0.000000000000000000e+00,-2.999999999999999737e-05,-5.000000000000000240e-05,-2.999999999999999737e-05,4.000000000000000327e-05,-5.999999999999999474e-05,2.000000000000000000e+00,3.000000000000000000e+00
5.351000000000000000e+03,-4.000000000000000327e-05,-4.000000000000000327e-05,0.000000000000000000e+00,-2.999999999999999737e-05,-5.000000000000000240e-05,-2.999999999999999737e-05,4.000000000000000327e-05,-5.999999999999999474e-05,2.000000000000000000e+00,3.000000000000000000e+00
5.352000000000000000e+03,-4.000000000000000327e-05,-4.000000000000000327e-05,0.000000000000000000e+00,-2.999999999999999737e-05,-5.000000000000000240e-05,-2.999999999999999737e-05,4.000000000000000327e-05,-5.999999999999999474e-05,2.000000000000000000e+00,3.000000000000000000e+00
5.353000000000000000e+03,-4.000000000000000327e-05,-4.000000000000000327e-05,0.000000000000000000e+00,-2.999999999999999737e-05,-5.000000000000000240e-05,-2.999999999999999737e-05,4.000000000000000327e-05,-5.999999999999999474e-05,2.000000000000000000e+00,3.000000000000000000e+00
5.354000000000000000e+03,-4.000000000000000327e-05,-4.000000000000000327e-05,0.000000000000000000e+00,-2.999999999999999737e-05,-5.000000000000000240e-05,-2.999999999999999737e-05,4.000000000000000327e-05,-5.999999999999999474e-05,2.000000000000000000e+00,3.000000000000000000e+00
5.355000000000000000e+03,-4.000000000000000327e-05,-4.000000000000000327e-05,0.000000000000000000e+00,-2.999999999999999737e-05,-5.000000000000000240e-05,-2.999999999999999737e-05,4.000000000000000327e-05,-5.999999999999999474e-05,2.000000000000000000e+00,3.000000000000000000e+00
5.356000000000000000e+03,-4.000000000000000327e-05,-4.000000000000000327e-05,0.000000000000000000e+00,-2.999999999999999737e-05,-5.000000000000000240e-05,-2.999999999999999737e-05,4.000000000000000327e-05,-5.999999999999999474e-05,2.000000000000000000e+00,3.000000000000000000e+00
5.357000000000000000e+03,-4.000000000000000327e-05,-4.000000000000000327e-05,0.000000000000000000e+00,-2.999999999999999737e-05,-5.000000000000000240e-05,-2.999999999999999737e-05,4.000000000000000327e-05,-5.999999999999999474e-05,2.000000000000000000e+00,3.000000000000000000e+00
5.358000000000000000e+03,-4.000000000000000327e-05,-4.000000000000000327e-05,0.000000000000000000e+00,-2.999999999999999737e-05,-5.000000000000000240e-05,-2.999999999999999737e-05,4.000000000000000327e-05,-5.999999999999999474e-05,2.000000000000000000e+00,3.000000000000000000e+00
5.359000000000000000e+03,-4.000000000000000327e-05,-4.000000000000000327e-05,0.000000000000000000e+00,-2.999999999999999737e-05,-5.000000000000000240e-05,-2.999999999999999737e-05,4.000000000000000327e-05,-5.999999999999999474e-05,2.000000000000000000e+00,3.000000000000000000e+00
5.360000000000000000e+03,-4.000000000000000327e-05,-4.000000000000000327e-05,0.000000000000000000e+00,-2.999999999999999737e-05,-5.000000000000000240e-05,-2.999999999999999737e-05,4.000000000000000327e-05,-5.999999999999999474e-05,2.000000000000000000e+00,3.000000000000000000e+00
5.361000000000000000e+03,-4.000000000000000327e-05,-4.000000000000000327e-05,0.000000000000000000e+00,-2.999999999999999737e-05,-5.000000000000000240e-05,-2.999999999999999737e-05,4.000000000000000327e-05,-5.999999999999999474e-05,2.000000000000000000e+00,3.000000000000000000e+00
5.362000000000000000e+03,-4.000000000000000327e-05,-4.000000000000000327e-05,0.000000000000000000e+00,-2.999999999999999737e-05,-5.000000000000000240e-05,-2.999999999999999737e-05,4.000000000000000327e-05,-5.999999999999999474e-05,2.000000000000000000e+00,3.000000000000000000e+00
5.363000000000000000e+03,-4.000000000000000327e-05,-4.000000000000000327e-05,0.000000000000000000e+00,-2.999999999999999737e-05,-5.000000000000000240e-05,-2.999999999999999737e-05,4.000000000000000327e-05,-5.999999999999999474e-05,2.000000000000000000e+00,3.000000000000000000e+00
5.364000000000000000e+03,-4.000000000000000327e-05,-4.000000000000000327e-05,0.000000000000000000e+00,-2.999999999999999737e-05,-5.000000000000000240e-05,-2.999999999999999737e-05,4.000000000000000327e-05,-5.999999999999999474e-05,2.000000000000000000e+00,3.000000000000000000e+00
5.365000000000000000e+03,-4.000000000000000327e-05,-4.000000000000000327e-05,0.000000000000000000e+00,-2.999999999999999737e-05,-5.000000000000000240e-05,-2.999999999999999737e-05,4.000000000000000327e-05,-5.999999999999999474e-05,2.000000000000000000e+00,3.000000000000000000e+00
5.366000000000000000e+03,-4.000000000000000327e-05,-4.000000000000000327e-05,0.000000000000000000e+00,-2.999999999999999737e-05,-5.000000000000000240e-05,-2.999999999999999737e-05,4.000000000000000327e-05,-5.999999999999999474e-05,2.000000000000000000e+00,3.000000000000000000e+00
5.367000000000000000e+03,-4.000000000000000327e-05,-4.000000000000000327e-05,0.000000000000000000e+00,-2.999999999999999737e-05,-5.000000000000000240e-05,-2.999999999999999737e-05,4.000000000000000327e-05,-5.999999999999999474e-05,2.000000000000000000e+00,3.000000000000000000e+00
5.368000000000000000e+03,-4.000000000000000327e-05,-4.000000000000000327e-05,0.000000000000000000e+00,-2.999999999999999737e-05,-5.000000000000000240e-05,-2.999999999999999737e-05,4.000000000000000327e-05,-5.999999999999999474e-05,2.000000000000000000e+00,3.000000000000000000e+00
5.369000000000000000e+03,-4.000000000000000327e-05,-4.000000000000000327e-05,0.000000000000000000e+00,-2.999999999999999737e-05,-5.000000000000000240e-05,-2.999999999999999737e-05,4.000000000000000327e-05,-5.999999999999999474e-05,2.000000000000000000e+00,3.000000000000000000e+00
5.370000000000000000e+03,-4.000000000000000327e-05,-4.000000000000000327e-05,0.000000000000000000e+00,-2.999999999999999737e-05,-5.000000000000000240e-05,-2.999999999999999737e-05,4.000000000000000327e-05,-5.999999999999999474e-05,2.000000000000000000e+00,3.000000000000000000e+00
5.371000000000000000e+03,-2.000000000000000164e-05,2.000000000000000164e-05,5.999999999999999474e-05,-2.999999999999999737e-05,-1.000000000000000082e-05,-6.999999999999999387e-05,-2.999999999999999737e-05,-2.999999999999999737e-05,2.000000000000000000e+00,3.000000000000000000e+00
5.372000000000000000e+03,-2.000000000000000164e-05,2.000000000000000164e-05,5.999999999999999474e-05,-2.999999999999999737e-05,-1.000000000000000082e-05,-6.999999999999999387e-05,-2.999999999999999737e-05,-2.999999999999999737e-05,2.000000000000000000e+00,3.000000000000000000e+00
5.373000000000000000e+03,1.000000000000000082e-05,0.000000000000000000e+00,-2.000000000000000164e-05,-5.000000000000000240e-05,-2.000000000000000164e-05,6.999999999999999387e-05,-9.000000000000000567e-05,0.000000000000000000e+00,2.000000000000000000e+00,3.000000000000000000e+00
5.374000000000000000e+03,1.000000000000000082e-05,0.000000000000000000e+00,-2.000000000000000164e-05,-5.000000000000000240e-05,-2.000000000000000164e-05,6.999999999999999387e-05,-9.000000000000000567e-05,0.000000000000000000e+00,2.000000000000000000e+00,3.000000000000000000e+00
5.375000000000000000e+03,1.000000000000000082e-05,0.000000000000000000e+00,-2.000000000000000164e-05,-5.000000000000000240e-05,-2.000000000000000164e-05,6.999999999999999387e-05,-9.000000000000000567e-05,0.000000000000000000e+00,2.000000000000000000e+00,3.000000000000000000e+00
5.376000000000000000e+03,1.000000000000000082e-05,0.000000000000000000e+00,-2.000000000000000164e-05,-5.000000000000000240e-05,-2.000000000000000164e-05,6.999999999999999387e-05,-9.000000000000000567e-05,0.000000000000000000e+00,2.000000000000000000e+00,3.000000000000000000e+00
5.377000000000000000e+03,1.000000000000000082e-05,0.000000000000000000e+00,-2.000000000000000164e-05,-5.000000000000000240e-05,-2.000000000000000164e-05,6.999999999999999387e-05,-9.000000000000000567e-05,0.000000000000000000e+00,2.000000000000000000e+00,3.000000000000000000e+00
5.378000000000000000e+03,1.000000000000000082e-05,0.000000000000000000e+00,-2.000000000000000164e-05,-5.000000000000000240e-05,-2.000000000000000164e-05,6.999999999999999387e-05,-9.000000000000000567e-05,0.000000000000000000e+00,2.000000000000000000e+00,3.000000000000000000e+00
5.379000000000000000e+03,1.000000000000000082e-05,0.000000000000000000e+00,-2.000000000000000164e-05,-5.000000000000000240e-05,-2.000000000000000164e-05,6.999999999999999387e-05,-9.000000000000000567e-05,0.000000000000000000e+00,2.000000000000000000e+00,3.000000000000000000e+00
5.380000000000000000e+03,1.000000000000000082e-05,0.000000000000000000e+00,-2.000000000000000164e-05,-5.000000000000000240e-05,-2.000000000000000164e-05,6.999999999999999387e-05,-9.000000000000000567e-05,0.000000000000000000e+00,2.000000000000000000e+00,3.000000000000000000e+00
5.381000000000000000e+03,1.000000000000000082e-05,0.000000000000000000e+00,-2.000000000000000164e-05,-5.000000000000000240e-05,-2.000000000000000164e-05,6.999999999999999387e-05,-9.000000000000000567e-05,0.000000000000000000e+00,2.000000000000000000e+00,3.000000000000000000e+00
5.382000000000000000e+03,1.000000000000000082e-05,0.000000000000000000e+00,-2.000000000000000164e-05,-5.000000000000000240e-05,-2.000000000000000164e-05,6.999999999999999387e-05,-9.000000000000000567e-05,0.000000000000000000e+00,2.000000000000000000e+00,3.000000000000000000e+00
5.383000000000000000e+03,1.000000000000000082e-05,0.000000000000000000e+00,-2.000000000000000164e-05,-5.000000000000000240e-05,-2.000000000000000164e-05,6.999999999999999387e-05,-9.000000000000000567e-05,0.000000000000000000e+00,2.000000000000000000e+00,3.000000000000000000e+00
5.384000000000000000e+03,1.000000000000000082e-05,0.000000000000000000e+00,-2.000000000000000164e-05,-5.000000000000000240e-05,-2.000000000000000164e-05,6.999999999999999387e-05,-9.000000000000000567e-05,0.000000000000000000e+00,2.000000000000000000e+00,3.000000000000000000e+00
5.385000000000000000e+03,0.000000000000000000e+00,0.000000000000000000e+00,6.999999999999999387e-05,-2.999999999999999737e-05,-2.000000000000000164e-05,-4.000000000000000327e-05,-1.000000000000000082e-05,-2.000000000000000164e-05,2.000000000000000000e+00,3.000000000000000000e+00
5.386000000000000000e+03,0.000000000000000000e+00,1.000000000000000082e-05,-4.000000000000000327e-05,8.000000000000000654e-05,2.000000000000000164e-05,1.000000000000000082e-05,-4.000000000000000327e-05,-2.000000000000000164e-05,2.000000000000000000e+00,3.000000000000000000e+00
5.388000000000000000e+03,0.000000000000000000e+00,1.000000000000000082e-05,-4.000000000000000327e-05,8.000000000000000654e-05,2.000000000000000164e-05,1.000000000000000082e-05,-4.000000000000000327e-05,-2.000000000000000164e-05,2.000000000000000000e+00,3.000000000000000000e+00
5.389000000000000000e+03,0.000000000000000000e+00,1.000000000000000082e-05,-4.000000000000000327e-05,8.000000000000000654e-05,2.000000000000000164e-05,1.000000000000000082e-05,-4.000000000000000327e-05,-2.000000000000000164e-05,2.000000000000000000e+00,3.000000000000000000e+00
5.390000000000000000e+03,0.000000000000000000e+00,1.000000000000000082e-05,-4.000000000000000327e-05,8.000000000000000654e-05,2.000000000000000164e-05,1.000000000000000082e-05,-4.000000000000000327e-05,-2.000000000000000164e-05,2.000000000000000000e+00,3.000000000000000000e+00
5.391000000000000000e+03,0.000000000000000000e+00,1.000000000000000082e-05,-4.000000000000000327e-05,8.000000000000000654e-05,2.000000000000000164e-05,1.000000000000000082e-05,-4.000000000000000327e-05,-2.000000000000000164e-05,2.000000000000000000e+00,3.000000000000000000e+00
5.392000000000000000e+03,-1.000000000000000082e-05,0.000000000000000000e+00,-4.000000000000000327e-05,2.000000000000000164e-05,-2.000000000000000164e-05,-1.000000000000000082e-05,8.000000000000000654e-05,2.000000000000000164e-05,2.000000000000000000e+00,3.000000000000000000e+00
5.393000000000000000e+03,-1.000000000000000082e-05,0.000000000000000000e+00,-4.000000000000000327e-05,2.000000000000000164e-05,-2.000000000000000164e-05,-1.000000000000000082e-05,8.000000000000000654e-05,2.000000000000000164e-05,2.000000000000000000e+00,3.000000000000000000e+00
5.394000000000000000e+03,-1.000000000000000082e-05,0.000000000000000000e+00,-4.000000000000000327e-05,2.000000000000000164e-05,-2.000000000000000164e-05,-1.000000000000000082e-05,8.000000000000000654e-05,2.000000000000000164e-05,2.000000000000000000e+00,3.000000000000000000e+00
5.395000000000000000e+03,-1.000000000000000082e-05,0.000000000000000000e+00,-4.000000000000000327e-05,2.000000000000000164e-05,-2.000000000000000164e-05,-1.000000000000000082e-05,8.000000000000000654e-05,2.000000000000000164e-05,2.000000000000000000e+00,3.000000000000000000e+00
5.396000000000000000e+03,-1.000000000000000082e-05,0.000000000000000000e+00,-4.000000000000000327e-05,2.000000000000000164e-05,-2.000000000000000164e-05,-1.000000000000000082e-05,8.000000000000000654e-05,2.000000000000000164e-05,2.000000000000000000e+00,3.000000000000000000e+00
5.397000000000000000e+03,-1.000000000000000082e-05,0.000000000000000000e+00,-4.000000000000000327e-05,2.000000000000000164e-05,-2.000000000000000164e-05,-1.000000000000000082e-05,8.000000000000000654e-05,2.000000000000000164e-05,2.000000000000000000e+00,3.000000000000000000e+00
5.398000000000000000e+03,-1.000000000000000082e-05,0.000000000000000000e+00,-4.000000000000000327e-05,2.000000000000000164e-05,-2.000000000000000164e-05,-1.000000000000000082e-05,8.000000000000000654e-05,2.000000000000000164e-05,2.000000000000000000e+00,3.000000000000000000e+00
5.399000000000000000e+03,-1.000000000000000082e-05,0.000000000000000000e+00,-4.000000000000000327e-05,2.000000000000000164e-05,-2.000000000000000164e-05,-1.000000000000000082e-05,8.000000000000000654e-05,2.000000000000000164e-05,2.000000000000000000e+00,3.000000000000000000e+00
5.400000000000000000e+03,-1.000000000000000082e-05,0.000000000000000000e+00,-4.000000000000000327e-05,2.000000000000000164e-05,-2.000000000000000164e-05,-1.000000000000000082e-05,8.000000000000000654e-05,2.000000000000000164e-05,2.000000000000000000e+00,3.000000000000000000e+00
5.401000000000000000e+03,-1.000000000000000082e-05,0.000000000000000000e+00,-4.000000000000000327e-05,2.000000000000000164e-05,-2.000000000000000164e-05,-1.000000000000000082e-05,8.000000000000000654e-05,2.000000000000000164e-05,2.000000000000000000e+00,3.000000000000000000e+00
5.402000000000000000e+03,-1.000000000000000082e-05,0.000000000000000000e+00,-4.000000000000000327e-05,2.000000000000000164e-05,-2.000000000000000164e-05,-1.000000000000000082e-05,8.000000000000000654e-05,2.000000000000000164e-05,2.000000000000000000e+00,3.000000000000000000e+00
5.403000000000000000e+03,-1.000000000000000082e-05,0.000000000000000000e+00,-4.000000000000000327e-05,2.000000000000000164e-05,-2.000000000000000164e-05,-1.000000000000000082e-05,8.000000000000000654e-05,2.000000000000000164e-05,2.000000000000000000e+00,3.000000000000000000e+00
5.404000000000000000e+03,-1.000000000000000082e-05,0.000000000000000000e+00,-4.000000000000000327e-05,2.000000000000000164e-05,-2.000000000000000164e-05,-1.000000000000000082e-05,8.000000000000000654e-05,2.000000000000000164e-05,2.000000000000000000e+00,3.000000000000000000e+00
5.405000000000000000e+03,-1.000000000000000082e-05,0.000000000000000000e+00,-4.000000000000000327e-05,2.000000000000000164e-05,-2.000000000000000164e-05,-1.000000000000000082e-05,8.000000000000000654e-05,2.000000000000000164e-05,2.000000000000000000e+00,3.000000000000000000e+00
5.406000000000000000e+03,-1.000000000000000082e-05,0.000000000000000000e+00,-4.000000000000000327e-05,2.000000000000000164e-05,-2.000000000000000164e-05,-1.000000000000000082e-05,8.000000000000000654e-05,2.000000000000000164e-05,2.000000000000000000e+00,3.000000000000000000e+00
5.407000000000000000e+03,-1.000000000000000082e-05,0.000000000000000000e+00,-4.000000000000000327e-05,2.000000000000000164e-05,-2.000000000000000164e-05,-1.000000000000000082e-05,8.000000000000000654e-05,2.000000000000000164e-05,2.000000000000000000e+00,3.000000000000000000e+00
5.408000000000000000e+03,-1.000000000000000082e-05,0.000000000000000000e+00,-4.000000000000000327e-05,2.000000000000000164e-05,-2.000000000000000164e-05,-1.000000000000000082e-05,8.000000000000000654e-05,2.000000000000000164e-05,2.000000000000000000e+00,3.000000000000000000e+00
5.409000000000000000e+03,-4.000000000000000327e-05,-5.999999999999999474e-05,-5.999999999999999474e-05,0.000000000000000000e+00,-4.000000000000000327e-05,-1.000000000000000082e-05,-1.000000000000000048e-04,-8.000000000000000654e-05,2.000000000000000000e+00,3.000000000000000000e+00
5.410000000000000000e+03,1.000000000000000082e-05,2.000000000000000164e-05,4.000000000000000327e-05,1.000000000000000082e-05,2.000000000000000164e-05,5.000000000000000240e-05,1.199999999999999895e-04,2.000000000000000164e-05,2.000000000000000000e+00,3.000000000000000000e+00
5.411000000000000000e+03,1.000000000000000082e-05,2.000000000000000164e-05,4.000000000000000327e-05,1.000000000000000082e-05,2.000000000000000164e-05,5.000000000000000240e-05,1.199999999999999895e-04,2.000000000000000164e-05,2.000000000000000000e+00,3.000000000000000000e+00
5.412000000000000000e+03,1.000000000000000082e-05,2.000000000000000164e-05,4.000000000000000327e-05,1.000000000000000082e-05,2.000000000000000164e-05,5.000000000000000240e-05,1.199999999999999895e-04,2.000000000000000164e-05,2.000000000000000000e+00,3.000000000000000000e+00
5.413000000000000000e+03,1.000000000000000082e-05,2.000000000000000164e-05,4.000000000000000327e-05,1.000000000000000082e-05,2.000000000000000164e-05,5.000000000000000240e-05,1.199999999999999895e-04,2.000000000000000164e-05,2.000000000000000000e+00,3.000000000000000000e+00
5.414000000000000000e+03,1.000000000000000082e-05,2.000000000000000164e-05,4.000000000000000327e-05,1.000000000000000082e-05,2.000000000000000164e-05,5.000000000000000240e-05,1.199999999999999895e-04,2.000000000000000164e-05,2.000000000000000000e+00,3.000000000000000000e+00
5.415000000000000000e+03,1.000000000000000082e-05,2.000000000000000164e-05,4.000000000000000327e-05,1.000000000000000082e-05,2.000000000000000164e-05,5.000000000000000240e-05,1.199999999999999895e-04,2.000000000000000164e-05,2.000000000000000000e+00,3.000000000000000000e+00
5.416000000000000000e+03,1.000000000000000082e-05,2.000000000000000164e-05,4.000000000000000327e-05,1.000000000000000082e-05,2.000000000000000164e-05,5.000000000000000240e-05,1.199999999999999895e-04,2.000000000000000164e-05,2.000000000000000000e+00,3.000000000000000000e+00
5.417000000000000000e+03,1.000000000000000082e-05,2.000000000000000164e-05,4.000000000000000327e-05,1.000000000000000082e-05,2.000000000000000164e-05,5.000000000000000240e-05,1.199999999999999895e-04,2.000000000000000164e-05,2.000000000000000000e+00,3.000000000000000000e+00
5.418000000000000000e+03,1.000000000000000082e-05,2.000000000000000164e-05,4.000000000000000327e-05,1.000000000000000082e-05,2.000000000000000164e-05,5.000000000000000240e-05,1.199999999999999895e-04,2.000000000000000164e-05,2.000000000000000000e+00,3.000000000000000000e+00
5.419000000000000000e+03,1.000000000000000082e-05,2.000000000000000164e-05,4.000000000000000327e-05,1.000000000000000082e-05,2.000000000000000164e-05,5.000000000000000240e-05,1.199999999999999895e-04,2.000000000000000164e-05,2.000000000000000000e+00,3.000000000000000000e+00
5.420000000000000000e+03,1.000000000000000082e-05,2.000000000000000164e-05,4.000000000000000327e-05,1.000000000000000082e-05,2.000000000000000164e-05,5.000000000000000240e-05,1.199999999999999895e-04,2.000000000000000164e-05,2.000000000000000000e+00,3.000000000000000000e+00
5.421000000000000000e+03,1.000000000000000082e-05,2.000000000000000164e-05,4.000000000000000327e-05,1.000000000000000082e-05,2.000000000000000164e-05,5.000000000000000240e-05,1.199999999999999895e-04,2.000000000000000164e-05,2.000000000000000000e+00,3.000000000000000000e+00
5.422000000000000000e+03,1.000000000000000082e-05,2.000000000000000164e-05,4.000000000000000327e-05,1.000000000000000082e-05,2.000000000000000164e-05,5.000000000000000240e-05,1.199999999999999895e-04,2.000000000000000164e-05,2.000000000000000000e+00,3.000000000000000000e+00
5.423000000000000000e+03,1.000000000000000082e-05,2.000000000000000164e-05,4.000000000000000327e-05,1.000000000000000082e-05,2.000000000000000164e-05,5.000000000000000240e-05,1.199999999999999895e-04,2.000000000000000164e-05,2.000000000000000000e+00,3.000000000000000000e+00
5.424000000000000000e+03,1.000000000000000082e-05,2.000000000000000164e-05,4.000000000000000327e-05,1.000000000000000082e-05,2.000000000000000164e-05,5.000000000000000240e-05,1.199999999999999895e-04,2.000000000000000164e-05,2.000000000000000000e+00,3.000000000000000000e+00
5.425000000000000000e+03,1.000000000000000082e-05,2.000000000000000164e-05,4.000000000000000327e-05,1.000000000000000082e-05,2.000000000000000164e-05,5.000000000000000240e-05,1.199999999999999895e-04,2.000000000000000164e-05,2.000000000000000000e+00,3.000000000000000000e+00
5.426000000000000000e+03,1.000000000000000082e-05,2.000000000000000164e-05,4.000000000000000327e-05,1.000000000000000082e-05,2.000000000000000164e-05,5.000000000000000240e-05,1.199999999999999895e-04,2.000000000000000164e-05,2.000000000000000000e+00,3.000000000000000000e+00
5.427000000000000000e+03,1.000000000000000082e-05,2.000000000000000164e-05,4.000000000000000327e-05,1.000000000000000082e-05,2.000000000000000164e-05,5.000000000000000240e-05,1.199999999999999895e-04,2.000000000000000164e-05,2.000000000000000000e+00,3.000000000000000000e+00
5.428000000000000000e+03,1.000000000000000082e-05,2.000000000000000164e-05,4.000000000000000327e-05,1.000000000000000082e-05,2.000000000000000164e-05,5.000000000000000240e-05,1.199999999999999895e-04,2.000000000000000164e-05,2.000000000000000000e+00,3.000000000000000000e+00
5.429000000000000000e+03,1.000000000000000082e-05,2.000000000000000164e-05,4.000000000000000327e-05,1.000000000000000082e-05,2.000000000000000164e-05,5.000000000000000240e-05,1.199999999999999895e-04,2.000000000000000164e-05,2.000000000000000000e+00,3.000000000000000000e+00
5.430000000000000000e+03,1.000000000000000082e-05,2.000000000000000164e-05,4.000000000000000327e-05,1.000000000000000082e-05,2.000000000000000164e-05,5.000000000000000240e-05,1.199999999999999895e-04,2.000000000000000164e-05,2.000000000000000000e+00,3.000000000000000000e+00
5.431000000000000000e+03,1.000000000000000082e-05,2.000000000000000164e-05,4.000000000000000327e-05,1.000000000000000082e-05,2.000000000000000164e-05,5.000000000000000240e-05,1.199999999999999895e-04,2.000000000000000164e-05,2.000000000000000000e+00,3.000000000000000000e+00
5.432000000000000000e+03,0.000000000000000000e+00,-2.999999999999999737e-05,-5.999999999999999474e-05,-1.000000000000000082e-05,-4.000000000000000327e-05,-1.199999999999999895e-04,-2.999999999999999737e-05,2.999999999999999737e-05,2.000000000000000000e+00,3.000000000000000000e+00
5.433000000000000000e+03,0.000000000000000000e+00,-2.999999999999999737e-05,-5.999999999999999474e-05,-1.000000000000000082e-05,-4.000000000000000327e-05,-1.199999999999999895e-04,-2.999999999999999737e-05,2.999999999999999737e-05,2.000000000000000000e+00,3.000000000000000000e+00
5.434000000000000000e+03,0.000000000000000000e+00,-2.999999999999999737e-05,-5.999999999999999474e-05,-1.000000000000000082e-05,-4.000000000000000327e-05,-1.199999999999999895e-04,-2.999999999999999737e-05,2.999999999999999737e-05,2.000000000000000000e+00,3.000000000000000000e+00
5.435000000000000000e+03,0.000000000000000000e+00,-2.999999999999999737e-05,-5.999999999999999474e-05,-1.000000000000000082e-05,-4.000000000000000327e-05,-1.199999999999999895e-04,-2.999999999999999737e-05,2.999999999999999737e-05,2.000000000000000000e+00,3.000000000000000000e+00
5.436000000000000000e+03,0.000000000000000000e+00,-2.999999999999999737e-05,-5.999999999999999474e-05,-1.000000000000000082e-05,-4.000000000000000327e-05,-1.199999999999999895e-04,-2.999999999999999737e-05,2.999999999999999737e-05,2.000000000000000000e+00,3.000000000000000000e+00
5.438000000000000000e+03,1.000000000000000082e-05,1.000000000000000082e-05,2.999999999999999737e-05,2.999999999999999737e-05,-4.000000000000000327e-05,0.000000000000000000e+00,5.000000000000000240e-05,-1.000000000000000082e-05,2.000000000000000000e+00,3.000000000000000000e+00
5.439000000000000000e+03,1.000000000000000082e-05,1.000000000000000082e-05,2.999999999999999737e-05,2.999999999999999737e-05,-4.000000000000000327e-05,0.000000000000000000e+00,5.000000000000000240e-05,-1.000000000000000082e-05,2.000000000000000000e+00,3.000000000000000000e+00
5.440000000000000000e+03,1.000000000000000082e-05,1.000000000000000082e-05,2.999999999999999737e-05,2.999999999999999737e-05,-4.000000000000000327e-05,0.000000000000000000e+00,5.000000000000000240e-05,-1.000000000000000082e-05,2.000000000000000000e+00,3.000000000000000000e+00
5.441000000000000000e+03,1.000000000000000082e-05,1.000000000000000082e-05,2.999999999999999737e-05,2.999999999999999737e-05,-4.000000000000000327e-05,0.000000000000000000e+00,5.000000000000000240e-05,-1.000000000000000082e-05,2.000000000000000000e+00,3.000000000000000000e+00
5.442000000000000000e+03,1.000000000000000082e-05,1.000000000000000082e-05,2.999999999999999737e-05,2.999999999999999737e-05,-4.000000000000000327e-05,0.000000000000000000e+00,5.000000000000000240e-05,-1.000000000000000082e-05,2.000000000000000000e+00,3.000000000000000000e+00
5.443000000000000000e+03,1.000000000000000082e-05,1.000000000000000082e-05,2.999999999999999737e-05,2.999999999999999737e-05,-4.000000000000000327e-05,0.000000000000000000e+00,5.000000000000000240e-05,-1.000000000000000082e-05,2.000000000000000000e+00,3.000000000000000000e+00
5.444000000000000000e+03,1.000000000000000082e-05,1.000000000000000082e-05,2.999999999999999737e-05,2.999999999999999737e-05,-4.000000000000000327e-05,0.000000000000000000e+00,5.000000000000000240e-05,-1.000000000000000082e-05,2.000000000000000000e+00,3.000000000000000000e+00
5.445000000000000000e+03,1.000000000000000082e-05,1.000000000000000082e-05,2.999999999999999737e-05,2.999999999999999737e-05,-4.000000000000000327e-05,0.000000000000000000e+00,5.000000000000000240e-05,-1.000000000000000082e-05,2.000000000000000000e+00,3.000000000000000000e+00
5.446000000000000000e+03,-1.000000000000000082e-05,0.000000000000000000e+00,2.999999999999999737e-05,1.000000000000000082e-05,-4.000000000000000327e-05,-2.000000000000000164e-05,-1.100000000000000039e-04,1.000000000000000082e-05,2.000000000000000000e+00,3.000000000000000000e+00
5.447000000000000000e+03,-1.000000000000000082e-05,0.000000000000000000e+00,2.999999999999999737e-05,1.000000000000000082e-05,-4.000000000000000327e-05,-2.000000000000000164e-05,-1.100000000000000039e-04,1.000000000000000082e-05,2.000000000000000000e+00,3.000000000000000000e+00
5.448000000000000000e+03,0.000000000000000000e+00,1.000000000000000082e-05,0.000000000000000000e+00,5.000000000000000240e-05,6.999999999999999387e-05,-5.000000000000000240e-05,-1.300000000000000157e-04,-1.000000000000000082e-05,2.000000000000000000e+00,3.000000000000000000e+00
5.449000000000000000e+03,0.000000000000000000e+00,1.000000000000000082e-05,0.000000000000000000e+00,5.000000000000000240e-05,6.999999999999999387e-05,-5.000000000000000240e-05,-1.300000000000000157e-04,-1.000000000000000082e-05,2.000000000000000000e+00,3.000000000000000000e+00
5.450000000000000000e+03,0.000000000000000000e+00,1.000000000000000082e-05,0.000000000000000000e+00,5.000000000000000240e-05,6.999999999999999387e-05,-5.000000000000000240e-05,-1.300000000000000157e-04,-1.000000000000000082e-05,2.000000000000000000e+00,3.000000000000000000e+00
5.451000000000000000e+03,0.000000000000000000e+00,1.000000000000000082e-05,0.000000000000000000e+00,5.000000000000000240e-05,6.999999999999999387e-05,-5.000000000000000240e-05,-1.300000000000000157e-04,-1.000000000000000082e-05,2.000000000000000000e+00,3.000000000000000000e+00
5.452000000000000000e+03,0.000000000000000000e+00,1.000000000000000082e-05,0.000000000000000000e+00,5.000000000000000240e-05,6.999999999999999387e-05,-5.000000000000000240e-05,-1.300000000000000157e-04,-1.000000000000000082e-05,2.000000000000000000e+00,3.000000000000000000e+00
5.453000000000000000e+03,0.000000000000000000e+00,1.000000000000000082e-05,0.000000000000000000e+00,5.000000000000000240e-05,6.999999999999999387e-05,-5.000000000000000240e-05,-1.300000000000000157e-04,-1.000000000000000082e-05,2.000000000000000000e+00,3.000000000000000000e+00
5.454000000000000000e+03,0.000000000000000000e+00,1.000000000000000082e-05,0.000000000000000000e+00,5.000000000000000240e-05,6.999999999999999387e-05,-5.000000000000000240e-05,-1.300000000000000157e-04,-1.000000000000000082e-05,2.000000000000000000e+00,3.000000000000000000e+00
5.455000000000000000e+03,0.000000000000000000e+00,1.000000000000000082e-05,0.000000000000000000e+00,5.000000000000000240e-05,6.999999999999999387e-05,-5.000000000000000240e-05,-1.300000000000000157e-04,-1.000000000000000082e-05,2.000000000000000000e+00,3.000000000000000000e+00
5.456000000000000000e+03,0.000000000000000000e+00,1.000000000000000082e-05,0.000000000000000000e+00,5.000000000000000240e-05,6.999999999999999387e-05,-5.000000000000000240e-05,-1.300000000000000157e-04,-1.000000000000000082e-05,2.000000000000000000e+00,3.000000000000000000e+00
5.457000000000000000e+03,0.000000000000000000e+00,1.000000000000000082e-05,0.000000000000000000e+00,5.000000000000000240e-05,6.999999999999999387e-05,-5.000000000000000240e-05,-1.300000000000000157e-04,-1.000000000000000082e-05,2.000000000000000000e+00,3.000000000000000000e+00
5.458000000000000000e+03,0.000000000000000000e+00,1.000000000000000082e-05,0.000000000000000000e+00,5.000000000000000240e-05,6.999999999999999387e-05,-5.000000000000000240e-05,-1.300000000000000157e-04,-1.000000000000000082e-05,2.000000000000000000e+00,3.000000000000000000e+00
5.459000000000000000e+03,0.000000000000000000e+00,1.000000000000000082e-05,0.000000000000000000e+00,5.000000000000000240e-05,6.999999999999999387e-05,-5.000000000000000240e-05,-1.300000000000000157e-04,-1.000000000000000082e-05,2.000000000000000000e+00,3.000000000000000000e+00
5.460000000000000000e+03,0.000000000000000000e+00,1.000000000000000082e-05,0.000000000000000000e+00,5.000000000000000240e-05,6.999999999999999387e-05,-5.000000000000000240e-05,-1.300000000000000157e-04,-1.000000000000000082e-05,2.000000000000000000e+00,3.000000000000000000e+00
5.461000000000000000e+03,0.000000000000000000e+00,1.000000000000000082e-05,0.000000000000000000e+00,5.000000000000000240e-05,6.999999999999999387e-05,-5.000000000000000240e-05,-1.300000000000000157e-04,-1.000000000000000082e-05,2.000000000000000000e+00,3.000000000000000000e+00
5.462000000000000000e+03,0.000000000000000000e+00,1.000000000000000082e-05,0.000000000000000000e+00,5.000000000000000240e-05,6.999999999999999387e-05,-5.000000000000000240e-05,-1.300000000000000157e-04,-1.000000000000000082e-05,2.000000000000000000e+00,3.000000000000000000e+00
5.463000000000000000e+03,0.000000000000000000e+00,1.000000000000000082e-05,0.000000000000000000e+00,5.000000000000000240e-05,6.999999999999999387e-05,-5.000000000000000240e-05,-1.300000000000000157e-04,-1.000000000000000082e-05,2.000000000000000000e+00,3.000000000000000000e+00
5.464000000000000000e+03,0.000000000000000000e+00,1.000000000000000082e-05,0.000000000000000000e+00,5.000000000000000240e-05,6.999999999999999387e-05,-5.000000000000000240e-05,-1.300000000000000157e-04,-1.000000000000000082e-05,2.000000000000000000e+00,3.000000000000000000e+00
5.465000000000000000e+03,0.000000000000000000e+00,1.000000000000000082e-05,0.000000000000000000e+00,5.000000000000000240e-05,6.999999999999999387e-05,-5.000000000000000240e-05,-1.300000000000000157e-04,-1.000000000000000082e-05,2.000000000000000000e+00,3.000000000000000000e+00
5.466000000000000000e+03,0.000000000000000000e+00,1.000000000000000082e-05,0.000000000000000000e+00,5.000000000000000240e-05,6.999999999999999387e-05,-5.000000000000000240e-05,-1.300000000000000157e-04,-1.000000000000000082e-05,2.000000000000000000e+00,3.000000000000000000e+00
5.467000000000000000e+03,0.000000000000000000e+00,1.000000000000000082e-05,0.000000000000000000e+00,5.000000000000000240e-05,6.999999999999999387e-05,-5.000000000000000240e-05,-1.300000000000000157e-04,-1.000000000000000082e-05,2.000000000000000000e+00,3.000000000000000000e+00
5.468000000000000000e+03,0.000000000000000000e+00,1.000000000000000082e-05,0.000000000000000000e+00,5.000000000000000240e-05,6.999999999999999387e-05,-5.000000000000000240e-05,-1.300000000000000157e-04,-1.000000000000000082e-05,2.000000000000000000e+00,3.000000000000000000e+00
5.469000000000000000e+03,-2.000000000000000164e-05,0.000000000000000000e+00,-5.999999999999999474e-05,-8.000000000000000654e-05,-4.000000000000000327e-05,-4.000000000000000327e-05,-5.999999999999999474e-05,-1.000000000000000082e-05,2.000000000000000000e+00,3.000000000000000000e+00
5.470000000000000000e+03,-2.999999999999999737e-05,-4.000000000000000327e-05,-6.999999999999999387e-05,-8.000000000000000654e-05,-5.999999999999999474e-05,-2.999999999999999737e-05,0.000000000000000000e+00,-1.000000000000000082e-05,2.000000000000000000e+00,3.000000000000000000e+00
5.472000000000000000e+03,-2.999999999999999737e-05,-4.000000000000000327e-05,-6.999999999999999387e-05,-8.000000000000000654e-05,-5.999999999999999474e-05,-2.999999999999999737e-05,0.000000000000000000e+00,-1.000000000000000082e-05,2.000000000000000000e+00,3.000000000000000000e+00
5.473000000000000000e+03,-2.999999999999999737e-05,-4.000000000000000327e-05,-6.999999999999999387e-05,-8.000000000000000654e-05,-5.999999999999999474e-05,-2.999999999999999737e-05,0.000000000000000000e+00,-1.000000000000000082e-05,2.000000000000000000e+00,3.000000000000000000e+00
5.474000000000000000e+03,-2.999999999999999737e-05,-4.000000000000000327e-05,-6.999999999999999387e-05,-8.000000000000000654e-05,-5.999999999999999474e-05,-2.999999999999999737e-05,0.000000000000000000e+00,-1.000000000000000082e-05,2.000000000000000000e+00,3.000000000000000000e+00
5.475000000000000000e+03,-2.999999999999999737e-05,-4.000000000000000327e-05,-6.999999999999999387e-05,-8.000000000000000654e-05,-5.999999999999999474e-05,-2.999999999999999737e-05,0.000000000000000000e+00,-1.000000000000000082e-05,2.000000000000000000e+00,3.000000000000000000e+00
5.476000000000000000e+03,-2.999999999999999737e-05,-4.000000000000000327e-05,-6.999999999999999387e-05,-8.000000000000000654e-05,-5.999999999999999474e-05,-2.999999999999999737e-05,0.000000000000000000e+00,-1.000000000000000082e-05,2.000000000000000000e+00,3.000000000000000000e+00
5.477000000000000000e+03,-2.999999999999999737e-05,-4.000000000000000327e-05,-6.999999999999999387e-05,-8.000000000000000654e-05,-5.999999999999999474e-05,-2.999999999999999737e-05,0.000000000000000000e+00,-1.000000000000000082e-05,2.000000000000000000e+00,3.000000000000000000e+00
5.478000000000000000e+03,-2.999999999999999737e-05,-4.000000000000000327e-05,-6.999999999999999387e-05,-8.000000000000000654e-05,-5.999999999999999474e-05,-2.999999999999999737e-05,0.000000000000000000e+00,-1.000000000000000082e-05,2.000000000000000000e+00,3.000000000000000000e+00
5.479000000000000000e+03,-2.999999999999999737e-05,-4.000000000000000327e-05,-6.999999999999999387e-05,-8.000000000000000654e-05,-5.999999999999999474e-05,-2.999999999999999737e-05,0.000000000000000000e+00,-1.000000000000000082e-05,2.000000000000000000e+00,3.000000000000000000e+00
5.480000000000000000e+03,-2.999999999999999737e-05,-4.000000000000000327e-05,-6.999999999999999387e-05,-8.000000000000000654e-05,-5.999999999999999474e-05,-2.999999999999999737e-05,0.000000000000000000e+00,-1.000000000000000082e-05,2.000000000000000000e+00,3.000000000000000000e+00
5.481000000000000000e+03,-2.999999999999999737e-05,-4.000000000000000327e-05,-6.999999999999999387e-05,-8.000000000000000654e-05,-5.999999999999999474e-05,-2.999999999999999737e-05,0.000000000000000000e+00,-1.000000000000000082e-05,2.000000000000000000e+00,3.000000000000000000e+00
5.482000000000000000e+03,-2.999999999999999737e-05,-4.000000000000000327e-05,-6.999999999999999387e-05,-8.000000000000000654e-05,-5.999999999999999474e-05,-2.999999999999999737e-05,0.000000000000000000e+00,-1.000000000000000082e-05,2.000000000000000000e+00,3.000000000000000000e+00
5.483000000000000000e+03,-2.999999999999999737e-05,-4.000000000000000327e-05,-6.999999999999999387e-05,-8.000000000000000654e-05,-5.999999999999999474e-05,-2.999999999999999737e-05,0.000000000000000000e+00,-1.000000000000000082e-05,2.000000000000000000e+00,3.000000000000000000e+00
5.484000000000000000e+03,-2.999999999999999737e-05,-4.000000000000000327e-05,-6.999999999999999387e-05,-8.000000000000000654e-05,-5.999999999999999474e-05,-2.999999999999999737e-05,0.000000000000000000e+00,-1.000000000000000082e-05,2.000000000000000000e+00,3.000000000000000000e+00
5.485000000000000000e+03,-2.999999999999999737e-05,-4.000000000000000327e-05,-6.999999999999999387e-05,-8.000000000000000654e-05,-5.999999999999999474e-05,-2.999999999999999737e-05,0.000000000000000000e+00,-1.000000000000000082e-05,2.000000000000000000e+00,3.000000000000000000e+00
5.486000000000000000e+03,-2.999999999999999737e-05,-4.000000000000000327e-05,-6.999999999999999387e-05,-8.000000000000000654e-05,-5.999999999999999474e-05,-2.999999999999999737e-05,0.000000000000000000e+00,-1.000000000000000082e-05,2.000000000000000000e+00,3.000000000000000000e+00
5.488000000000000000e+03,-2.999999999999999737e-05,-4.000000000000000327e-05,-6.999999999999999387e-05,-8.000000000000000654e-05,-5.999999999999999474e-05,-2.999999999999999737e-05,0.000000000000000000e+00,-1.000000000000000082e-05,2.000000000000000000e+00,3.000000000000000000e+00
5.489000000000000000e+03,-2.999999999999999737e-05,-4.000000000000000327e-05,-6.999999999999999387e-05,-8.000000000000000654e-05,-5.999999999999999474e-05,-2.999999999999999737e-05,0.000000000000000000e+00,-1.000000000000000082e-05,2.000000000000000000e+00,3.000000000000000000e+00
5.490000000000000000e+03,-2.999999999999999737e-05,-4.000000000000000327e-05,-6.999999999999999387e-05,-8.000000000000000654e-05,-5.999999999999999474e-05,-2.999999999999999737e-05,0.000000000000000000e+00,-1.000000000000000082e-05,2.000000000000000000e+00,3.000000000000000000e+00
5.491000000000000000e+03,1.000000000000000082e-05,1.000000000000000082e-05,8.000000000000000654e-05,1.000000000000000048e-04,0.000000000000000000e+00,-8.000000000000000654e-05,-2.100000000000000087e-04,-2.000000000000000164e-05,2.000000000000000000e+00,3.000000000000000000e+00
5.492000000000000000e+03,1.000000000000000082e-05,1.000000000000000082e-05,8.000000000000000654e-05,1.000000000000000048e-04,0.000000000000000000e+00,-8.000000000000000654e-05,-2.100000000000000087e-04,-2.000000000000000164e-05,2.000000000000000000e+00,3.000000000000000000e+00
5.493000000000000000e+03,-4.000000000000000327e-05,-9.000000000000000567e-05,-2.299999999999999799e-04,-1.199999999999999895e-04,-4.000000000000000327e-05,-1.499999999999999869e-04,-1.100000000000000039e-04,-5.999999999999999474e-05,2.000000000000000000e+00,3.000000000000000000e+00
5.494000000000000000e+03,-4.000000000000000327e-05,-9.000000000000000567e-05,-2.299999999999999799e-04,-1.199999999999999895e-04,-4.000000000000000327e-05,-1.499999999999999869e-04,-1.100000000000000039e-04,-5.999999999999999474e-05,2.000000000000000000e+00,3.000000000000000000e+00
5.495000000000000000e+03,-4.000000000000000327e-05,-9.000000000000000567e-05,-2.299999999999999799e-04,-1.199999999999999895e-04,-4.000000000000000327e-05,-1.499999999999999869e-04,-1.100000000000000039e-04,-5.999999999999999474e-05,2.000000000000000000e+00,3.000000000000000000e+00
5.496000000000000000e+03,-4.000000000000000327e-05,-9.000000000000000567e-05,-2.299999999999999799e-04,-1.199999999999999895e-04,-4.000000000000000327e-05,-1.499999999999999869e-04,-1.100000000000000039e-04,-5.999999999999999474e-05,2.000000000000000000e+00,3.000000000000000000e+00
5.497000000000000000e+03,-4.000000000000000327e-05,-9.000000000000000567e-05,-2.299999999999999799e-04,-1.199999999999999895e-04,-4.000000000000000327e-05,-1.499999999999999869e-04,-1.100000000000000039e-04,-5.999999999999999474e-05,2.000000000000000000e+00,3.000000000000000000e+00
5.498000000000000000e+03,-4.000000000000000327e-05,-9.000000000000000567e-05,-2.299999999999999799e-04,-1.199999999999999895e-04,-4.000000000000000327e-05,-1.499999999999999869e-04,-1.100000000000000039e-04,-5.999999999999999474e-05,2.000000000000000000e+00,3.000000000000000000e+00
5.499000000000000000e+03,-4.000000000000000327e-05,-9.000000000000000567e-05,-2.299999999999999799e-04,-1.199999999999999895e-04,-4.000000000000000327e-05,-1.499999999999999869e-04,-1.100000000000000039e-04,-5.999999999999999474e-05,2.000000000000000000e+00,3.000000000000000000e+00
5.500000000000000000e+03,-4.000000000000000327e-05,-9.000000000000000567e-05,-2.299999999999999799e-04,-1.199999999999999895e-04,-4.000000000000000327e-05,-1.499999999999999869e-04,-1.100000000000000039e-04,-5.999999999999999474e-05,2.000000000000000000e+00,3.000000000000000000e+00
5.501000000000000000e+03,-4.000000000000000327e-05,-9.000000000000000567e-05,-2.299999999999999799e-04,-1.199999999999999895e-04,-4.000000000000000327e-05,-1.499999999999999869e-04,-1.100000000000000039e-04,-5.999999999999999474e-05,2.000000000000000000e+00,3.000000000000000000e+00
5.502000000000000000e+03,-4.000000000000000327e-05,-9.000000000000000567e-05,-2.299999999999999799e-04,-1.199999999999999895e-04,-4.000000000000000327e-05,-1.499999999999999869e-04,-1.100000000000000039e-04,-5.999999999999999474e-05,2.000000000000000000e+00,3.000000000000000000e+00
5.503000000000000000e+03,-4.000000000000000327e-05,-9.000000000000000567e-05,-2.299999999999999799e-04,-1.199999999999999895e-04,-4.000000000000000327e-05,-1.499999999999999869e-04,-1.100000000000000039e-04,-5.999999999999999474e-05,2.000000000000000000e+00,3.000000000000000000e+00
5.504000000000000000e+03,-4.000000000000000327e-05,-9.000000000000000567e-05,-2.299999999999999799e-04,-1.199999999999999895e-04,-4.000000000000000327e-05,-1.499999999999999869e-04,-1.100000000000000039e-04,-5.999999999999999474e-05,2.000000000000000000e+00,3.000000000000000000e+00
5.505000000000000000e+03,-1.000000000000000082e-05,-2.999999999999999737e-05,2.000000000000000164e-05,8.000000000000000654e-05,-1.000000000000000082e-05,1.000000000000000082e-05,2.000000000000000164e-05,2.000000000000000164e-05,2.000000000000000000e+00,3.000000000000000000e+00
5.506000000000000000e+03,-1.000000000000000082e-05,1.000000000000000082e-05,2.000000000000000164e-05,-4.000000000000000327e-05,-1.000000000000000082e-05,2.999999999999999737e-05,1.199999999999999895e-04,2.000000000000000164e-05,2.000000000000000000e+00,3.000000000000000000e+00
5.507000000000000000e+03,-1.000000000000000082e-05,1.000000000000000082e-05,2.000000000000000164e-05,-4.000000000000000327e-05,-1.000000000000000082e-05,2.999999999999999737e-05,1.199999999999999895e-04,2.000000000000000164e-05,2.000000000000000000e+00,3.000000000000000000e+00
5.508000000000000000e+03,-1.000000000000000082e-05,1.000000000000000082e-05,2.000000000000000164e-05,-4.000000000000000327e-05,-1.000000000000000082e-05,2.999999999999999737e-05,1.199999999999999895e-04,2.000000000000000164e-05,2.000000000000000000e+00,3.000000000000000000e+00
5.509000000000000000e+03,-1.000000000000000082e-05,1.000000000000000082e-05,2.000000000000000164e-05,-4.000000000000000327e-05,-1.000000000000000082e-05,2.999999999999999737e-05,1.199999999999999895e-04,2.000000000000000164e-05,2.000000000000000000e+00,3.000000000000000000e+00
5.510000000000000000e+03,-1.000000000000000082e-05,1.000000000000000082e-05,2.000000000000000164e-05,-4.000000000000000327e-05,-1.000000000000000082e-05,2.999999999999999737e-05,1.199999999999999895e-04,2.000000000000000164e-05,2.000000000000000000e+00,3.000000000000000000e+00
5.511000000000000000e+03,-1.000000000000000082e-05,1.000000000000000082e-05,2.000000000000000164e-05,-4.000000000000000327e-05,-1.000000000000000082e-05,2.999999999999999737e-05,1.199999999999999895e-04,2.000000000000000164e-05,2.000000000000000000e+00,3.000000000000000000e+00
5.512000000000000000e+03,0.000000000000000000e+00,-2.000000000000000164e-05,-8.000000000000000654e-05,-1.199999999999999895e-04,-1.000000000000000082e-05,-8.000000000000000654e-05,-2.000000000000000164e-05,0.000000000000000000e+00,2.000000000000000000e+00,3.000000000000000000e+00
5.513000000000000000e+03,0.000000000000000000e+00,-2.000000000000000164e-05,-8.000000000000000654e-05,-1.199999999999999895e-04,-1.000000000000000082e-05,-8.000000000000000654e-05,-2.000000000000000164e-05,0.000000000000000000e+00,2.000000000000000000e+00,3.000000000000000000e+00
5.514000000000000000e+03,0.000000000000000000e+00,-2.000000000000000164e-05,-8.000000000000000654e-05,-1.199999999999999895e-04,-1.000000000000000082e-05,-8.000000000000000654e-05,-2.000000000000000164e-05,0.000000000000000000e+00,2.000000000000000000e+00,3.000000000000000000e+00
5.515000000000000000e+03,0.000000000000000000e+00,-2.000000000000000164e-05,-8.000000000000000654e-05,-1.199999999999999895e-04,-1.000000000000000082e-05,-8.000000000000000654e-05,-2.000000000000000164e-05,0.000000000000000000e+00,2.000000000000000000e+00,3.000000000000000000e+00
5.516000000000000000e+03,0.000000000000000000e+00,-2.000000000000000164e-05,-8.000000000000000654e-05,-1.199999999999999895e-04,-1.000000000000000082e-05,-8.000000000000000654e-05,-2.000000000000000164e-05,0.000000000000000000e+00,2.000000000000000000e+00,3.000000000000000000e+00
5.517000000000000000e+03,0.000000000000000000e+00,-2.000000000000000164e-05,-8.000000000000000654e-05,-1.199999999999999895e-04,-1.000000000000000082e-05,-8.000000000000000654e-05,-2.000000000000000164e-05,0.000000000000000000e+00,2.000000000000000000e+00,3.000000000000000000e+00
5.518000000000000000e+03,0.000000000000000000e+00,-2.000000000000000164e-05,-8.000000000000000654e-05,-1.199999999999999895e-04,-1.000000000000000082e-05,-8.000000000000000654e-05,-2.000000000000000164e-05,0.000000000000000000e+00,2.000000000000000000e+00,3.000000000000000000e+00
5.519000000000000000e+03,0.000000000000000000e+00,-2.000000000000000164e-05,-8.000000000000000654e-05,-1.199999999999999895e-04,-1.000000000000000082e-05,-8.000000000000000654e-05,-2.000000000000000164e-05,0.000000000000000000e+00,2.000000000000000000e+00,3.000000000000000000e+00
5.520000000000000000e+03,0.000000000000000000e+00,-2.000000000000000164e-05,-8.000000000000000654e-05,-1.199999999999999895e-04,-1.000000000000000082e-05,-8.000000000000000654e-05,-2.000000000000000164e-05,0.000000000000000000e+00,2.000000000000000000e+00,3.000000000000000000e+00
5.521000000000000000e+03,0.000000000000000000e+00,-2.000000000000000164e-05,-8.000000000000000654e-05,-1.199999999999999895e-04,-1.000000000000000082e-05,-8.000000000000000654e-05,-2.000000000000000164e-05,0.000000000000000000e+00,2.000000000000000000e+00,3.000000000000000000e+00
5.522000000000000000e+03,0.000000000000000000e+00,-2.000000000000000164e-05,-8.000000000000000654e-05,-1.199999999999999895e-04,-1.000000000000000082e-05,-8.000000000000000654e-05,-2.000000000000000164e-05,0.000000000000000000e+00,2.000000000000000000e+00,3.000000000000000000e+00
5.523000000000000000e+03,0.000000000000000000e+00,-2.000000000000000164e-05,-8.000000000000000654e-05,-1.199999999999999895e-04,-1.000000000000000082e-05,-8.000000000000000654e-05,-2.000000000000000164e-05,0.000000000000000000e+00,2.000000000000000000e+00,3.000000000000000000e+00
5.524000000000000000e+03,0.000000000000000000e+00,-2.000000000000000164e-05,-8.000000000000000654e-05,-1.199999999999999895e-04,-1.000000000000000082e-05,-8.000000000000000654e-05,-2.000000000000000164e-05,0.000000000000000000e+00,2.000000000000000000e+00,3.000000000000000000e+00
5.525000000000000000e+03,0.000000000000000000e+00,-2.000000000000000164e-05,-8.000000000000000654e-05,-1.199999999999999895e-04,-1.000000000000000082e-05,-8.000000000000000654e-05,-2.000000000000000164e-05,0.000000000000000000e+00,2.000000000000000000e+00,3.000000000000000000e+00
5.526000000000000000e+03,0.000000000000000000e+00,-2.000000000000000164e-05,-8.000000000000000654e-05,-1.199999999999999895e-04,-1.000000000000000082e-05,-8.000000000000000654e-05,-2.000000000000000164e-05,0.000000000000000000e+00,2.000000000000000000e+00,3.000000000000000000e+00
5.527000000000000000e+03,0.000000000000000000e+00,-2.000000000000000164e-05,-8.000000000000000654e-05,-1.199999999999999895e-04,-1.000000000000000082e-05,-8.000000000000000654e-05,-2.000000000000000164e-05,0.000000000000000000e+00,2.000000000000000000e+00,3.000000000000000000e+00
5.528000000000000000e+03,0.000000000000000000e+00,-2.000000000000000164e-05,-8.000000000000000654e-05,-1.199999999999999895e-04,-1.000000000000000082e-05,-8.000000000000000654e-05,-2.000000000000000164e-05,0.000000000000000000e+00,2.000000000000000000e+00,3.000000000000000000e+00
5.529000000000000000e+03,0.000000000000000000e+00,0.000000000000000000e+00,2.000000000000000164e-05,9.000000000000000567e-05,0.000000000000000000e+00,-1.000000000000000082e-05,-2.000000000000000164e-05,-2.999999999999999737e-05,2.000000000000000000e+00,3.000000000000000000e+00
5.530000000000000000e+03,-2.999999999999999737e-05,-1.000000000000000082e-05,0.000000000000000000e+00,-1.600000000000000131e-04,-2.000000000000000164e-05,-5.999999999999999474e-05,-8.000000000000000654e-05,-2.000000000000000164e-05,2.000000000000000000e+00,3.000000000000000000e+00
5.532000000000000000e+03,-2.999999999999999737e-05,-1.000000000000000082e-05,0.000000000000000000e+00,-1.600000000000000131e-04,-2.000000000000000164e-05,-5.999999999999999474e-05,-8.000000000000000654e-05,-2.000000000000000164e-05,2.000000000000000000e+00,3.000000000000000000e+00
5.533000000000000000e+03,-2.999999999999999737e-05,-1.000000000000000082e-05,0.000000000000000000e+00,-1.600000000000000131e-04,-2.000000000000000164e-05,-5.999999999999999474e-05,-8.000000000000000654e-05,-2.000000000000000164e-05,2.000000000000000000e+00,3.000000000000000000e+00
5.534000000000000000e+03,-2.999999999999999737e-05,-1.000000000000000082e-05,0.000000000000000000e+00,-1.600000000000000131e-04,-2.000000000000000164e-05,-5.999999999999999474e-05,-8.000000000000000654e-05,-2.000000000000000164e-05,2.000000000000000000e+00,3.000000000000000000e+00
5.535000000000000000e+03,-2.999999999999999737e-05,-1.000000000000000082e-05,0.000000000000000000e+00,-1.600000000000000131e-04,-2.000000000000000164e-05,-5.999999999999999474e-05,-8.000000000000000654e-05,-2.000000000000000164e-05,2.000000000000000000e+00,3.000000000000000000e+00
5.536000000000000000e+03,-2.999999999999999737e-05,-1.000000000000000082e-05,0.000000000000000000e+00,-1.600000000000000131e-04,-2.000000000000000164e-05,-5.999999999999999474e-05,-8.000000000000000654e-05,-2.000000000000000164e-05,2.000000000000000000e+00,3.000000000000000000e+00
5.538000000000000000e+03,-2.999999999999999737e-05,-1.000000000000000082e-05,0.000000000000000000e+00,-1.600000000000000131e-04,-2.000000000000000164e-05,-5.999999999999999474e-05,-8.000000000000000654e-05,-2.000000000000000164e-05,2.000000000000000000e+00,3.000000000000000000e+00
5.539000000000000000e+03,-2.999999999999999737e-05,-1.000000000000000082e-05,0.000000000000000000e+00,-1.600000000000000131e-04,-2.000000000000000164e-05,-5.999999999999999474e-05,-8.000000000000000654e-05,-2.000000000000000164e-05,2.000000000000000000e+00,3.000000000000000000e+00
5.540000000000000000e+03,-2.999999999999999737e-05,-1.000000000000000082e-05,0.000000000000000000e+00,-1.600000000000000131e-04,-2.000000000000000164e-05,-5.999999999999999474e-05,-8.000000000000000654e-05,-2.000000000000000164e-05,2.000000000000000000e+00,3.000000000000000000e+00
5.541000000000000000e+03,-2.999999999999999737e-05,-1.000000000000000082e-05,0.000000000000000000e+00,-1.600000000000000131e-04,-2.000000000000000164e-05,-5.999999999999999474e-05,-8.000000000000000654e-05,-2.000000000000000164e-05,2.000000000000000000e+00,3.000000000000000000e+00
5.542000000000000000e+03,-2.999999999999999737e-05,-1.000000000000000082e-05,0.000000000000000000e+00,-1.600000000000000131e-04,-2.000000000000000164e-05,-5.999999999999999474e-05,-8.000000000000000654e-05,-2.000000000000000164e-05,2.000000000000000000e+00,3.000000000000000000e+00
5.543000000000000000e+03,-2.999999999999999737e-05,-1.000000000000000082e-05,0.000000000000000000e+00,-1.600000000000000131e-04,-2.000000000000000164e-05,-5.999999999999999474e-05,-8.000000000000000654e-05,-2.000000000000000164e-05,2.000000000000000000e+00,3.000000000000000000e+00
5.544000000000000000e+03,-2.999999999999999737e-05,-1.000000000000000082e-05,0.000000000000000000e+00,-1.600000000000000131e-04,-2.000000000000000164e-05,-5.999999999999999474e-05,-8.000000000000000654e-05,-2.000000000000000164e-05,2.000000000000000000e+00,3.000000000000000000e+00
5.545000000000000000e+03,-2.999999999999999737e-05,-1.000000000000000082e-05,0.000000000000000000e+00,-1.600000000000000131e-04,-2.000000000000000164e-05,-5.999999999999999474e-05,-8.000000000000000654e-05,-2.000000000000000164e-05,2.000000000000000000e+00,3.000000000000000000e+00
5.546000000000000000e+03,-2.999999999999999737e-05,-1.000000000000000082e-05,0.000000000000000000e+00,-1.600000000000000131e-04,-2.000000000000000164e-05,-5.999999999999999474e-05,-8.000000000000000654e-05,-2.000000000000000164e-05,2.000000000000000000e+00,3.000000000000000000e+00
5.547000000000000000e+03,-2.999999999999999737e-05,-1.000000000000000082e-05,0.000000000000000000e+00,-1.600000000000000131e-04,-2.000000000000000164e-05,-5.999999999999999474e-05,-8.000000000000000654e-05,-2.000000000000000164e-05,2.000000000000000000e+00,3.000000000000000000e+00
5.548000000000000000e+03,-2.999999999999999737e-05,-1.000000000000000082e-05,0.000000000000000000e+00,-1.600000000000000131e-04,-2.000000000000000164e-05,-5.999999999999999474e-05,-8.000000000000000654e-05,-2.000000000000000164e-05,2.000000000000000000e+00,3.000000000000000000e+00
5.549000000000000000e+03,-2.999999999999999737e-05,-1.000000000000000082e-05,0.000000000000000000e+00,-1.600000000000000131e-04,-2.000000000000000164e-05,-5.999999999999999474e-05,-8.000000000000000654e-05,-2.000000000000000164e-05,2.000000000000000000e+00,3.000000000000000000e+00
5.550000000000000000e+03,-2.999999999999999737e-05,-1.000000000000000082e-05,0.000000000000000000e+00,-1.600000000000000131e-04,-2.000000000000000164e-05,-5.999999999999999474e-05,-8.000000000000000654e-05,-2.000000000000000164e-05,2.000000000000000000e+00,3.000000000000000000e+00
5.551000000000000000e+03,-2.999999999999999737e-05,-5.000000000000000240e-05,-1.100000000000000039e-04,-8.000000000000000654e-05,2.999999999999999737e-05,2.000000000000000164e-05,-4.000000000000000327e-05,2.999999999999999737e-05,2.000000000000000000e+00,3.000000000000000000e+00
5.552000000000000000e+03,-2.999999999999999737e-05,-5.000000000000000240e-05,-1.100000000000000039e-04,-8.000000000000000654e-05,2.999999999999999737e-05,2.000000000000000164e-05,-4.000000000000000327e-05,2.999999999999999737e-05,2.000000000000000000e+00,3.000000000000000000e+00
5.553000000000000000e+03,0.000000000000000000e+00,-1.000000000000000082e-05,2.999999999999999737e-05,2.999999999999999737e-05,-2.000000000000000164e-05,-2.999999999999999737e-05,-5.999999999999999474e-05,-4.000000000000000327e-05,2.000000000000000000e+00,3.000000000000000000e+00
5.554000000000000000e+03,0.000000000000000000e+00,-1.000000000000000082e-05,2.999999999999999737e-05,2.999999999999999737e-05,-2.000000000000000164e-05,-2.999999999999999737e-05,-5.999999999999999474e-05,-4.000000000000000327e-05,2.000000000000000000e+00,3.000000000000000000e+00
5.555000000000000000e+03,0.000000000000000000e+00,-1.000000000000000082e-05,2.999999999999999737e-05,2.999999999999999737e-05,-2.000000000000000164e-05,-2.999999999999999737e-05,-5.999999999999999474e-05,-4.000000000000000327e-05,2.000000000000000000e+00,3.000000000000000000e+00
5.556000000000000000e+03,0.000000000000000000e+00,-1.000000000000000082e-05,2.999999999999999737e-05,2.999999999999999737e-05,-2.000000000000000164e-05,-2.999999999999999737e-05,-5.999999999999999474e-05,-4.000000000000000327e-05,2.000000000000000000e+00,3.000000000000000000e+00
5.557000000000000000e+03,0.000000000000000000e+00,-1.000000000000000082e-05,2.999999999999999737e-05,2.999999999999999737e-05,-2.000000000000000164e-05,-2.999999999999999737e-05,-5.999999999999999474e-05,-4.000000000000000327e-05,2.000000000000000000e+00,3.000000000000000000e+00
5.558000000000000000e+03,0.000000000000000000e+00,-1.000000000000000082e-05,2.999999999999999737e-05,2.999999999999999737e-05,-2.000000000000000164e-05,-2.999999999999999737e-05,-5.999999999999999474e-05,-4.000000000000000327e-05,2.000000000000000000e+00,3.000000000000000000e+00
5.559000000000000000e+03,0.000000000000000000e+00,-1.000000000000000082e-05,2.999999999999999737e-05,2.999999999999999737e-05,-2.000000000000000164e-05,-2.999999999999999737e-05,-5.999999999999999474e-05,-4.000000000000000327e-05,2.000000000000000000e+00,3.000000000000000000e+00
5.560000000000000000e+03,0.000000000000000000e+00,-1.000000000000000082e-05,2.999999999999999737e-05,2.999999999999999737e-05,-2.000000000000000164e-05,-2.999999999999999737e-05,-5.999999999999999474e-05,-4.000000000000000327e-05,2.000000000000000000e+00,3.000000000000000000e+00
5.561000000000000000e+03,0.000000000000000000e+00,-1.000000000000000082e-05,2.999999999999999737e-05,2.999999999999999737e-05,-2.000000000000000164e-05,-2.999999999999999737e-05,-5.999999999999999474e-05,-4.000000000000000327e-05,2.000000000000000000e+00,3.000000000000000000e+00
5.562000000000000000e+03,0.000000000000000000e+00,-1.000000000000000082e-05,2.999999999999999737e-05,2.999999999999999737e-05,-2.000000000000000164e-05,-2.999999999999999737e-05,-5.999999999999999474e-05,-4.000000000000000327e-05,2.000000000000000000e+00,3.000000000000000000e+00
5.563000000000000000e+03,0.000000000000000000e+00,-1.000000000000000082e-05,2.999999999999999737e-05,2.999999999999999737e-05,-2.000000000000000164e-05,-2.999999999999999737e-05,-5.999999999999999474e-05,-4.000000000000000327e-05,2.000000000000000000e+00,3.000000000000000000e+00
5.564000000000000000e+03,0.000000000000000000e+00,-1.000000000000000082e-05,2.999999999999999737e-05,2.999999999999999737e-05,-2.000000000000000164e-05,-2.999999999999999737e-05,-5.999999999999999474e-05,-4.000000000000000327e-05,2.000000000000000000e+00,3.000000000000000000e+00
5.565000000000000000e+03,-2.000000000000000164e-05,0.000000000000000000e+00,-4.000000000000000327e-05,1.000000000000000082e-05,0.000000000000000000e+00,-5.000000000000000240e-05,-1.199999999999999895e-04,-5.999999999999999474e-05,2.000000000000000000e+00,3.000000000000000000e+00
5.566000000000000000e+03,-1.000000000000000082e-05,-4.000000000000000327e-05,-2.000000000000000164e-05,-4.000000000000000327e-05,-2.999999999999999737e-05,2.000000000000000164e-05,5.000000000000000240e-05,-2.000000000000000164e-05,2.000000000000000000e+00,3.000000000000000000e+00
5.568000000000000000e+03,-1.000000000000000082e-05,-4.000000000000000327e-05,-2.000000000000000164e-05,-4.000000000000000327e-05,-2.999999999999999737e-05,2.000000000000000164e-05,5.000000000000000240e-05,-2.000000000000000164e-05,2.000000000000000000e+00,3.000000000000000000e+00
5.569000000000000000e+03,-1.000000000000000082e-05,-4.000000000000000327e-05,-2.000000000000000164e-05,-4.000000000000000327e-05,-2.999999999999999737e-05,2.000000000000000164e-05,5.000000000000000240e-05,-2.000000000000000164e-05,2.000000000000000000e+00,3.000000000000000000e+00
5.570000000000000000e+03,-1.000000000000000082e-05,-4.000000000000000327e-05,-2.000000000000000164e-05,-4.000000000000000327e-05,-2.999999999999999737e-05,2.000000000000000164e-05,5.000000000000000240e-05,-2.000000000000000164e-05,2.000000000000000000e+00,3.000000000000000000e+00
5.571000000000000000e+03,-1.000000000000000082e-05,-4.000000000000000327e-05,-2.000000000000000164e-05,-4.000000000000000327e-05,-2.999999999999999737e-05,2.000000000000000164e-05,5.000000000000000240e-05,-2.000000000000000164e-05,2.000000000000000000e+00,3.000000000000000000e+00
5.572000000000000000e+03,-2.000000000000000164e-05,1.000000000000000082e-05,5.000000000000000240e-05,-1.000000000000000082e-05,2.000000000000000164e-05,-2.999999999999999737e-05,8.000000000000000654e-05,2.999999999999999737e-05,2.000000000000000000e+00,3.000000000000000000e+00
5.573000000000000000e+03,-2.000000000000000164e-05,1.000000000000000082e-05,5.000000000000000240e-05,-1.000000000000000082e-05,2.000000000000000164e-05,-2.999999999999999737e-05,8.000000000000000654e-05,2.999999999999999737e-05,2.000000000000000000e+00,3.000000000000000000e+00
5.574000000000000000e+03,-2.000000000000000164e-05,1.000000000000000082e-05,5.000000000000000240e-05,-1.000000000000000082e-05,2.000000000000000164e-05,-2.999999999999999737e-05,8.000000000000000654e-05,2.999999999999999737e-05,2.000000000000000000e+00,3.000000000000000000e+00
5.575000000000000000e+03,-2.000000000000000164e-05,1.000000000000000082e-05,5.000000000000000240e-05,-1.000000000000000082e-05,2.000000000000000164e-05,-2.999999999999999737e-05,8.000000000000000654e-05,2.999999999999999737e-05,2.000000000000000000e+00,3.000000000000000000e+00
5.576000000000000000e+03,-2.000000000000000164e-05,1.000000000000000082e-05,5.000000000000000240e-05,-1.000000000000000082e-05,2.000000000000000164e-05,-2.999999999999999737e-05,8.000000000000000654e-05,2.999999999999999737e-05,2.000000000000000000e+00,3.000000000000000000e+00
5.577000000000000000e+03,-2.000000000000000164e-05,1.000000000000000082e-05,5.000000000000000240e-05,-1.000000000000000082e-05,2.000000000000000164e-05,-2.999999999999999737e-05,8.000000000000000654e-05,2.999999999999999737e-05,2.000000000000000000e+00,3.000000000000000000e+00
5.578000000000000000e+03,-2.000000000000000164e-05,1.000000000000000082e-05,5.000000000000000240e-05,-1.000000000000000082e-05,2.000000000000000164e-05,-2.999999999999999737e-05,8.000000000000000654e-05,2.999999999999999737e-05,2.000000000000000000e+00,3.000000000000000000e+00
5.579000000000000000e+03,-2.000000000000000164e-05,1.000000000000000082e-05,5.000000000000000240e-05,-1.000000000000000082e-05,2.000000000000000164e-05,-2.999999999999999737e-05,8.000000000000000654e-05,2.999999999999999737e-05,2.000000000000000000e+00,3.000000000000000000e+00
5.580000000000000000e+03,-2.000000000000000164e-05,1.000000000000000082e-05,5.000000000000000240e-05,-1.000000000000000082e-05,2.000000000000000164e-05,-2.999999999999999737e-05,8.000000000000000654e-05,2.999999999999999737e-05,2.000000000000000000e+00,3.000000000000000000e+00
5.581000000000000000e+03,-2.000000000000000164e-05,1.000000000000000082e-05,5.000000000000000240e-05,-1.000000000000000082e-05,2.000000000000000164e-05,-2.999999999999999737e-05,8.000000000000000654e-05,2.999999999999999737e-05,2.000000000000000000e+00,3.000000000000000000e+00
5.582000000000000000e+03,-2.000000000000000164e-05,1.000000000000000082e-05,5.000000000000000240e-05,-1.000000000000000082e-05,2.000000000000000164e-05,-2.999999999999999737e-05,8.000000000000000654e-05,2.999999999999999737e-05,2.000000000000000000e+00,3.000000000000000000e+00
5.583000000000000000e+03,-2.000000000000000164e-05,1.000000000000000082e-05,5.000000000000000240e-05,-1.000000000000000082e-05,2.000000000000000164e-05,-2.999999999999999737e-05,8.000000000000000654e-05,2.999999999999999737e-05,2.000000000000000000e+00,3.000000000000000000e+00
5.584000000000000000e+03,-2.000000000000000164e-05,1.000000000000000082e-05,5.000000000000000240e-05,-1.000000000000000082e-05,2.000000000000000164e-05,-2.999999999999999737e-05,8.000000000000000654e-05,2.999999999999999737e-05,2.000000000000000000e+00,3.000000000000000000e+00
5.585000000000000000e+03,-2.000000000000000164e-05,1.000000000000000082e-05,5.000000000000000240e-05,-1.000000000000000082e-05,2.000000000000000164e-05,-2.999999999999999737e-05,8.000000000000000654e-05,2.999999999999999737e-05,2.000000000000000000e+00,3.000000000000000000e+00
5.586000000000000000e+03,-2.000000000000000164e-05,1.000000000000000082e-05,5.000000000000000240e-05,-1.000000000000000082e-05,2.000000000000000164e-05,-2.999999999999999737e-05,8.000000000000000654e-05,2.999999999999999737e-05,2.000000000000000000e+00,3.000000000000000000e+00
5.588000000000000000e+03,-2.000000000000000164e-05,1.000000000000000082e-05,5.000000000000000240e-05,-1.000000000000000082e-05,2.000000000000000164e-05,-2.999999999999999737e-05,8.000000000000000654e-05,2.999999999999999737e-05,2.000000000000000000e+00,3.000000000000000000e+00
5.589000000000000000e+03,-2.000000000000000164e-05,1.000000000000000082e-05,2.999999999999999737e-05,2.000000000000000164e-05,-2.000000000000000164e-05,-1.000000000000000082e-05,1.000000000000000082e-05,-1.000000000000000082e-05,2.000000000000000000e+00,3.000000000000000000e+00
5.590000000000000000e+03,2.999999999999999737e-05,2.999999999999999737e-05,4.000000000000000327e-05,6.999999999999999387e-05,2.999999999999999737e-05,5.999999999999999474e-05,-5.999999999999999474e-05,-1.000000000000000082e-05,2.000000000000000000e+00,3.000000000000000000e+00
5.591000000000000000e+03,2.999999999999999737e-05,2.999999999999999737e-05,4.000000000000000327e-05,6.999999999999999387e-05,2.999999999999999737e-05,5.999999999999999474e-05,-5.999999999999999474e-05,-1.000000000000000082e-05,2.000000000000000000e+00,3.000000000000000000e+00
5.592000000000000000e+03,2.999999999999999737e-05,2.999999999999999737e-05,4.000000000000000327e-05,6.999999999999999387e-05,2.999999999999999737e-05,5.999999999999999474e-05,-5.999999999999999474e-05,-1.000000000000000082e-05,2.000000000000000000e+00,3.000000000000000000e+00
5.593000000000000000e+03,2.999999999999999737e-05,2.999999999999999737e-05,4.000000000000000327e-05,6.999999999999999387e-05,2.999999999999999737e-05,5.999999999999999474e-05,-5.999999999999999474e-05,-1.000000000000000082e-05,2.000000000000000000e+00,3.000000000000000000e+00
5.594000000000000000e+03,2.999999999999999737e-05,2.999999999999999737e-05,4.000000000000000327e-05,6.999999999999999387e-05,2.999999999999999737e-05,5.999999999999999474e-05,-5.999999999999999474e-05,-1.000000000000000082e-05,2.000000000000000000e+00,3.000000000000000000e+00
5.595000000000000000e+03,2.999999999999999737e-05,2.999999999999999737e-05,4.000000000000000327e-05,6.999999999999999387e-05,2.999999999999999737e-05,5.999999999999999474e-05,-5.999999999999999474e-05,-1.000000000000000082e-05,2.000000000000000000e+00,3.000000000000000000e+00
5.596000000000000000e+03,2.999999999999999737e-05,2.999999999999999737e-05,4.000000000000000327e-05,6.999999999999999387e-05,2.999999999999999737e-05,5.999999999999999474e-05,-5.999999999999999474e-05,-1.000000000000000082e-05,2.000000000000000000e+00,3.000000000000000000e+00
5.597000000000000000e+03,2.999999999999999737e-05,2.999999999999999737e-05,4.000000000000000327e-05,6.999999999999999387e-05,2.999999999999999737e-05,5.999999999999999474e-05,-5.999999999999999474e-05,-1.000000000000000082e-05,2.000000000000000000e+00,3.000000000000000000e+00
5.598000000000000000e+03,2.999999999999999737e-05,2.999999999999999737e-05,4.000000000000000327e-05,6.999999999999999387e-05,2.999999999999999737e-05,5.999999999999999474e-05,-5.999999999999999474e-05,-1.000000000000000082e-05,2.000000000000000000e+00,3.000000000000000000e+00
5.599000000000000000e+03,2.999999999999999737e-05,2.999999999999999737e-05,4.000000000000000327e-05,6.999999999999999387e-05,2.999999999999999737e-05,5.999999999999999474e-05,-5.999999999999999474e-05,-1.000000000000000082e-05,2.000000000000000000e+00,3.000000000000000000e+00
5.600000000000000000e+03,2.999999999999999737e-05,2.999999999999999737e-05,4.000000000000000327e-05,6.999999999999999387e-05,2.999999999999999737e-05,5.999999999999999474e-05,-5.999999999999999474e-05,-1.000000000000000082e-05,2.000000000000000000e+00,3.000000000000000000e+00
5.601000000000000000e+03,2.999999999999999737e-05,2.999999999999999737e-05,4.000000000000000327e-05,6.999999999999999387e-05,2.999999999999999737e-05,5.999999999999999474e-05,-5.999999999999999474e-05,-1.000000000000000082e-05,2.000000000000000000e+00,3.000000000000000000e+00
5.602000000000000000e+03,2.999999999999999737e-05,2.999999999999999737e-05,4.000000000000000327e-05,6.999999999999999387e-05,2.999999999999999737e-05,5.999999999999999474e-05,-5.999999999999999474e-05,-1.000000000000000082e-05,2.000000000000000000e+00,3.000000000000000000e+00
5.603000000000000000e+03,2.999999999999999737e-05,2.999999999999999737e-05,4.000000000000000327e-05,6.999999999999999387e-05,2.999999999999999737e-05,5.999999999999999474e-05,-5.999999999999999474e-05,-1.000000000000000082e-05,2.000000000000000000e+00,3.000000000000000000e+00
5.604000000000000000e+03,2.999999999999999737e-05,2.999999999999999737e-05,4.000000000000000327e-05,6.999999999999999387e-05,2.999999999999999737e-05,5.999999999999999474e-05,-5.999999999999999474e-05,-1.000000000000000082e-05,2.000000000000000000e+00,3.000000000000000000e+00
5.605000000000000000e+03,2.999999999999999737e-05,2.999999999999999737e-05,4.000000000000000327e-05,6.999999999999999387e-05,2.999999999999999737e-05,5.999999999999999474e-05,-5.999999999999999474e-05,-1.000000000000000082e-05,2.000000000000000000e+00,3.000000000000000000e+00
5.606000000000000000e+03,2.999999999999999737e-05,2.999999999999999737e-05,4.000000000000000327e-05,6.999999999999999387e-05,2.999999999999999737e-05,5.999999999999999474e-05,-5.999999999999999474e-05,-1.000000000000000082e-05,2.000000000000000000e+00,3.000000000000000000e+00
5.607000000000000000e+03,2.999999999999999737e-05,2.999999999999999737e-05,4.000000000000000327e-05,6.999999999999999387e-05,2.999999999999999737e-05,5.999999999999999474e-05,-5.999999999999999474e-05,-1.000000000000000082e-05,2.000000000000000000e+00,3.000000000000000000e+00
5.608000000000000000e+03,2.999999999999999737e-05,2.999999999999999737e-05,4.000000000000000327e-05,6.999999999999999387e-05,2.999999999999999737e-05,5.999999999999999474e-05,-5.999999999999999474e-05,-1.000000000000000082e-05,2.000000000000000000e+00,3.000000000000000000e+00
5.609000000000000000e+03,2.999999999999999737e-05,2.999999999999999737e-05,4.000000000000000327e-05,6.999999999999999387e-05,2.999999999999999737e-05,5.999999999999999474e-05,-5.999999999999999474e-05,-1.000000000000000082e-05,2.000000000000000000e+00,3.000000000000000000e+00
5.610000000000000000e+03,2.999999999999999737e-05,2.999999999999999737e-05,4.000000000000000327e-05,6.999999999999999387e-05,2.999999999999999737e-05,5.999999999999999474e-05,-5.999999999999999474e-05,-1.000000000000000082e-05,2.000000000000000000e+00,3.000000000000000000e+00
5.611000000000000000e+03,1.000000000000000082e-05,2.999999999999999737e-05,2.999999999999999737e-05,5.000000000000000240e-05,1.000000000000000082e-05,0.000000000000000000e+00,4.000000000000000327e-05,-2.999999999999999737e-05,2.000000000000000000e+00,3.000000000000000000e+00
5.612000000000000000e+03,1.000000000000000082e-05,2.999999999999999737e-05,2.999999999999999737e-05,5.000000000000000240e-05,1.000000000000000082e-05,0.000000000000000000e+00,4.000000000000000327e-05,-2.999999999999999737e-05,2.000000000000000000e+00,3.000000000000000000e+00
5.613000000000000000e+03,-2.999999999999999737e-05,-2.999999999999999737e-05,1.000000000000000082e-05,4.000000000000000327e-05,-1.000000000000000082e-05,-5.999999999999999474e-05,-9.000000000000000567e-05,-5.000000000000000240e-05,2.000000000000000000e+00,3.000000000000000000e+00
5.614000000000000000e+03,-2.999999999999999737e-05,-2.999999999999999737e-05,1.000000000000000082e-05,4.000000000000000327e-05,-1.000000000000000082e-05,-5.999999999999999474e-05,-9.000000000000000567e-05,-5.000000000000000240e-05,2.000000000000000000e+00,3.000000000000000000e+00
5.615000000000000000e+03,-2.999999999999999737e-05,-2.999999999999999737e-05,1.000000000000000082e-05,4.000000000000000327e-05,-1.000000000000000082e-05,-5.999999999999999474e-05,-9.000000000000000567e-05,-5.000000000000000240e-05,2.000000000000000000e+00,3.000000000000000000e+00
5.616000000000000000e+03,-2.999999999999999737e-05,-2.999999999999999737e-05,1.000000000000000082e-05,4.000000000000000327e-05,-1.000000000000000082e-05,-5.999999999999999474e-05,-9.000000000000000567e-05,-5.000000000000000240e-05,2.000000000000000000e+00,3.000000000000000000e+00
5.617000000000000000e+03,-2.999999999999999737e-05,-2.999999999999999737e-05,1.000000000000000082e-05,4.000000000000000327e-05,-1.000000000000000082e-05,-5.999999999999999474e-05,-9.000000000000000567e-05,-5.000000000000000240e-05,2.000000000000000000e+00,3.000000000000000000e+00
5.618000000000000000e+03,-2.999999999999999737e-05,-2.999999999999999737e-05,1.000000000000000082e-05,4.000000000000000327e-05,-1.000000000000000082e-05,-5.999999999999999474e-05,-9.000000000000000567e-05,-5.000000000000000240e-05,2.000000000000000000e+00,3.000000000000000000e+00
5.619000000000000000e+03,-2.999999999999999737e-05,-2.999999999999999737e-05,1.000000000000000082e-05,4.000000000000000327e-05,-1.000000000000000082e-05,-5.999999999999999474e-05,-9.000000000000000567e-05,-5.000000000000000240e-05,2.000000000000000000e+00,3.000000000000000000e+00
5.620000000000000000e+03,-2.999999999999999737e-05,-2.999999999999999737e-05,1.000000000000000082e-05,4.000000000000000327e-05,-1.000000000000000082e-05,-5.999999999999999474e-05,-9.000000000000000567e-05,-5.000000000000000240e-05,2.000000000000000000e+00,3.000000000000000000e+00
5.621000000000000000e+03,-2.999999999999999737e-05,-2.999999999999999737e-05,1.000000000000000082e-05,4.000000000000000327e-05,-1.000000000000000082e-05,-5.999999999999999474e-05,-9.000000000000000567e-05,-5.000000000000000240e-05,2.000000000000000000e+00,3.000000000000000000e+00
5.622000000000000000e+03,-2.999999999999999737e-05,-2.999999999999999737e-05,1.000000000000000082e-05,4.000000000000000327e-05,-1.000000000000000082e-05,-5.999999999999999474e-05,-9.000000000000000567e-05,-5.000000000000000240e-05,2.000000000000000000e+00,3.000000000000000000e+00
5.623000000000000000e+03,-2.999999999999999737e-05,-2.999999999999999737e-05,1.000000000000000082e-05,4.000000000000000327e-05,-1.000000000000000082e-05,-5.999999999999999474e-05,-9.000000000000000567e-05,-5.000000000000000240e-05,2.000000000000000000e+00,3.000000000000000000e+00
5.624000000000000000e+03,-2.999999999999999737e-05,-2.999999999999999737e-05,1.000000000000000082e-05,4.000000000000000327e-05,-1.000000000000000082e-05,-5.999999999999999474e-05,-9.000000000000000567e-05,-5.000000000000000240e-05,2.000000000000000000e+00,3.000000000000000000e+00
5.625000000000000000e+03,0.000000000000000000e+00,1.000000000000000082e-05,4.000000000000000327e-05,4.000000000000000327e-05,0.000000000000000000e+00,-4.000000000000000327e-05,2.999999999999999737e-05,-2.000000000000000164e-05,2.000000000000000000e+00,3.000000000000000000e+00
5.626000000000000000e+03,0.000000000000000000e+00,1.000000000000000082e-05,4.000000000000000327e-05,4.000000000000000327e-05,0.000000000000000000e+00,-4.000000000000000327e-05,2.999999999999999737e-05,-2.000000000000000164e-05,2.000000000000000000e+00,3.000000000000000000e+00
5.628000000000000000e+03,0.000000000000000000e+00,1.000000000000000082e-05,4.000000000000000327e-05,4.000000000000000327e-05,0.000000000000000000e+00,-4.000000000000000327e-05,2.999999999999999737e-05,-2.000000000000000164e-05,2.000000000000000000e+00,3.000000000000000000e+00
5.629000000000000000e+03,0.000000000000000000e+00,1.000000000000000082e-05,4.000000000000000327e-05,4.000000000000000327e-05,0.000000000000000000e+00,-4.000000000000000327e-05,2.999999999999999737e-05,-2.000000000000000164e-05,2.000000000000000000e+00,3.000000000000000000e+00
5.630000000000000000e+03,0.000000000000000000e+00,1.000000000000000082e-05,4.000000000000000327e-05,4.000000000000000327e-05,0.000000000000000000e+00,-4.000000000000000327e-05,2.999999999999999737e-05,-2.000000000000000164e-05,2.000000000000000000e+00,3.000000000000000000e+00
5.631000000000000000e+03,0.000000000000000000e+00,1.000000000000000082e-05,4.000000000000000327e-05,4.000000000000000327e-05,0.000000000000000000e+00,-4.000000000000000327e-05,2.999999999999999737e-05,-2.000000000000000164e-05,2.000000000000000000e+00,3.000000000000000000e+00
5.632000000000000000e+03,-1.000000000000000082e-05,0.000000000000000000e+00,8.000000000000000654e-05,1.000000000000000048e-04,-2.999999999999999737e-05,4.000000000000000327e-05,6.999999999999999387e-05,0.000000000000000000e+00,2.000000000000000000e+00,3.000000000000000000e+00
5.633000000000000000e+03,-1.000000000000000082e-05,0.000000000000000000e+00,8.000000000000000654e-05,1.000000000000000048e-04,-2.999999999999999737e-05,4.000000000000000327e-05,6.999999999999999387e-05,0.000000000000000000e+00,2.000000000000000000e+00,3.000000000000000000e+00
5.634000000000000000e+03,-1.000000000000000082e-05,0.000000000000000000e+00,8.000000000000000654e-05,1.000000000000000048e-04,-2.999999999999999737e-05,4.000000000000000327e-05,6.999999999999999387e-05,0.000000000000000000e+00,2.000000000000000000e+00,3.000000000000000000e+00
5.635000000000000000e+03,-1.000000000000000082e-05,0.000000000000000000e+00,8.000000000000000654e-05,1.000000000000000048e-04,-2.999999999999999737e-05,4.000000000000000327e-05,6.999999999999999387e-05,0.000000000000000000e+00,2.000000000000000000e+00,3.000000000000000000e+00
5.636000000000000000e+03,-1.000000000000000082e-05,0.000000000000000000e+00,8.000000000000000654e-05,1.000000000000000048e-04,-2.999999999999999737e-05,4.000000000000000327e-05,6.999999999999999387e-05,0.000000000000000000e+00,2.000000000000000000e+00,3.000000000000000000e+00
5.638000000000000000e+03,-1.000000000000000082e-05,0.000000000000000000e+00,8.000000000000000654e-05,1.000000000000000048e-04,-2.999999999999999737e-05,4.000000000000000327e-05,6.999999999999999387e-05,0.000000000000000000e+00,2.000000000000000000e+00,3.000000000000000000e+00
5.639000000000000000e+03,-1.000000000000000082e-05,0.000000000000000000e+00,8.000000000000000654e-05,1.000000000000000048e-04,-2.999999999999999737e-05,4.000000000000000327e-05,6.999999999999999387e-05,0.000000000000000000e+00,2.000000000000000000e+00,3.000000000000000000e+00
5.640000000000000000e+03,-1.000000000000000082e-05,0.000000000000000000e+00,8.000000000000000654e-05,1.000000000000000048e-04,-2.999999999999999737e-05,4.000000000000000327e-05,6.999999999999999387e-05,0.000000000000000000e+00,2.000000000000000000e+00,3.000000000000000000e+00
5.641000000000000000e+03,-1.000000000000000082e-05,0.000000000000000000e+00,8.000000000000000654e-05,1.000000000000000048e-04,-2.999999999999999737e-05,4.000000000000000327e-05,6.999999999999999387e-05,0.000000000000000000e+00,2.000000000000000000e+00,3.000000000000000000e+00
5.642000000000000000e+03,-1.000000000000000082e-05,0.000000000000000000e+00,8.000000000000000654e-05,1.000000000000000048e-04,-2.999999999999999737e-05,4.000000000000000327e-05,6.999999999999999387e-05,0.000000000000000000e+00,2.000000000000000000e+00,3.000000000000000000e+00
5.643000000000000000e+03,-1.000000000000000082e-05,0.000000000000000000e+00,8.000000000000000654e-05,1.000000000000000048e-04,-2.999999999999999737e-05,4.000000000000000327e-05,6.999999999999999387e-05,0.000000000000000000e+00,2.000000000000000000e+00,3.000000000000000000e+00
5.644000000000000000e+03,-1.000000000000000082e-05,0.000000000000000000e+00,8.000000000000000654e-05,1.000000000000000048e-04,-2.999999999999999737e-05,4.000000000000000327e-05,6.999999999999999387e-05,0.000000000000000000e+00,2.000000000000000000e+00,3.000000000000000000e+00
5.645000000000000000e+03,-1.000000000000000082e-05,0.000000000000000000e+00,8.000000000000000654e-05,1.000000000000000048e-04,-2.999999999999999737e-05,4.000000000000000327e-05,6.999999999999999387e-05,0.000000000000000000e+00,2.000000000000000000e+00,3.000000000000000000e+00
5.646000000000000000e+03,-1.000000000000000082e-05,0.000000000000000000e+00,8.000000000000000654e-05,1.000000000000000048e-04,-2.999999999999999737e-05,4.000000000000000327e-05,6.999999999999999387e-05,0.000000000000000000e+00,2.000000000000000000e+00,3.000000000000000000e+00
5.647000000000000000e+03,-1.000000000000000082e-05,0.000000000000000000e+00,8.000000000000000654e-05,1.000000000000000048e-04,-2.999999999999999737e-05,4.000000000000000327e-05,6.999999999999999387e-05,0.000000000000000000e+00,2.000000000000000000e+00,3.000000000000000000e+00
5.648000000000000000e+03,-1.000000000000000082e-05,0.000000000000000000e+00,8.000000000000000654e-05,1.000000000000000048e-04,-2.999999999999999737e-05,4.000000000000000327e-05,6.999999999999999387e-05,0.000000000000000000e+00,2.000000000000000000e+00,3.000000000000000000e+00
5.649000000000000000e+03,-1.000000000000000082e-05,-1.000000000000000082e-05,0.000000000000000000e+00,-2.000000000000000164e-05,-2.999999999999999737e-05,-1.000000000000000082e-05,-2.999999999999999737e-05,-2.000000000000000164e-05,2.000000000000000000e+00,3.000000000000000000e+00
5.650000000000000000e+03,-1.000000000000000082e-05,0.000000000000000000e+00,-2.999999999999999737e-05,-8.000000000000000654e-05,-2.000000000000000164e-05,6.999999999999999387e-05,6.999999999999999387e-05,2.999999999999999737e-05,2.000000000000000000e+00,3.000000000000000000e+00
5.652000000000000000e+03,-1.000000000000000082e-05,0.000000000000000000e+00,-2.999999999999999737e-05,-8.000000000000000654e-05,-2.000000000000000164e-05,6.999999999999999387e-05,6.999999999999999387e-05,2.999999999999999737e-05,2.000000000000000000e+00,3.000000000000000000e+00
5.653000000000000000e+03,-1.000000000000000082e-05,0.000000000000000000e+00,-2.999999999999999737e-05,-8.000000000000000654e-05,-2.000000000000000164e-05,6.999999999999999387e-05,6.999999999999999387e-05,2.999999999999999737e-05,2.000000000000000000e+00,3.000000000000000000e+00
5.654000000000000000e+03,-1.000000000000000082e-05,0.000000000000000000e+00,-2.999999999999999737e-05,-8.000000000000000654e-05,-2.000000000000000164e-05,6.999999999999999387e-05,6.999999999999999387e-05,2.999999999999999737e-05,2.000000000000000000e+00,3.000000000000000000e+00
5.655000000000000000e+03,-1.000000000000000082e-05,0.000000000000000000e+00,-2.999999999999999737e-05,-8.000000000000000654e-05,-2.000000000000000164e-05,6.999999999999999387e-05,6.999999999999999387e-05,2.999999999999999737e-05,2.000000000000000000e+00,3.000000000000000000e+00
5.656000000000000000e+03,-1.000000000000000082e-05,0.000000000000000000e+00,-2.999999999999999737e-05,-8.000000000000000654e-05,-2.000000000000000164e-05,6.999999999999999387e-05,6.999999999999999387e-05,2.999999999999999737e-05,2.000000000000000000e+00,3.000000000000000000e+00
5.657000000000000000e+03,-1.000000000000000082e-05,0.000000000000000000e+00,-2.999999999999999737e-05,-8.000000000000000654e-05,-2.000000000000000164e-05,6.999999999999999387e-05,6.999999999999999387e-05,2.999999999999999737e-05,2.000000000000000000e+00,3.000000000000000000e+00
5.658000000000000000e+03,-1.000000000000000082e-05,0.000000000000000000e+00,-2.999999999999999737e-05,-8.000000000000000654e-05,-2.000000000000000164e-05,6.999999999999999387e-05,6.999999999999999387e-05,2.999999999999999737e-05,2.000000000000000000e+00,3.000000000000000000e+00
5.659000000000000000e+03,-1.000000000000000082e-05,0.000000000000000000e+00,-2.999999999999999737e-05,-8.000000000000000654e-05,-2.000000000000000164e-05,6.999999999999999387e-05,6.999999999999999387e-05,2.999999999999999737e-05,2.000000000000000000e+00,3.000000000000000000e+00
5.660000000000000000e+03,-1.000000000000000082e-05,0.000000000000000000e+00,-2.999999999999999737e-05,-8.000000000000000654e-05,-2.000000000000000164e-05,6.999999999999999387e-05,6.999999999999999387e-05,2.999999999999999737e-05,2.000000000000000000e+00,3.000000000000000000e+00
5.661000000000000000e+03,-1.000000000000000082e-05,0.000000000000000000e+00,-2.999999999999999737e-05,-8.000000000000000654e-05,-2.000000000000000164e-05,6.999999999999999387e-05,6.999999999999999387e-05,2.999999999999999737e-05,2.000000000000000000e+00,3.000000000000000000e+00
5.662000000000000000e+03,-1.000000000000000082e-05,0.000000000000000000e+00,-2.999999999999999737e-05,-8.000000000000000654e-05,-2.000000000000000164e-05,6.999999999999999387e-05,6.999999999999999387e-05,2.999999999999999737e-05,2.000000000000000000e+00,3.000000000000000000e+00
5.663000000000000000e+03,-1.000000000000000082e-05,0.000000000000000000e+00,-2.999999999999999737e-05,-8.000000000000000654e-05,-2.000000000000000164e-05,6.999999999999999387e-05,6.999999999999999387e-05,2.999999999999999737e-05,2.000000000000000000e+00,3.000000000000000000e+00
5.664000000000000000e+03,-1.000000000000000082e-05,0.000000000000000000e+00,-2.999999999999999737e-05,-8.000000000000000654e-05,-2.000000000000000164e-05,6.999999999999999387e-05,6.999999999999999387e-05,2.999999999999999737e-05,2.000000000000000000e+00,3.000000000000000000e+00
5.665000000000000000e+03,-1.000000000000000082e-05,0.000000000000000000e+00,-2.999999999999999737e-05,-8.000000000000000654e-05,-2.000000000000000164e-05,6.999999999999999387e-05,6.999999999999999387e-05,2.999999999999999737e-05,2.000000000000000000e+00,3.000000000000000000e+00
5.666000000000000000e+03,-1.000000000000000082e-05,0.000000000000000000e+00,-2.999999999999999737e-05,-8.000000000000000654e-05,-2.000000000000000164e-05,6.999999999999999387e-05,6.999999999999999387e-05,2.999999999999999737e-05,2.000000000000000000e+00,3.000000000000000000e+00
5.667000000000000000e+03,-1.000000000000000082e-05,0.000000000000000000e+00,-2.999999999999999737e-05,-8.000000000000000654e-05,-2.000000000000000164e-05,6.999999999999999387e-05,6.999999999999999387e-05,2.999999999999999737e-05,2.000000000000000000e+00,3.000000000000000000e+00
5.668000000000000000e+03,-1.000000000000000082e-05,0.000000000000000000e+00,-2.999999999999999737e-05,-8.000000000000000654e-05,-2.000000000000000164e-05,6.999999999999999387e-05,6.999999999999999387e-05,2.999999999999999737e-05,2.000000000000000000e+00,3.000000000000000000e+00
5.669000000000000000e+03,-1.000000000000000082e-05,0.000000000000000000e+00,-2.999999999999999737e-05,-8.000000000000000654e-05,-2.000000000000000164e-05,6.999999999999999387e-05,6.999999999999999387e-05,2.999999999999999737e-05,2.000000000000000000e+00,3.000000000000000000e+00
5.670000000000000000e+03,-1.000000000000000082e-05,0.000000000000000000e+00,-2.999999999999999737e-05,-8.000000000000000654e-05,-2.000000000000000164e-05,6.999999999999999387e-05,6.999999999999999387e-05,2.999999999999999737e-05,2.000000000000000000e+00,3.000000000000000000e+00
5.671000000000000000e+03,-2.000000000000000164e-05,-5.000000000000000240e-05,-1.000000000000000082e-05,-5.000000000000000240e-05,-2.000000000000000164e-05,-1.000000000000000082e-05,-1.000000000000000082e-05,-2.000000000000000164e-05,2.000000000000000000e+00,3.000000000000000000e+00
5.672000000000000000e+03,-2.000000000000000164e-05,-5.000000000000000240e-05,-1.000000000000000082e-05,-5.000000000000000240e-05,-2.000000000000000164e-05,-1.000000000000000082e-05,-1.000000000000000082e-05,-2.000000000000000164e-05,2.000000000000000000e+00,3.000000000000000000e+00
5.673000000000000000e+03,-2.999999999999999737e-05,-2.000000000000000164e-05,-1.000000000000000082e-05,-4.000000000000000327e-05,-4.000000000000000327e-05,-5.000000000000000240e-05,-1.000000000000000048e-04,-5.999999999999999474e-05,2.000000000000000000e+00,3.000000000000000000e+00
5.674000000000000000e+03,1.000000000000000082e-05,-1.000000000000000082e-05,-1.000000000000000082e-05,-2.000000000000000164e-05,-2.000000000000000164e-05,2.999999999999999737e-05,2.000000000000000164e-05,0.000000000000000000e+00,2.000000000000000000e+00,3.000000000000000000e+00
5.675000000000000000e+03,1.000000000000000082e-05,-1.000000000000000082e-05,-1.000000000000000082e-05,-2.000000000000000164e-05,-2.000000000000000164e-05,2.999999999999999737e-05,2.000000000000000164e-05,0.000000000000000000e+00,2.000000000000000000e+00,3.000000000000000000e+00
5.676000000000000000e+03,1.000000000000000082e-05,-1.000000000000000082e-05,-1.000000000000000082e-05,-2.000000000000000164e-05,-2.000000000000000164e-05,2.999999999999999737e-05,2.000000000000000164e-05,0.000000000000000000e+00,2.000000000000000000e+00,3.000000000000000000e+00
5.677000000000000000e+03,1.000000000000000082e-05,-1.000000000000000082e-05,-1.000000000000000082e-05,-2.000000000000000164e-05,-2.000000000000000164e-05,2.999999999999999737e-05,2.000000000000000164e-05,0.000000000000000000e+00,2.000000000000000000e+00,3.000000000000000000e+00
5.678000000000000000e+03,1.000000000000000082e-05,-1.000000000000000082e-05,-1.000000000000000082e-05,-2.000000000000000164e-05,-2.000000000000000164e-05,2.999999999999999737e-05,2.000000000000000164e-05,0.000000000000000000e+00,2.000000000000000000e+00,3.000000000000000000e+00
5.679000000000000000e+03,1.000000000000000082e-05,-1.000000000000000082e-05,-1.000000000000000082e-05,-2.000000000000000164e-05,-2.000000000000000164e-05,2.999999999999999737e-05,2.000000000000000164e-05,0.000000000000000000e+00,2.000000000000000000e+00,3.000000000000000000e+00
5.680000000000000000e+03,1.000000000000000082e-05,-1.000000000000000082e-05,-1.000000000000000082e-05,-2.000000000000000164e-05,-2.000000000000000164e-05,2.999999999999999737e-05,2.000000000000000164e-05,0.000000000000000000e+00,2.000000000000000000e+00,3.000000000000000000e+00
5.681000000000000000e+03,1.000000000000000082e-05,-1.000000000000000082e-05,-1.000000000000000082e-05,-2.000000000000000164e-05,-2.000000000000000164e-05,2.999999999999999737e-05,2.000000000000000164e-05,0.000000000000000000e+00,2.000000000000000000e+00,3.000000000000000000e+00
