2.984000000000000000e+04,0.000000000000000000e+00,4.000000000000000327e-05,6.999999999999999387e-05,1.100000000000000039e-04,2.999999999999999737e-05,4.000000000000000327e-05,2.999999999999999737e-05,-2.000000000000000164e-05,1.000000000000000000e+00,1.300000000000000000e+01
2.984100000000000000e+04,0.000000000000000000e+00,4.000000000000000327e-05,6.999999999999999387e-05,1.100000000000000039e-04,2.999999999999999737e-05,4.000000000000000327e-05,2.999999999999999737e-05,-2.000000000000000164e-05,1.000000000000000000e+00,1.300000000000000000e+01
2.984200000000000000e+04,0.000000000000000000e+00,4.000000000000000327e-05,6.999999999999999387e-05,1.100000000000000039e-04,2.999999999999999737e-05,4.000000000000000327e-05,2.999999999999999737e-05,-2.000000000000000164e-05,1.000000000000000000e+00,1.300000000000000000e+01
2.984300000000000000e+04,0.000000000000000000e+00,4.000000000000000327e-05,6.999999999999999387e-05,1.100000000000000039e-04,2.999999999999999737e-05,4.000000000000000327e-05,2.999999999999999737e-05,-2.000000000000000164e-05,1.000000000000000000e+00,1.300000000000000000e+01
2.984400000000000000e+04,0.000000000000000000e+00,4.000000000000000327e-05,6.999999999999999387e-05,1.100000000000000039e-04,2.999999999999999737e-05,4.000000000000000327e-05,2.999999999999999737e-05,-2.000000000000000164e-05,1.000000000000000000e+00,1.300000000000000000e+01
2.984500000000000000e+04,0.000000000000000000e+00,4.000000000000000327e-05,6.999999999999999387e-05,1.100000000000000039e-04,2.999999999999999737e-05,4.000000000000000327e-05,2.999999999999999737e-05,-2.000000000000000164e-05,1.000000000000000000e+00,1.300000000000000000e+01
2.984600000000000000e+04,0.000000000000000000e+00,4.000000000000000327e-05,6.999999999999999387e-05,1.100000000000000039e-04,2.999999999999999737e-05,4.000000000000000327e-05,2.999999999999999737e-05,-2.000000000000000164e-05,1.000000000000000000e+00,1.300000000000000000e+01
2.984700000000000000e+04,0.000000000000000000e+00,4.000000000000000327e-05,6.999999999999999387e-05,1.100000000000000039e-04,2.999999999999999737e-05,4.000000000000000327e-05,2.999999999999999737e-05,-2.000000000000000164e-05,1.000000000000000000e+00,1.300000000000000000e+01
2.984800000000000000e+04,0.000000000000000000e+00,4.000000000000000327e-05,6.999999999999999387e-05,1.100000000000000039e-04,2.999999999999999737e-05,4.000000000000000327e-05,2.999999999999999737e-05,-2.000000000000000164e-05,1.000000000000000000e+00,1.300000000000000000e+01
2.984900000000000000e+04,0.000000000000000000e+00,4.000000000000000327e-05,6.999999999999999387e-05,1.100000000000000039e-04,2.999999999999999737e-05,4.000000000000000327e-05,2.999999999999999737e-05,-2.000000000000000164e-05,1.000000000000000000e+00,1.300000000000000000e+01
2.985100000000000000e+04,0.000000000000000000e+00,4.000000000000000327e-05,6.999999999999999387e-05,1.100000000000000039e-04,2.999999999999999737e-05,4.000000000000000327e-05,2.999999999999999737e-05,-2.000000000000000164e-05,1.000000000000000000e+00,1.300000000000000000e+01
2.985200000000000000e+04,0.000000000000000000e+00,4.000000000000000327e-05,6.999999999999999387e-05,1.100000000000000039e-04,2.999999999999999737e-05,4.000000000000000327e-05,2.999999999999999737e-05,-2.000000000000000164e-05,1.000000000000000000e+00,1.300000000000000000e+01
2.985300000000000000e+04,-1.000000000000000082e-05,-2.000000000000000164e-05,-5.000000000000000240e-05,-8.000000000000000654e-05,2.000000000000000164e-05,2.999999999999999737e-05,-5.000000000000000240e-05,-1.000000000000000082e-05,1.000000000000000000e+00,1.300000000000000000e+01
2.985400000000000000e+04,-1.000000000000000082e-05,-2.000000000000000164e-05,-5.000000000000000240e-05,-8.000000000000000654e-05,2.000000000000000164e-05,2.999999999999999737e-05,-5.000000000000000240e-05,-1.000000000000000082e-05,1.000000000000000000e+00,1.300000000000000000e+01
2.985500000000000000e+04,-2.000000000000000164e-05,-2.000000000000000164e-05,1.000000000000000082e-05,-1.399999999999999877e-04,-4.000000000000000327e-05,-4.000000000000000327e-05,-2.000000000000000164e-05,-2.000000000000000164e-05,1.000000000000000000e+00,1.300000000000000000e+01
2.985600000000000000e+04,-2.000000000000000164e-05,-2.000000000000000164e-05,1.000000000000000082e-05,-1.399999999999999877e-04,-4.000000000000000327e-05,-4.000000000000000327e-05,-2.000000000000000164e-05,-2.000000000000000164e-05,1.000000000000000000e+00,1.300000000000000000e+01
2.985700000000000000e+04,-2.000000000000000164e-05,-2.000000000000000164e-05,1.000000000000000082e-05,-1.399999999999999877e-04,-4.000000000000000327e-05,-4.000000000000000327e-05,-2.000000000000000164e-05,-2.000000000000000164e-05,1.000000000000000000e+00,1.300000000000000000e+01
2.985800000000000000e+04,-2.000000000000000164e-05,-2.000000000000000164e-05,1.000000000000000082e-05,-1.399999999999999877e-04,-4.000000000000000327e-05,-4.000000000000000327e-05,-2.000000000000000164e-05,-2.000000000000000164e-05,1.000000000000000000e+00,1.300000000000000000e+01
2.985900000000000000e+04,-2.000000000000000164e-05,-2.000000000000000164e-05,1.000000000000000082e-05,-1.399999999999999877e-04,-4.000000000000000327e-05,-4.000000000000000327e-05,-2.000000000000000164e-05,-2.000000000000000164e-05,1.000000000000000000e+00,1.300000000000000000e+01
2.986000000000000000e+04,-2.000000000000000164e-05,-2.000000000000000164e-05,1.000000000000000082e-05,-1.399999999999999877e-04,-4.000000000000000327e-05,-4.000000000000000327e-05,-2.000000000000000164e-05,-2.000000000000000164e-05,1.000000000000000000e+00,1.300000000000000000e+01
2.986100000000000000e+04,-2.000000000000000164e-05,-2.000000000000000164e-05,1.000000000000000082e-05,-1.399999999999999877e-04,-4.000000000000000327e-05,-4.000000000000000327e-05,-2.000000000000000164e-05,-2.000000000000000164e-05,1.000000000000000000e+00,1.300000000000000000e+01
2.986200000000000000e+04,-2.000000000000000164e-05,-2.000000000000000164e-05,1.000000000000000082e-05,-1.399999999999999877e-04,-4.000000000000000327e-05,-4.000000000000000327e-05,-2.000000000000000164e-05,-2.000000000000000164e-05,1.000000000000000000e+00,1.300000000000000000e+01
2.986400000000000000e+04,-2.000000000000000164e-05,-2.000000000000000164e-05,1.000000000000000082e-05,-1.399999999999999877e-04,-4.000000000000000327e-05,-4.000000000000000327e-05,-2.000000000000000164e-05,-2.000000000000000164e-05,1.000000000000000000e+00,1.300000000000000000e+01
2.986500000000000000e+04,-2.000000000000000164e-05,-2.000000000000000164e-05,1.000000000000000082e-05,-1.399999999999999877e-04,-4.000000000000000327e-05,-4.000000000000000327e-05,-2.000000000000000164e-05,-2.000000000000000164e-05,1.000000000000000000e+00,1.300000000000000000e+01
2.986600000000000000e+04,-2.000000000000000164e-05,-2.000000000000000164e-05,1.000000000000000082e-05,-1.399999999999999877e-04,-4.000000000000000327e-05,-4.000000000000000327e-05,-2.000000000000000164e-05,-2.000000000000000164e-05,1.000000000000000000e+00,1.300000000000000000e+01
2.986700000000000000e+04,-2.000000000000000164e-05,-2.000000000000000164e-05,1.000000000000000082e-05,-1.399999999999999877e-04,-4.000000000000000327e-05,-4.000000000000000327e-05,-2.000000000000000164e-05,-2.000000000000000164e-05,1.000000000000000000e+00,1.300000000000000000e+01
2.986800000000000000e+04,-2.000000000000000164e-05,-2.000000000000000164e-05,1.000000000000000082e-05,-1.399999999999999877e-04,-4.000000000000000327e-05,-4.000000000000000327e-05,-2.000000000000000164e-05,-2.000000000000000164e-05,1.000000000000000000e+00,1.300000000000000000e+01
2.986900000000000000e+04,-2.000000000000000164e-05,-2.000000000000000164e-05,1.000000000000000082e-05,-1.399999999999999877e-04,-4.000000000000000327e-05,-4.000000000000000327e-05,-2.000000000000000164e-05,-2.000000000000000164e-05,1.000000000000000000e+00,1.300000000000000000e+01
2.987000000000000000e+04,-2.000000000000000164e-05,-2.000000000000000164e-05,1.000000000000000082e-05,-1.399999999999999877e-04,-4.000000000000000327e-05,-4.000000000000000327e-05,-2.000000000000000164e-05,-2.000000000000000164e-05,1.000000000000000000e+00,1.300000000000000000e+01
2.987100000000000000e+04,-2.000000000000000164e-05,-2.000000000000000164e-05,1.000000000000000082e-05,-1.399999999999999877e-04,-4.000000000000000327e-05,-4.000000000000000327e-05,-2.000000000000000164e-05,-2.000000000000000164e-05,1.000000000000000000e+00,1.300000000000000000e+01
2.987200000000000000e+04,-2.000000000000000164e-05,-2.000000000000000164e-05,1.000000000000000082e-05,-1.399999999999999877e-04,-4.000000000000000327e-05,-4.000000000000000327e-05,-2.000000000000000164e-05,-2.000000000000000164e-05,1.000000000000000000e+00,1.300000000000000000e+01
2.987300000000000000e+04,-2.000000000000000164e-05,-2.000000000000000164e-05,1.000000000000000082e-05,-1.399999999999999877e-04,-4.000000000000000327e-05,-4.000000000000000327e-05,-2.000000000000000164e-05,-2.000000000000000164e-05,1.000000000000000000e+00,1.300000000000000000e+01
2.987400000000000000e+04,-2.000000000000000164e-05,-2.000000000000000164e-05,1.000000000000000082e-05,-1.399999999999999877e-04,-4.000000000000000327e-05,-4.000000000000000327e-05,-2.000000000000000164e-05,-2.000000000000000164e-05,1.000000000000000000e+00,1.300000000000000000e+01
2.987500000000000000e+04,-2.000000000000000164e-05,-2.000000000000000164e-05,1.000000000000000082e-05,-1.399999999999999877e-04,-4.000000000000000327e-05,-4.000000000000000327e-05,-2.000000000000000164e-05,-2.000000000000000164e-05,1.000000000000000000e+00,1.300000000000000000e+01
2.987600000000000000e+04,0.000000000000000000e+00,0.000000000000000000e+00,-2.999999999999999737e-05,-2.000000000000000164e-05,-2.000000000000000164e-05,-1.399999999999999877e-04,-1.000000000000000082e-05,0.000000000000000000e+00,1.000000000000000000e+00,1.300000000000000000e+01
2.987700000000000000e+04,0.000000000000000000e+00,-1.000000000000000082e-05,5.000000000000000240e-05,2.200000000000000078e-04,-1.000000000000000082e-05,-6.999999999999999387e-05,-1.000000000000000082e-05,-1.000000000000000082e-05,1.000000000000000000e+00,1.300000000000000000e+01
2.987800000000000000e+04,0.000000000000000000e+00,-1.000000000000000082e-05,5.000000000000000240e-05,2.200000000000000078e-04,-1.000000000000000082e-05,-6.999999999999999387e-05,-1.000000000000000082e-05,-1.000000000000000082e-05,1.000000000000000000e+00,1.300000000000000000e+01
2.987900000000000000e+04,0.000000000000000000e+00,-1.000000000000000082e-05,5.000000000000000240e-05,2.200000000000000078e-04,-1.000000000000000082e-05,-6.999999999999999387e-05,-1.000000000000000082e-05,-1.000000000000000082e-05,1.000000000000000000e+00,1.300000000000000000e+01
2.988000000000000000e+04,0.000000000000000000e+00,-1.000000000000000082e-05,5.000000000000000240e-05,2.200000000000000078e-04,-1.000000000000000082e-05,-6.999999999999999387e-05,-1.000000000000000082e-05,-1.000000000000000082e-05,1.000000000000000000e+00,1.300000000000000000e+01
2.988100000000000000e+04,0.000000000000000000e+00,-1.000000000000000082e-05,5.000000000000000240e-05,2.200000000000000078e-04,-1.000000000000000082e-05,-6.999999999999999387e-05,-1.000000000000000082e-05,-1.000000000000000082e-05,1.000000000000000000e+00,1.300000000000000000e+01
2.988200000000000000e+04,0.000000000000000000e+00,-1.000000000000000082e-05,5.000000000000000240e-05,2.200000000000000078e-04,-1.000000000000000082e-05,-6.999999999999999387e-05,-1.000000000000000082e-05,-1.000000000000000082e-05,1.000000000000000000e+00,1.300000000000000000e+01
2.988300000000000000e+04,0.000000000000000000e+00,-1.000000000000000082e-05,5.000000000000000240e-05,2.200000000000000078e-04,-1.000000000000000082e-05,-6.999999999999999387e-05,-1.000000000000000082e-05,-1.000000000000000082e-05,1.000000000000000000e+00,1.300000000000000000e+01
2.988400000000000000e+04,0.000000000000000000e+00,-1.000000000000000082e-05,5.000000000000000240e-05,2.200000000000000078e-04,-1.000000000000000082e-05,-6.999999999999999387e-05,-1.000000000000000082e-05,-1.000000000000000082e-05,1.000000000000000000e+00,1.300000000000000000e+01
2.988500000000000000e+04,0.000000000000000000e+00,-1.000000000000000082e-05,5.000000000000000240e-05,2.200000000000000078e-04,-1.000000000000000082e-05,-6.999999999999999387e-05,-1.000000000000000082e-05,-1.000000000000000082e-05,1.000000000000000000e+00,1.300000000000000000e+01
2.988600000000000000e+04,0.000000000000000000e+00,-1.000000000000000082e-05,5.000000000000000240e-05,2.200000000000000078e-04,-1.000000000000000082e-05,-6.999999999999999387e-05,-1.000000000000000082e-05,-1.000000000000000082e-05,1.000000000000000000e+00,1.300000000000000000e+01
2.988900000000000000e+04,0.000000000000000000e+00,-1.000000000000000082e-05,5.000000000000000240e-05,2.200000000000000078e-04,-1.000000000000000082e-05,-6.999999999999999387e-05,-1.000000000000000082e-05,-1.000000000000000082e-05,1.000000000000000000e+00,1.300000000000000000e+01
2.989000000000000000e+04,-1.000000000000000082e-05,0.000000000000000000e+00,-1.000000000000000082e-05,-2.999999999999999737e-05,-4.000000000000000327e-05,-1.100000000000000039e-04,0.000000000000000000e+00,2.000000000000000164e-05,1.000000000000000000e+00,1.300000000000000000e+01
2.989100000000000000e+04,-1.000000000000000082e-05,0.000000000000000000e+00,-1.000000000000000082e-05,-2.999999999999999737e-05,-4.000000000000000327e-05,-1.100000000000000039e-04,0.000000000000000000e+00,2.000000000000000164e-05,1.000000000000000000e+00,1.300000000000000000e+01
2.989200000000000000e+04,-1.000000000000000082e-05,0.000000000000000000e+00,-1.000000000000000082e-05,-2.999999999999999737e-05,-4.000000000000000327e-05,-1.100000000000000039e-04,0.000000000000000000e+00,2.000000000000000164e-05,1.000000000000000000e+00,1.300000000000000000e+01
2.989300000000000000e+04,-1.000000000000000082e-05,0.000000000000000000e+00,-1.000000000000000082e-05,-2.999999999999999737e-05,-4.000000000000000327e-05,-1.100000000000000039e-04,0.000000000000000000e+00,2.000000000000000164e-05,1.000000000000000000e+00,1.300000000000000000e+01
2.989400000000000000e+04,-1.000000000000000082e-05,0.000000000000000000e+00,-1.000000000000000082e-05,-2.999999999999999737e-05,-4.000000000000000327e-05,-1.100000000000000039e-04,0.000000000000000000e+00,2.000000000000000164e-05,1.000000000000000000e+00,1.300000000000000000e+01
2.989500000000000000e+04,-1.000000000000000082e-05,0.000000000000000000e+00,-1.000000000000000082e-05,-2.999999999999999737e-05,-4.000000000000000327e-05,-1.100000000000000039e-04,0.000000000000000000e+00,2.000000000000000164e-05,1.000000000000000000e+00,1.300000000000000000e+01
2.989600000000000000e+04,-1.000000000000000082e-05,0.000000000000000000e+00,-1.000000000000000082e-05,-2.999999999999999737e-05,-4.000000000000000327e-05,-1.100000000000000039e-04,0.000000000000000000e+00,2.000000000000000164e-05,1.000000000000000000e+00,1.300000000000000000e+01
2.989700000000000000e+04,-1.000000000000000082e-05,-1.000000000000000082e-05,-2.999999999999999737e-05,-2.999999999999999737e-05,-5.000000000000000240e-05,-2.000000000000000164e-05,-2.999999999999999737e-05,-2.000000000000000164e-05,1.000000000000000000e+00,1.300000000000000000e+01
2.989800000000000000e+04,-1.000000000000000082e-05,-1.000000000000000082e-05,-2.999999999999999737e-05,-2.999999999999999737e-05,-5.000000000000000240e-05,-2.000000000000000164e-05,-2.999999999999999737e-05,-2.000000000000000164e-05,1.000000000000000000e+00,1.300000000000000000e+01
2.989900000000000000e+04,-1.000000000000000082e-05,-1.000000000000000082e-05,-2.999999999999999737e-05,-2.999999999999999737e-05,-5.000000000000000240e-05,-2.000000000000000164e-05,-2.999999999999999737e-05,-2.000000000000000164e-05,1.000000000000000000e+00,1.300000000000000000e+01
2.990000000000000000e+04,-1.000000000000000082e-05,-1.000000000000000082e-05,-2.999999999999999737e-05,-2.999999999999999737e-05,-5.000000000000000240e-05,-2.000000000000000164e-05,-2.999999999999999737e-05,-2.000000000000000164e-05,1.000000000000000000e+00,1.300000000000000000e+01
2.990100000000000000e+04,-1.000000000000000082e-05,-1.000000000000000082e-05,-2.999999999999999737e-05,-2.999999999999999737e-05,-5.000000000000000240e-05,-2.000000000000000164e-05,-2.999999999999999737e-05,-2.000000000000000164e-05,1.000000000000000000e+00,1.300000000000000000e+01
2.990200000000000000e+04,-1.000000000000000082e-05,-1.000000000000000082e-05,-2.999999999999999737e-05,-2.999999999999999737e-05,-5.000000000000000240e-05,-2.000000000000000164e-05,-2.999999999999999737e-05,-2.000000000000000164e-05,1.000000000000000000e+00,1.300000000000000000e+01
2.990300000000000000e+04,-1.000000000000000082e-05,-1.000000000000000082e-05,-2.999999999999999737e-05,-2.999999999999999737e-05,-5.000000000000000240e-05,-2.000000000000000164e-05,-2.999999999999999737e-05,-2.000000000000000164e-05,1.000000000000000000e+00,1.300000000000000000e+01
2.990400000000000000e+04,-1.000000000000000082e-05,-1.000000000000000082e-05,-2.999999999999999737e-05,-2.999999999999999737e-05,-5.000000000000000240e-05,-2.000000000000000164e-05,-2.999999999999999737e-05,-2.000000000000000164e-05,1.000000000000000000e+00,1.300000000000000000e+01
2.990500000000000000e+04,-1.000000000000000082e-05,-1.000000000000000082e-05,-2.999999999999999737e-05,-2.999999999999999737e-05,-5.000000000000000240e-05,-2.000000000000000164e-05,-2.999999999999999737e-05,-2.000000000000000164e-05,1.000000000000000000e+00,1.300000000000000000e+01
2.990600000000000000e+04,-1.000000000000000082e-05,-1.000000000000000082e-05,-2.999999999999999737e-05,-2.999999999999999737e-05,-5.000000000000000240e-05,-2.000000000000000164e-05,-2.999999999999999737e-05,-2.000000000000000164e-05,1.000000000000000000e+00,1.300000000000000000e+01
2.990700000000000000e+04,-1.000000000000000082e-05,-1.000000000000000082e-05,-2.999999999999999737e-05,-2.999999999999999737e-05,-5.000000000000000240e-05,-2.000000000000000164e-05,-2.999999999999999737e-05,-2.000000000000000164e-05,1.000000000000000000e+00,1.300000000000000000e+01
2.990800000000000000e+04,-1.000000000000000082e-05,-1.000000000000000082e-05,-2.999999999999999737e-05,-2.999999999999999737e-05,-5.000000000000000240e-05,-2.000000000000000164e-05,-2.999999999999999737e-05,-2.000000000000000164e-05,1.000000000000000000e+00,1.300000000000000000e+01
2.990900000000000000e+04,-1.000000000000000082e-05,-1.000000000000000082e-05,-2.999999999999999737e-05,-2.999999999999999737e-05,-5.000000000000000240e-05,-2.000000000000000164e-05,-2.999999999999999737e-05,-2.000000000000000164e-05,1.000000000000000000e+00,1.300000000000000000e+01
2.991000000000000000e+04,-1.000000000000000082e-05,-1.000000000000000082e-05,-2.999999999999999737e-05,-2.999999999999999737e-05,-5.000000000000000240e-05,-2.000000000000000164e-05,-2.999999999999999737e-05,-2.000000000000000164e-05,1.000000000000000000e+00,1.300000000000000000e+01
2.991100000000000000e+04,-1.000000000000000082e-05,-1.000000000000000082e-05,-2.999999999999999737e-05,-2.999999999999999737e-05,-5.000000000000000240e-05,-2.000000000000000164e-05,-2.999999999999999737e-05,-2.000000000000000164e-05,1.000000000000000000e+00,1.300000000000000000e+01
2.991200000000000000e+04,-1.000000000000000082e-05,-1.000000000000000082e-05,-2.999999999999999737e-05,-2.999999999999999737e-05,-5.000000000000000240e-05,-2.000000000000000164e-05,-2.999999999999999737e-05,-2.000000000000000164e-05,1.000000000000000000e+00,1.300000000000000000e+01
2.991300000000000000e+04,0.000000000000000000e+00,2.000000000000000164e-05,2.000000000000000164e-05,0.000000000000000000e+00,-2.000000000000000164e-05,9.000000000000000567e-05,0.000000000000000000e+00,-1.000000000000000082e-05,1.000000000000000000e+00,1.300000000000000000e+01
2.991400000000000000e+04,0.000000000000000000e+00,2.000000000000000164e-05,2.000000000000000164e-05,0.000000000000000000e+00,-2.000000000000000164e-05,9.000000000000000567e-05,0.000000000000000000e+00,-1.000000000000000082e-05,1.000000000000000000e+00,1.300000000000000000e+01
2.991500000000000000e+04,-1.000000000000000082e-05,-2.000000000000000164e-05,-5.000000000000000240e-05,1.000000000000000082e-05,-5.000000000000000240e-05,2.999999999999999737e-05,-4.000000000000000327e-05,-2.000000000000000164e-05,1.000000000000000000e+00,1.300000000000000000e+01
2.991600000000000000e+04,-1.000000000000000082e-05,-2.000000000000000164e-05,-5.000000000000000240e-05,1.000000000000000082e-05,-5.000000000000000240e-05,2.999999999999999737e-05,-4.000000000000000327e-05,-2.000000000000000164e-05,1.000000000000000000e+00,1.300000000000000000e+01
2.991700000000000000e+04,-1.000000000000000082e-05,-2.000000000000000164e-05,-5.000000000000000240e-05,1.000000000000000082e-05,-5.000000000000000240e-05,2.999999999999999737e-05,-4.000000000000000327e-05,-2.000000000000000164e-05,1.000000000000000000e+00,1.300000000000000000e+01
2.991800000000000000e+04,-1.000000000000000082e-05,-2.000000000000000164e-05,-5.000000000000000240e-05,1.000000000000000082e-05,-5.000000000000000240e-05,2.999999999999999737e-05,-4.000000000000000327e-05,-2.000000000000000164e-05,1.000000000000000000e+00,1.300000000000000000e+01
2.991900000000000000e+04,-1.000000000000000082e-05,-2.000000000000000164e-05,-5.000000000000000240e-05,1.000000000000000082e-05,-5.000000000000000240e-05,2.999999999999999737e-05,-4.000000000000000327e-05,-2.000000000000000164e-05,1.000000000000000000e+00,1.300000000000000000e+01
2.992000000000000000e+04,-1.000000000000000082e-05,-2.000000000000000164e-05,-5.000000000000000240e-05,1.000000000000000082e-05,-5.000000000000000240e-05,2.999999999999999737e-05,-4.000000000000000327e-05,-2.000000000000000164e-05,1.000000000000000000e+00,1.300000000000000000e+01
2.992100000000000000e+04,-1.000000000000000082e-05,-2.000000000000000164e-05,-5.000000000000000240e-05,1.000000000000000082e-05,-5.000000000000000240e-05,2.999999999999999737e-05,-4.000000000000000327e-05,-2.000000000000000164e-05,1.000000000000000000e+00,1.300000000000000000e+01
2.992200000000000000e+04,-1.000000000000000082e-05,-2.000000000000000164e-05,-5.000000000000000240e-05,1.000000000000000082e-05,-5.000000000000000240e-05,2.999999999999999737e-05,-4.000000000000000327e-05,-2.000000000000000164e-05,1.000000000000000000e+00,1.300000000000000000e+01
2.992300000000000000e+04,-1.000000000000000082e-05,-2.000000000000000164e-05,-5.000000000000000240e-05,1.000000000000000082e-05,-5.000000000000000240e-05,2.999999999999999737e-05,-4.000000000000000327e-05,-2.000000000000000164e-05,1.000000000000000000e+00,1.300000000000000000e+01
2.992400000000000000e+04,-1.000000000000000082e-05,-2.000000000000000164e-05,-5.000000000000000240e-05,1.000000000000000082e-05,-5.000000000000000240e-05,2.999999999999999737e-05,-4.000000000000000327e-05,-2.000000000000000164e-05,1.000000000000000000e+00,1.300000000000000000e+01
2.992500000000000000e+04,-1.000000000000000082e-05,-2.000000000000000164e-05,-5.000000000000000240e-05,1.000000000000000082e-05,-5.000000000000000240e-05,2.999999999999999737e-05,-4.000000000000000327e-05,-2.000000000000000164e-05,1.000000000000000000e+00,1.300000000000000000e+01
2.992600000000000000e+04,-1.000000000000000082e-05,-2.000000000000000164e-05,-5.000000000000000240e-05,1.000000000000000082e-05,-5.000000000000000240e-05,2.999999999999999737e-05,-4.000000000000000327e-05,-2.000000000000000164e-05,1.000000000000000000e+00,1.300000000000000000e+01
2.992700000000000000e+04,-1.000000000000000082e-05,-2.000000000000000164e-05,-5.000000000000000240e-05,1.000000000000000082e-05,-5.000000000000000240e-05,2.999999999999999737e-05,-4.000000000000000327e-05,-2.000000000000000164e-05,1.000000000000000000e+00,1.300000000000000000e+01
2.992800000000000000e+04,-1.000000000000000082e-05,-2.000000000000000164e-05,-5.000000000000000240e-05,1.000000000000000082e-05,-5.000000000000000240e-05,2.999999999999999737e-05,-4.000000000000000327e-05,-2.000000000000000164e-05,1.000000000000000000e+00,1.300000000000000000e+01
2.992900000000000000e+04,-1.000000000000000082e-05,-2.000000000000000164e-05,-5.000000000000000240e-05,1.000000000000000082e-05,-5.000000000000000240e-05,2.999999999999999737e-05,-4.000000000000000327e-05,-2.000000000000000164e-05,1.000000000000000000e+00,1.300000000000000000e+01
2.993000000000000000e+04,-1.000000000000000082e-05,-2.000000000000000164e-05,-5.000000000000000240e-05,1.000000000000000082e-05,-5.000000000000000240e-05,2.999999999999999737e-05,-4.000000000000000327e-05,-2.000000000000000164e-05,1.000000000000000000e+00,1.300000000000000000e+01
2.993100000000000000e+04,-1.000000000000000082e-05,-2.000000000000000164e-05,-5.000000000000000240e-05,1.000000000000000082e-05,-5.000000000000000240e-05,2.999999999999999737e-05,-4.000000000000000327e-05,-2.000000000000000164e-05,1.000000000000000000e+00,1.300000000000000000e+01
2.993200000000000000e+04,-1.000000000000000082e-05,-2.000000000000000164e-05,-5.000000000000000240e-05,1.000000000000000082e-05,-5.000000000000000240e-05,2.999999999999999737e-05,-4.000000000000000327e-05,-2.000000000000000164e-05,1.000000000000000000e+00,1.300000000000000000e+01
2.993300000000000000e+04,-1.000000000000000082e-05,-2.000000000000000164e-05,-5.000000000000000240e-05,1.000000000000000082e-05,-5.000000000000000240e-05,2.999999999999999737e-05,-4.000000000000000327e-05,-2.000000000000000164e-05,1.000000000000000000e+00,1.300000000000000000e+01
2.993400000000000000e+04,-1.000000000000000082e-05,-2.000000000000000164e-05,-5.000000000000000240e-05,1.000000000000000082e-05,-5.000000000000000240e-05,2.999999999999999737e-05,-4.000000000000000327e-05,-2.000000000000000164e-05,1.000000000000000000e+00,1.300000000000000000e+01
2.993500000000000000e+04,-1.000000000000000082e-05,-2.000000000000000164e-05,-5.000000000000000240e-05,1.000000000000000082e-05,-5.000000000000000240e-05,2.999999999999999737e-05,-4.000000000000000327e-05,-2.000000000000000164e-05,1.000000000000000000e+00,1.300000000000000000e+01
2.993600000000000000e+04,-1.000000000000000082e-05,-4.000000000000000327e-05,-2.999999999999999737e-05,-2.000000000000000164e-05,0.000000000000000000e+00,2.999999999999999737e-05,2.000000000000000164e-05,0.000000000000000000e+00,1.000000000000000000e+00,1.300000000000000000e+01
2.993900000000000000e+04,0.000000000000000000e+00,-1.000000000000000082e-05,-5.999999999999999474e-05,-1.000000000000000048e-04,-2.000000000000000164e-05,1.000000000000000082e-05,2.000000000000000164e-05,0.000000000000000000e+00,1.000000000000000000e+00,1.300000000000000000e+01
2.994000000000000000e+04,0.000000000000000000e+00,-1.000000000000000082e-05,-5.999999999999999474e-05,-1.000000000000000048e-04,-2.000000000000000164e-05,1.000000000000000082e-05,2.000000000000000164e-05,0.000000000000000000e+00,1.000000000000000000e+00,1.300000000000000000e+01
2.994100000000000000e+04,0.000000000000000000e+00,-1.000000000000000082e-05,-5.999999999999999474e-05,-1.000000000000000048e-04,-2.000000000000000164e-05,1.000000000000000082e-05,2.000000000000000164e-05,0.000000000000000000e+00,1.000000000000000000e+00,1.300000000000000000e+01
2.994200000000000000e+04,0.000000000000000000e+00,-1.000000000000000082e-05,-5.999999999999999474e-05,-1.000000000000000048e-04,-2.000000000000000164e-05,1.000000000000000082e-05,2.000000000000000164e-05,0.000000000000000000e+00,1.000000000000000000e+00,1.300000000000000000e+01
2.994300000000000000e+04,0.000000000000000000e+00,-1.000000000000000082e-05,-5.999999999999999474e-05,-1.000000000000000048e-04,-2.000000000000000164e-05,1.000000000000000082e-05,2.000000000000000164e-05,0.000000000000000000e+00,1.000000000000000000e+00,1.300000000000000000e+01
2.994400000000000000e+04,0.000000000000000000e+00,-1.000000000000000082e-05,-5.999999999999999474e-05,-1.000000000000000048e-04,-2.000000000000000164e-05,1.000000000000000082e-05,2.000000000000000164e-05,0.000000000000000000e+00,1.000000000000000000e+00,1.300000000000000000e+01
2.994500000000000000e+04,0.000000000000000000e+00,-1.000000000000000082e-05,-5.999999999999999474e-05,-1.000000000000000048e-04,-2.000000000000000164e-05,1.000000000000000082e-05,2.000000000000000164e-05,0.000000000000000000e+00,1.000000000000000000e+00,1.300000000000000000e+01
2.994600000000000000e+04,0.000000000000000000e+00,-1.000000000000000082e-05,-5.999999999999999474e-05,-1.000000000000000048e-04,-2.000000000000000164e-05,1.000000000000000082e-05,2.000000000000000164e-05,0.000000000000000000e+00,1.000000000000000000e+00,1.300000000000000000e+01
2.994700000000000000e+04,0.000000000000000000e+00,-1.000000000000000082e-05,-5.999999999999999474e-05,-1.000000000000000048e-04,-2.000000000000000164e-05,1.000000000000000082e-05,2.000000000000000164e-05,0.000000000000000000e+00,1.000000000000000000e+00,1.300000000000000000e+01
2.994800000000000000e+04,0.000000000000000000e+00,-1.000000000000000082e-05,-5.999999999999999474e-05,-1.000000000000000048e-04,-2.000000000000000164e-05,1.000000000000000082e-05,2.000000000000000164e-05,0.000000000000000000e+00,1.000000000000000000e+00,1.300000000000000000e+01
2.994900000000000000e+04,0.000000000000000000e+00,-1.000000000000000082e-05,-5.999999999999999474e-05,-1.000000000000000048e-04,-2.000000000000000164e-05,1.000000000000000082e-05,2.000000000000000164e-05,0.000000000000000000e+00,1.000000000000000000e+00,1.300000000000000000e+01
2.995000000000000000e+04,0.000000000000000000e+00,2.999999999999999737e-05,5.999999999999999474e-05,2.000000000000000164e-05,1.000000000000000082e-05,8.000000000000000654e-05,1.000000000000000082e-05,0.000000000000000000e+00,1.000000000000000000e+00,1.300000000000000000e+01
2.995100000000000000e+04,0.000000000000000000e+00,2.999999999999999737e-05,5.999999999999999474e-05,2.000000000000000164e-05,1.000000000000000082e-05,8.000000000000000654e-05,1.000000000000000082e-05,0.000000000000000000e+00,1.000000000000000000e+00,1.300000000000000000e+01
2.995200000000000000e+04,0.000000000000000000e+00,2.999999999999999737e-05,5.999999999999999474e-05,2.000000000000000164e-05,1.000000000000000082e-05,8.000000000000000654e-05,1.000000000000000082e-05,0.000000000000000000e+00,1.000000000000000000e+00,1.300000000000000000e+01
2.995300000000000000e+04,0.000000000000000000e+00,2.999999999999999737e-05,5.999999999999999474e-05,2.000000000000000164e-05,1.000000000000000082e-05,8.000000000000000654e-05,1.000000000000000082e-05,0.000000000000000000e+00,1.000000000000000000e+00,1.300000000000000000e+01
2.995400000000000000e+04,0.000000000000000000e+00,2.999999999999999737e-05,5.999999999999999474e-05,2.000000000000000164e-05,1.000000000000000082e-05,8.000000000000000654e-05,1.000000000000000082e-05,0.000000000000000000e+00,1.000000000000000000e+00,1.300000000000000000e+01
2.995500000000000000e+04,0.000000000000000000e+00,2.999999999999999737e-05,5.999999999999999474e-05,2.000000000000000164e-05,1.000000000000000082e-05,8.000000000000000654e-05,1.000000000000000082e-05,0.000000000000000000e+00,1.000000000000000000e+00,1.300000000000000000e+01
2.995600000000000000e+04,0.000000000000000000e+00,2.999999999999999737e-05,5.999999999999999474e-05,2.000000000000000164e-05,1.000000000000000082e-05,8.000000000000000654e-05,1.000000000000000082e-05,0.000000000000000000e+00,1.000000000000000000e+00,1.300000000000000000e+01
2.995700000000000000e+04,0.000000000000000000e+00,2.999999999999999737e-05,5.999999999999999474e-05,2.000000000000000164e-05,1.000000000000000082e-05,8.000000000000000654e-05,1.000000000000000082e-05,0.000000000000000000e+00,1.000000000000000000e+00,1.300000000000000000e+01
2.995800000000000000e+04,0.000000000000000000e+00,2.999999999999999737e-05,5.999999999999999474e-05,2.000000000000000164e-05,1.000000000000000082e-05,8.000000000000000654e-05,1.000000000000000082e-05,0.000000000000000000e+00,1.000000000000000000e+00,1.300000000000000000e+01
2.995900000000000000e+04,0.000000000000000000e+00,2.999999999999999737e-05,5.999999999999999474e-05,2.000000000000000164e-05,1.000000000000000082e-05,8.000000000000000654e-05,1.000000000000000082e-05,0.000000000000000000e+00,1.000000000000000000e+00,1.300000000000000000e+01
2.996000000000000000e+04,0.000000000000000000e+00,2.999999999999999737e-05,5.999999999999999474e-05,2.000000000000000164e-05,1.000000000000000082e-05,8.000000000000000654e-05,1.000000000000000082e-05,0.000000000000000000e+00,1.000000000000000000e+00,1.300000000000000000e+01
2.996100000000000000e+04,0.000000000000000000e+00,2.999999999999999737e-05,5.999999999999999474e-05,2.000000000000000164e-05,1.000000000000000082e-05,8.000000000000000654e-05,1.000000000000000082e-05,0.000000000000000000e+00,1.000000000000000000e+00,1.300000000000000000e+01
2.996200000000000000e+04,0.000000000000000000e+00,2.999999999999999737e-05,5.999999999999999474e-05,2.000000000000000164e-05,1.000000000000000082e-05,8.000000000000000654e-05,1.000000000000000082e-05,0.000000000000000000e+00,1.000000000000000000e+00,1.300000000000000000e+01
2.996300000000000000e+04,0.000000000000000000e+00,2.999999999999999737e-05,5.999999999999999474e-05,2.000000000000000164e-05,1.000000000000000082e-05,8.000000000000000654e-05,1.000000000000000082e-05,0.000000000000000000e+00,1.000000000000000000e+00,1.300000000000000000e+01
2.996400000000000000e+04,-2.000000000000000164e-05,-2.000000000000000164e-05,2.000000000000000164e-05,4.000000000000000327e-05,5.000000000000000240e-05,-2.000000000000000164e-05,-2.000000000000000164e-05,0.000000000000000000e+00,1.000000000000000000e+00,1.300000000000000000e+01
2.996500000000000000e+04,0.000000000000000000e+00,-1.000000000000000082e-05,-2.999999999999999737e-05,1.199999999999999895e-04,-1.000000000000000082e-05,-2.000000000000000164e-05,-1.000000000000000082e-05,0.000000000000000000e+00,1.000000000000000000e+00,1.300000000000000000e+01
2.996600000000000000e+04,0.000000000000000000e+00,-1.000000000000000082e-05,-2.999999999999999737e-05,1.199999999999999895e-04,-1.000000000000000082e-05,-2.000000000000000164e-05,-1.000000000000000082e-05,0.000000000000000000e+00,1.000000000000000000e+00,1.300000000000000000e+01
2.996700000000000000e+04,0.000000000000000000e+00,-1.000000000000000082e-05,-2.999999999999999737e-05,1.199999999999999895e-04,-1.000000000000000082e-05,-2.000000000000000164e-05,-1.000000000000000082e-05,0.000000000000000000e+00,1.000000000000000000e+00,1.300000000000000000e+01
2.996800000000000000e+04,0.000000000000000000e+00,-1.000000000000000082e-05,-2.999999999999999737e-05,1.199999999999999895e-04,-1.000000000000000082e-05,-2.000000000000000164e-05,-1.000000000000000082e-05,0.000000000000000000e+00,1.000000000000000000e+00,1.300000000000000000e+01
2.996900000000000000e+04,0.000000000000000000e+00,-1.000000000000000082e-05,-2.999999999999999737e-05,1.199999999999999895e-04,-1.000000000000000082e-05,-2.000000000000000164e-05,-1.000000000000000082e-05,0.000000000000000000e+00,1.000000000000000000e+00,1.300000000000000000e+01
2.997000000000000000e+04,0.000000000000000000e+00,-1.000000000000000082e-05,-2.999999999999999737e-05,1.199999999999999895e-04,-1.000000000000000082e-05,-2.000000000000000164e-05,-1.000000000000000082e-05,0.000000000000000000e+00,1.000000000000000000e+00,1.300000000000000000e+01
2.997100000000000000e+04,0.000000000000000000e+00,-1.000000000000000082e-05,-2.999999999999999737e-05,1.199999999999999895e-04,-1.000000000000000082e-05,-2.000000000000000164e-05,-1.000000000000000082e-05,0.000000000000000000e+00,1.000000000000000000e+00,1.300000000000000000e+01
2.997200000000000000e+04,0.000000000000000000e+00,-1.000000000000000082e-05,-2.999999999999999737e-05,1.199999999999999895e-04,-1.000000000000000082e-05,-2.000000000000000164e-05,-1.000000000000000082e-05,0.000000000000000000e+00,1.000000000000000000e+00,1.300000000000000000e+01
2.997300000000000000e+04,1.000000000000000082e-05,-2.999999999999999737e-05,2.999999999999999737e-05,5.000000000000000240e-05,-8.000000000000000654e-05,-8.000000000000000654e-05,0.000000000000000000e+00,-1.000000000000000082e-05,1.000000000000000000e+00,1.300000000000000000e+01
2.997400000000000000e+04,1.000000000000000082e-05,-2.999999999999999737e-05,2.999999999999999737e-05,5.000000000000000240e-05,-8.000000000000000654e-05,-8.000000000000000654e-05,0.000000000000000000e+00,-1.000000000000000082e-05,1.000000000000000000e+00,1.300000000000000000e+01
2.997500000000000000e+04,1.000000000000000082e-05,-2.999999999999999737e-05,2.999999999999999737e-05,5.000000000000000240e-05,-8.000000000000000654e-05,-8.000000000000000654e-05,0.000000000000000000e+00,-1.000000000000000082e-05,1.000000000000000000e+00,1.300000000000000000e+01
2.997600000000000000e+04,0.000000000000000000e+00,1.000000000000000082e-05,2.000000000000000164e-05,0.000000000000000000e+00,-1.000000000000000082e-05,-2.000000000000000164e-05,-2.999999999999999737e-05,-2.999999999999999737e-05,1.000000000000000000e+00,1.300000000000000000e+01
2.997700000000000000e+04,0.000000000000000000e+00,1.000000000000000082e-05,2.000000000000000164e-05,0.000000000000000000e+00,-1.000000000000000082e-05,-2.000000000000000164e-05,-2.999999999999999737e-05,-2.999999999999999737e-05,1.000000000000000000e+00,1.300000000000000000e+01
2.997800000000000000e+04,0.000000000000000000e+00,1.000000000000000082e-05,2.000000000000000164e-05,0.000000000000000000e+00,-1.000000000000000082e-05,-2.000000000000000164e-05,-2.999999999999999737e-05,-2.999999999999999737e-05,1.000000000000000000e+00,1.300000000000000000e+01
2.997900000000000000e+04,0.000000000000000000e+00,1.000000000000000082e-05,2.000000000000000164e-05,0.000000000000000000e+00,-1.000000000000000082e-05,-2.000000000000000164e-05,-2.999999999999999737e-05,-2.999999999999999737e-05,1.000000000000000000e+00,1.300000000000000000e+01
2.998000000000000000e+04,0.000000000000000000e+00,1.000000000000000082e-05,2.000000000000000164e-05,0.000000000000000000e+00,-1.000000000000000082e-05,-2.000000000000000164e-05,-2.999999999999999737e-05,-2.999999999999999737e-05,1.000000000000000000e+00,1.300000000000000000e+01
2.998100000000000000e+04,0.000000000000000000e+00,1.000000000000000082e-05,2.000000000000000164e-05,0.000000000000000000e+00,-1.000000000000000082e-05,-2.000000000000000164e-05,-2.999999999999999737e-05,-2.999999999999999737e-05,1.000000000000000000e+00,1.300000000000000000e+01
2.998200000000000000e+04,0.000000000000000000e+00,1.000000000000000082e-05,2.000000000000000164e-05,0.000000000000000000e+00,-1.000000000000000082e-05,-2.000000000000000164e-05,-2.999999999999999737e-05,-2.999999999999999737e-05,1.000000000000000000e+00,1.300000000000000000e+01
2.998300000000000000e+04,0.000000000000000000e+00,1.000000000000000082e-05,2.000000000000000164e-05,0.000000000000000000e+00,-1.000000000000000082e-05,-2.000000000000000164e-05,-2.999999999999999737e-05,-2.999999999999999737e-05,1.000000000000000000e+00,1.300000000000000000e+01
2.998400000000000000e+04,0.000000000000000000e+00,1.000000000000000082e-05,2.000000000000000164e-05,0.000000000000000000e+00,-1.000000000000000082e-05,-2.000000000000000164e-05,-2.999999999999999737e-05,-2.999999999999999737e-05,1.000000000000000000e+00,1.300000000000000000e+01
2.998500000000000000e+04,0.000000000000000000e+00,1.000000000000000082e-05,2.000000000000000164e-05,0.000000000000000000e+00,-1.000000000000000082e-05,-2.000000000000000164e-05,-2.999999999999999737e-05,-2.999999999999999737e-05,1.000000000000000000e+00,1.300000000000000000e+01
2.998600000000000000e+04,0.000000000000000000e+00,1.000000000000000082e-05,2.000000000000000164e-05,0.000000000000000000e+00,-1.000000000000000082e-05,-2.000000000000000164e-05,-2.999999999999999737e-05,-2.999999999999999737e-05,1.000000000000000000e+00,1.300000000000000000e+01
2.998800000000000000e+04,0.000000000000000000e+00,1.000000000000000082e-05,2.000000000000000164e-05,0.000000000000000000e+00,-1.000000000000000082e-05,-2.000000000000000164e-05,-2.999999999999999737e-05,-2.999999999999999737e-05,1.000000000000000000e+00,1.300000000000000000e+01
2.998900000000000000e+04,0.000000000000000000e+00,1.000000000000000082e-05,2.000000000000000164e-05,0.000000000000000000e+00,-1.000000000000000082e-05,-2.000000000000000164e-05,-2.999999999999999737e-05,-2.999999999999999737e-05,1.000000000000000000e+00,1.300000000000000000e+01
2.999000000000000000e+04,0.000000000000000000e+00,1.000000000000000082e-05,2.000000000000000164e-05,0.000000000000000000e+00,-1.000000000000000082e-05,-2.000000000000000164e-05,-2.999999999999999737e-05,-2.999999999999999737e-05,1.000000000000000000e+00,1.300000000000000000e+01
2.999100000000000000e+04,0.000000000000000000e+00,1.000000000000000082e-05,2.000000000000000164e-05,0.000000000000000000e+00,-1.000000000000000082e-05,-2.000000000000000164e-05,-2.999999999999999737e-05,-2.999999999999999737e-05,1.000000000000000000e+00,1.300000000000000000e+01
2.999200000000000000e+04,0.000000000000000000e+00,1.000000000000000082e-05,2.000000000000000164e-05,0.000000000000000000e+00,-1.000000000000000082e-05,-2.000000000000000164e-05,-2.999999999999999737e-05,-2.999999999999999737e-05,1.000000000000000000e+00,1.300000000000000000e+01
2.999300000000000000e+04,0.000000000000000000e+00,1.000000000000000082e-05,2.000000000000000164e-05,0.000000000000000000e+00,-1.000000000000000082e-05,-2.000000000000000164e-05,-2.999999999999999737e-05,-2.999999999999999737e-05,1.000000000000000000e+00,1.300000000000000000e+01
2.999400000000000000e+04,0.000000000000000000e+00,1.000000000000000082e-05,2.000000000000000164e-05,0.000000000000000000e+00,-1.000000000000000082e-05,-2.000000000000000164e-05,-2.999999999999999737e-05,-2.999999999999999737e-05,1.000000000000000000e+00,1.300000000000000000e+01
2.999500000000000000e+04,0.000000000000000000e+00,1.000000000000000082e-05,2.000000000000000164e-05,0.000000000000000000e+00,-1.000000000000000082e-05,-2.000000000000000164e-05,-2.999999999999999737e-05,-2.999999999999999737e-05,1.000000000000000000e+00,1.300000000000000000e+01
2.999600000000000000e+04,-2.000000000000000164e-05,-2.000000000000000164e-05,-2.000000000000000164e-05,0.000000000000000000e+00,2.000000000000000164e-05,9.000000000000000567e-05,0.000000000000000000e+00,0.000000000000000000e+00,1.000000000000000000e+00,1.300000000000000000e+01
2.999700000000000000e+04,0.000000000000000000e+00,-1.000000000000000082e-05,0.000000000000000000e+00,0.000000000000000000e+00,-1.000000000000000082e-05,0.000000000000000000e+00,-1.000000000000000082e-05,0.000000000000000000e+00,1.000000000000000000e+00,1.300000000000000000e+01
2.999800000000000000e+04,0.000000000000000000e+00,-1.000000000000000082e-05,0.000000000000000000e+00,0.000000000000000000e+00,-1.000000000000000082e-05,0.000000000000000000e+00,-1.000000000000000082e-05,0.000000000000000000e+00,1.000000000000000000e+00,1.300000000000000000e+01
2.999900000000000000e+04,0.000000000000000000e+00,-1.000000000000000082e-05,0.000000000000000000e+00,0.000000000000000000e+00,-1.000000000000000082e-05,0.000000000000000000e+00,-1.000000000000000082e-05,0.000000000000000000e+00,1.000000000000000000e+00,1.300000000000000000e+01
3.000000000000000000e+04,0.000000000000000000e+00,-1.000000000000000082e-05,0.000000000000000000e+00,0.000000000000000000e+00,-1.000000000000000082e-05,0.000000000000000000e+00,-1.000000000000000082e-05,0.000000000000000000e+00,1.000000000000000000e+00,1.300000000000000000e+01
3.000100000000000000e+04,0.000000000000000000e+00,-1.000000000000000082e-05,0.000000000000000000e+00,0.000000000000000000e+00,-1.000000000000000082e-05,0.000000000000000000e+00,-1.000000000000000082e-05,0.000000000000000000e+00,1.000000000000000000e+00,1.300000000000000000e+01
3.000200000000000000e+04,0.000000000000000000e+00,-1.000000000000000082e-05,0.000000000000000000e+00,0.000000000000000000e+00,-1.000000000000000082e-05,0.000000000000000000e+00,-1.000000000000000082e-05,0.000000000000000000e+00,1.000000000000000000e+00,1.300000000000000000e+01
3.000300000000000000e+04,0.000000000000000000e+00,-1.000000000000000082e-05,0.000000000000000000e+00,0.000000000000000000e+00,-1.000000000000000082e-05,0.000000000000000000e+00,-1.000000000000000082e-05,0.000000000000000000e+00,1.000000000000000000e+00,1.300000000000000000e+01
3.000400000000000000e+04,0.000000000000000000e+00,-1.000000000000000082e-05,0.000000000000000000e+00,0.000000000000000000e+00,-1.000000000000000082e-05,0.000000000000000000e+00,-1.000000000000000082e-05,0.000000000000000000e+00,1.000000000000000000e+00,1.300000000000000000e+01
3.000500000000000000e+04,0.000000000000000000e+00,-1.000000000000000082e-05,0.000000000000000000e+00,0.000000000000000000e+00,-1.000000000000000082e-05,0.000000000000000000e+00,-1.000000000000000082e-05,0.000000000000000000e+00,1.000000000000000000e+00,1.300000000000000000e+01
3.000600000000000000e+04,0.000000000000000000e+00,-1.000000000000000082e-05,0.000000000000000000e+00,0.000000000000000000e+00,-1.000000000000000082e-05,0.000000000000000000e+00,-1.000000000000000082e-05,0.000000000000000000e+00,1.000000000000000000e+00,1.300000000000000000e+01
3.000700000000000000e+04,0.000000000000000000e+00,-1.000000000000000082e-05,0.000000000000000000e+00,0.000000000000000000e+00,-1.000000000000000082e-05,0.000000000000000000e+00,-1.000000000000000082e-05,0.000000000000000000e+00,1.000000000000000000e+00,1.300000000000000000e+01
3.000800000000000000e+04,0.000000000000000000e+00,-1.000000000000000082e-05,0.000000000000000000e+00,0.000000000000000000e+00,-1.000000000000000082e-05,0.000000000000000000e+00,-1.000000000000000082e-05,0.000000000000000000e+00,1.000000000000000000e+00,1.300000000000000000e+01
3.000900000000000000e+04,0.000000000000000000e+00,-1.000000000000000082e-05,0.000000000000000000e+00,0.000000000000000000e+00,-1.000000000000000082e-05,0.000000000000000000e+00,-1.000000000000000082e-05,0.000000000000000000e+00,1.000000000000000000e+00,1.300000000000000000e+01
3.001000000000000000e+04,1.000000000000000082e-05,2.000000000000000164e-05,2.000000000000000164e-05,-5.000000000000000240e-05,-2.000000000000000164e-05,-1.000000000000000082e-05,-1.000000000000000082e-05,-2.999999999999999737e-05,1.000000000000000000e+00,1.300000000000000000e+01
3.001100000000000000e+04,1.000000000000000082e-05,2.000000000000000164e-05,2.000000000000000164e-05,-5.000000000000000240e-05,-2.000000000000000164e-05,-1.000000000000000082e-05,-1.000000000000000082e-05,-2.999999999999999737e-05,1.000000000000000000e+00,1.300000000000000000e+01
3.001200000000000000e+04,1.000000000000000082e-05,2.000000000000000164e-05,2.000000000000000164e-05,-5.000000000000000240e-05,-2.000000000000000164e-05,-1.000000000000000082e-05,-1.000000000000000082e-05,-2.999999999999999737e-05,1.000000000000000000e+00,1.300000000000000000e+01
3.001300000000000000e+04,1.000000000000000082e-05,2.000000000000000164e-05,2.000000000000000164e-05,-5.000000000000000240e-05,-2.000000000000000164e-05,-1.000000000000000082e-05,-1.000000000000000082e-05,-2.999999999999999737e-05,1.000000000000000000e+00,1.300000000000000000e+01
3.001400000000000000e+04,1.000000000000000082e-05,2.000000000000000164e-05,2.000000000000000164e-05,-5.000000000000000240e-05,-2.000000000000000164e-05,-1.000000000000000082e-05,-1.000000000000000082e-05,-2.999999999999999737e-05,1.000000000000000000e+00,1.300000000000000000e+01
3.001500000000000000e+04,1.000000000000000082e-05,2.000000000000000164e-05,2.000000000000000164e-05,-5.000000000000000240e-05,-2.000000000000000164e-05,-1.000000000000000082e-05,-1.000000000000000082e-05,-2.999999999999999737e-05,1.000000000000000000e+00,1.300000000000000000e+01
3.001600000000000000e+04,1.000000000000000082e-05,2.000000000000000164e-05,2.000000000000000164e-05,-5.000000000000000240e-05,-2.000000000000000164e-05,-1.000000000000000082e-05,-1.000000000000000082e-05,-2.999999999999999737e-05,1.000000000000000000e+00,1.300000000000000000e+01
3.001700000000000000e+04,1.000000000000000082e-05,2.000000000000000164e-05,2.000000000000000164e-05,-5.000000000000000240e-05,-2.000000000000000164e-05,-1.000000000000000082e-05,-1.000000000000000082e-05,-2.999999999999999737e-05,1.000000000000000000e+00,1.300000000000000000e+01
3.001800000000000000e+04,-4.000000000000000327e-05,0.000000000000000000e+00,0.000000000000000000e+00,-5.999999999999999474e-05,-2.000000000000000164e-05,1.000000000000000048e-04,-1.000000000000000082e-05,-1.000000000000000082e-05,1.000000000000000000e+00,1.300000000000000000e+01
3.001900000000000000e+04,-4.000000000000000327e-05,0.000000000000000000e+00,0.000000000000000000e+00,-5.999999999999999474e-05,-2.000000000000000164e-05,1.000000000000000048e-04,-1.000000000000000082e-05,-1.000000000000000082e-05,1.000000000000000000e+00,1.300000000000000000e+01
3.002000000000000000e+04,-4.000000000000000327e-05,0.000000000000000000e+00,0.000000000000000000e+00,-5.999999999999999474e-05,-2.000000000000000164e-05,1.000000000000000048e-04,-1.000000000000000082e-05,-1.000000000000000082e-05,1.000000000000000000e+00,1.300000000000000000e+01
3.002100000000000000e+04,-4.000000000000000327e-05,0.000000000000000000e+00,0.000000000000000000e+00,-5.999999999999999474e-05,-2.000000000000000164e-05,1.000000000000000048e-04,-1.000000000000000082e-05,-1.000000000000000082e-05,1.000000000000000000e+00,1.300000000000000000e+01
3.002200000000000000e+04,-4.000000000000000327e-05,0.000000000000000000e+00,0.000000000000000000e+00,-5.999999999999999474e-05,-2.000000000000000164e-05,1.000000000000000048e-04,-1.000000000000000082e-05,-1.000000000000000082e-05,1.000000000000000000e+00,1.300000000000000000e+01
3.002300000000000000e+04,-4.000000000000000327e-05,0.000000000000000000e+00,0.000000000000000000e+00,-5.999999999999999474e-05,-2.000000000000000164e-05,1.000000000000000048e-04,-1.000000000000000082e-05,-1.000000000000000082e-05,1.000000000000000000e+00,1.300000000000000000e+01
3.002400000000000000e+04,-4.000000000000000327e-05,0.000000000000000000e+00,0.000000000000000000e+00,-5.999999999999999474e-05,-2.000000000000000164e-05,1.000000000000000048e-04,-1.000000000000000082e-05,-1.000000000000000082e-05,1.000000000000000000e+00,1.300000000000000000e+01
3.002500000000000000e+04,-4.000000000000000327e-05,0.000000000000000000e+00,0.000000000000000000e+00,-5.999999999999999474e-05,-2.000000000000000164e-05,1.000000000000000048e-04,-1.000000000000000082e-05,-1.000000000000000082e-05,1.000000000000000000e+00,1.300000000000000000e+01
3.002600000000000000e+04,-4.000000000000000327e-05,0.000000000000000000e+00,0.000000000000000000e+00,-5.999999999999999474e-05,-2.000000000000000164e-05,1.000000000000000048e-04,-1.000000000000000082e-05,-1.000000000000000082e-05,1.000000000000000000e+00,1.300000000000000000e+01
3.002700000000000000e+04,-4.000000000000000327e-05,0.000000000000000000e+00,0.000000000000000000e+00,-5.999999999999999474e-05,-2.000000000000000164e-05,1.000000000000000048e-04,-1.000000000000000082e-05,-1.000000000000000082e-05,1.000000000000000000e+00,1.300000000000000000e+01
3.002800000000000000e+04,-4.000000000000000327e-05,0.000000000000000000e+00,0.000000000000000000e+00,-5.999999999999999474e-05,-2.000000000000000164e-05,1.000000000000000048e-04,-1.000000000000000082e-05,-1.000000000000000082e-05,1.000000000000000000e+00,1.300000000000000000e+01
3.002900000000000000e+04,-4.000000000000000327e-05,0.000000000000000000e+00,0.000000000000000000e+00,-5.999999999999999474e-05,-2.000000000000000164e-05,1.000000000000000048e-04,-1.000000000000000082e-05,-1.000000000000000082e-05,1.000000000000000000e+00,1.300000000000000000e+01
3.003000000000000000e+04,-4.000000000000000327e-05,0.000000000000000000e+00,0.000000000000000000e+00,-5.999999999999999474e-05,-2.000000000000000164e-05,1.000000000000000048e-04,-1.000000000000000082e-05,-1.000000000000000082e-05,1.000000000000000000e+00,1.300000000000000000e+01
3.003100000000000000e+04,-4.000000000000000327e-05,0.000000000000000000e+00,0.000000000000000000e+00,-5.999999999999999474e-05,-2.000000000000000164e-05,1.000000000000000048e-04,-1.000000000000000082e-05,-1.000000000000000082e-05,1.000000000000000000e+00,1.300000000000000000e+01
3.003200000000000000e+04,-4.000000000000000327e-05,0.000000000000000000e+00,0.000000000000000000e+00,-5.999999999999999474e-05,-2.000000000000000164e-05,1.000000000000000048e-04,-1.000000000000000082e-05,-1.000000000000000082e-05,1.000000000000000000e+00,1.300000000000000000e+01
3.003300000000000000e+04,-4.000000000000000327e-05,0.000000000000000000e+00,0.000000000000000000e+00,-5.999999999999999474e-05,-2.000000000000000164e-05,1.000000000000000048e-04,-1.000000000000000082e-05,-1.000000000000000082e-05,1.000000000000000000e+00,1.300000000000000000e+01
3.003400000000000000e+04,-4.000000000000000327e-05,0.000000000000000000e+00,0.000000000000000000e+00,-5.999999999999999474e-05,-2.000000000000000164e-05,1.000000000000000048e-04,-1.000000000000000082e-05,-1.000000000000000082e-05,1.000000000000000000e+00,1.300000000000000000e+01
3.003500000000000000e+04,-4.000000000000000327e-05,0.000000000000000000e+00,0.000000000000000000e+00,-5.999999999999999474e-05,-2.000000000000000164e-05,1.000000000000000048e-04,-1.000000000000000082e-05,-1.000000000000000082e-05,1.000000000000000000e+00,1.300000000000000000e+01
3.004500000000000000e+04,-2.000000000000000164e-05,-2.000000000000000164e-05,-5.000000000000000240e-05,-6.999999999999999387e-05,0.000000000000000000e+00,-2.999999999999999737e-05,-1.000000000000000082e-05,0.000000000000000000e+00,1.000000000000000000e+00,1.300000000000000000e+01
3.004600000000000000e+04,-2.000000000000000164e-05,-2.000000000000000164e-05,-5.000000000000000240e-05,-6.999999999999999387e-05,0.000000000000000000e+00,-2.999999999999999737e-05,-1.000000000000000082e-05,0.000000000000000000e+00,1.000000000000000000e+00,1.300000000000000000e+01
3.004700000000000000e+04,-2.000000000000000164e-05,-2.000000000000000164e-05,-5.000000000000000240e-05,-6.999999999999999387e-05,0.000000000000000000e+00,-2.999999999999999737e-05,-1.000000000000000082e-05,0.000000000000000000e+00,1.000000000000000000e+00,1.300000000000000000e+01
3.004800000000000000e+04,-2.000000000000000164e-05,-2.000000000000000164e-05,-5.000000000000000240e-05,-6.999999999999999387e-05,0.000000000000000000e+00,-2.999999999999999737e-05,-1.000000000000000082e-05,0.000000000000000000e+00,1.000000000000000000e+00,1.300000000000000000e+01
3.004900000000000000e+04,-2.000000000000000164e-05,-2.000000000000000164e-05,-5.000000000000000240e-05,-6.999999999999999387e-05,0.000000000000000000e+00,-2.999999999999999737e-05,-1.000000000000000082e-05,0.000000000000000000e+00,1.000000000000000000e+00,1.300000000000000000e+01
3.005000000000000000e+04,-2.000000000000000164e-05,-2.000000000000000164e-05,-5.000000000000000240e-05,-6.999999999999999387e-05,0.000000000000000000e+00,-2.999999999999999737e-05,-1.000000000000000082e-05,0.000000000000000000e+00,1.000000000000000000e+00,1.300000000000000000e+01
3.005100000000000000e+04,-2.000000000000000164e-05,-2.000000000000000164e-05,-5.000000000000000240e-05,-6.999999999999999387e-05,0.000000000000000000e+00,-2.999999999999999737e-05,-1.000000000000000082e-05,0.000000000000000000e+00,1.000000000000000000e+00,1.300000000000000000e+01
3.005200000000000000e+04,-2.000000000000000164e-05,-2.000000000000000164e-05,-5.000000000000000240e-05,-6.999999999999999387e-05,0.000000000000000000e+00,-2.999999999999999737e-05,-1.000000000000000082e-05,0.000000000000000000e+00,1.000000000000000000e+00,1.300000000000000000e+01
3.005300000000000000e+04,-2.000000000000000164e-05,-2.000000000000000164e-05,-5.000000000000000240e-05,-6.999999999999999387e-05,0.000000000000000000e+00,-2.999999999999999737e-05,-1.000000000000000082e-05,0.000000000000000000e+00,1.000000000000000000e+00,1.300000000000000000e+01
3.005400000000000000e+04,-2.000000000000000164e-05,-2.000000000000000164e-05,-5.000000000000000240e-05,-6.999999999999999387e-05,0.000000000000000000e+00,-2.999999999999999737e-05,-1.000000000000000082e-05,0.000000000000000000e+00,1.000000000000000000e+00,1.300000000000000000e+01
3.005500000000000000e+04,-2.000000000000000164e-05,-2.000000000000000164e-05,-5.000000000000000240e-05,-6.999999999999999387e-05,0.000000000000000000e+00,-2.999999999999999737e-05,-1.000000000000000082e-05,0.000000000000000000e+00,1.000000000000000000e+00,1.300000000000000000e+01
3.005600000000000000e+04,-2.999999999999999737e-05,-4.000000000000000327e-05,6.999999999999999387e-05,-5.000000000000000240e-05,1.000000000000000082e-05,-1.100000000000000039e-04,0.000000000000000000e+00,-1.000000000000000082e-05,1.000000000000000000e+00,1.300000000000000000e+01
3.005700000000000000e+04,2.000000000000000164e-05,-2.000000000000000164e-05,1.000000000000000082e-05,4.000000000000000327e-05,1.000000000000000082e-05,-1.699999999999999851e-04,-2.000000000000000164e-05,-2.000000000000000164e-05,1.000000000000000000e+00,1.300000000000000000e+01
3.005800000000000000e+04,2.000000000000000164e-05,-2.000000000000000164e-05,1.000000000000000082e-05,4.000000000000000327e-05,1.000000000000000082e-05,-1.699999999999999851e-04,-2.000000000000000164e-05,-2.000000000000000164e-05,1.000000000000000000e+00,1.300000000000000000e+01
3.005900000000000000e+04,2.000000000000000164e-05,-2.000000000000000164e-05,1.000000000000000082e-05,4.000000000000000327e-05,1.000000000000000082e-05,-1.699999999999999851e-04,-2.000000000000000164e-05,-2.000000000000000164e-05,1.000000000000000000e+00,1.300000000000000000e+01
3.006000000000000000e+04,2.000000000000000164e-05,-2.000000000000000164e-05,1.000000000000000082e-05,4.000000000000000327e-05,1.000000000000000082e-05,-1.699999999999999851e-04,-2.000000000000000164e-05,-2.000000000000000164e-05,1.000000000000000000e+00,1.300000000000000000e+01
3.006100000000000000e+04,2.000000000000000164e-05,-2.000000000000000164e-05,1.000000000000000082e-05,4.000000000000000327e-05,1.000000000000000082e-05,-1.699999999999999851e-04,-2.000000000000000164e-05,-2.000000000000000164e-05,1.000000000000000000e+00,1.300000000000000000e+01
3.006200000000000000e+04,2.000000000000000164e-05,-2.000000000000000164e-05,1.000000000000000082e-05,4.000000000000000327e-05,1.000000000000000082e-05,-1.699999999999999851e-04,-2.000000000000000164e-05,-2.000000000000000164e-05,1.000000000000000000e+00,1.300000000000000000e+01
3.006300000000000000e+04,2.000000000000000164e-05,-2.000000000000000164e-05,1.000000000000000082e-05,4.000000000000000327e-05,1.000000000000000082e-05,-1.699999999999999851e-04,-2.000000000000000164e-05,-2.000000000000000164e-05,1.000000000000000000e+00,1.300000000000000000e+01
3.006400000000000000e+04,2.000000000000000164e-05,-2.000000000000000164e-05,1.000000000000000082e-05,4.000000000000000327e-05,1.000000000000000082e-05,-1.699999999999999851e-04,-2.000000000000000164e-05,-2.000000000000000164e-05,1.000000000000000000e+00,1.300000000000000000e+01
3.006500000000000000e+04,2.000000000000000164e-05,-2.000000000000000164e-05,1.000000000000000082e-05,4.000000000000000327e-05,1.000000000000000082e-05,-1.699999999999999851e-04,-2.000000000000000164e-05,-2.000000000000000164e-05,1.000000000000000000e+00,1.300000000000000000e+01
3.006600000000000000e+04,2.000000000000000164e-05,-2.000000000000000164e-05,1.000000000000000082e-05,4.000000000000000327e-05,1.000000000000000082e-05,-1.699999999999999851e-04,-2.000000000000000164e-05,-2.000000000000000164e-05,1.000000000000000000e+00,1.300000000000000000e+01
3.006700000000000000e+04,2.000000000000000164e-05,-2.000000000000000164e-05,1.000000000000000082e-05,4.000000000000000327e-05,1.000000000000000082e-05,-1.699999999999999851e-04,-2.000000000000000164e-05,-2.000000000000000164e-05,1.000000000000000000e+00,1.300000000000000000e+01
3.006800000000000000e+04,2.000000000000000164e-05,-2.000000000000000164e-05,1.000000000000000082e-05,4.000000000000000327e-05,1.000000000000000082e-05,-1.699999999999999851e-04,-2.000000000000000164e-05,-2.000000000000000164e-05,1.000000000000000000e+00,1.300000000000000000e+01
3.006900000000000000e+04,0.000000000000000000e+00,0.000000000000000000e+00,-1.000000000000000082e-05,-6.999999999999999387e-05,-1.000000000000000082e-05,0.000000000000000000e+00,0.000000000000000000e+00,-1.000000000000000082e-05,1.000000000000000000e+00,1.300000000000000000e+01
3.007000000000000000e+04,0.000000000000000000e+00,0.000000000000000000e+00,-1.000000000000000082e-05,-6.999999999999999387e-05,-1.000000000000000082e-05,0.000000000000000000e+00,0.000000000000000000e+00,-1.000000000000000082e-05,1.000000000000000000e+00,1.300000000000000000e+01
3.007100000000000000e+04,0.000000000000000000e+00,0.000000000000000000e+00,-1.000000000000000082e-05,-6.999999999999999387e-05,-1.000000000000000082e-05,0.000000000000000000e+00,0.000000000000000000e+00,-1.000000000000000082e-05,1.000000000000000000e+00,1.300000000000000000e+01
3.007200000000000000e+04,0.000000000000000000e+00,0.000000000000000000e+00,-1.000000000000000082e-05,-6.999999999999999387e-05,-1.000000000000000082e-05,0.000000000000000000e+00,0.000000000000000000e+00,-1.000000000000000082e-05,1.000000000000000000e+00,1.300000000000000000e+01
3.007300000000000000e+04,0.000000000000000000e+00,0.000000000000000000e+00,-1.000000000000000082e-05,-6.999999999999999387e-05,-1.000000000000000082e-05,0.000000000000000000e+00,0.000000000000000000e+00,-1.000000000000000082e-05,1.000000000000000000e+00,1.300000000000000000e+01
3.007400000000000000e+04,0.000000000000000000e+00,0.000000000000000000e+00,-1.000000000000000082e-05,-6.999999999999999387e-05,-1.000000000000000082e-05,0.000000000000000000e+00,0.000000000000000000e+00,-1.000000000000000082e-05,1.000000000000000000e+00,1.300000000000000000e+01
3.007500000000000000e+04,0.000000000000000000e+00,0.000000000000000000e+00,-1.000000000000000082e-05,-6.999999999999999387e-05,-1.000000000000000082e-05,0.000000000000000000e+00,0.000000000000000000e+00,-1.000000000000000082e-05,1.000000000000000000e+00,1.300000000000000000e+01
3.007600000000000000e+04,0.000000000000000000e+00,0.000000000000000000e+00,-1.000000000000000082e-05,-6.999999999999999387e-05,-1.000000000000000082e-05,0.000000000000000000e+00,0.000000000000000000e+00,-1.000000000000000082e-05,1.000000000000000000e+00,1.300000000000000000e+01
3.007700000000000000e+04,0.000000000000000000e+00,0.000000000000000000e+00,-1.000000000000000082e-05,-6.999999999999999387e-05,-1.000000000000000082e-05,0.000000000000000000e+00,0.000000000000000000e+00,-1.000000000000000082e-05,1.000000000000000000e+00,1.300000000000000000e+01
3.007800000000000000e+04,-2.000000000000000164e-05,-4.000000000000000327e-05,-2.999999999999999737e-05,-1.399999999999999877e-04,-2.999999999999999737e-05,5.999999999999999474e-05,0.000000000000000000e+00,0.000000000000000000e+00,1.000000000000000000e+00,1.300000000000000000e+01
3.007900000000000000e+04,-2.000000000000000164e-05,-4.000000000000000327e-05,-2.999999999999999737e-05,-1.399999999999999877e-04,-2.999999999999999737e-05,5.999999999999999474e-05,0.000000000000000000e+00,0.000000000000000000e+00,1.000000000000000000e+00,1.300000000000000000e+01
3.008000000000000000e+04,-2.000000000000000164e-05,-4.000000000000000327e-05,-2.999999999999999737e-05,-1.399999999999999877e-04,-2.999999999999999737e-05,5.999999999999999474e-05,0.000000000000000000e+00,0.000000000000000000e+00,1.000000000000000000e+00,1.300000000000000000e+01
3.008100000000000000e+04,-2.000000000000000164e-05,-4.000000000000000327e-05,-2.999999999999999737e-05,-1.399999999999999877e-04,-2.999999999999999737e-05,5.999999999999999474e-05,0.000000000000000000e+00,0.000000000000000000e+00,1.000000000000000000e+00,1.300000000000000000e+01
3.008200000000000000e+04,-2.000000000000000164e-05,-4.000000000000000327e-05,-2.999999999999999737e-05,-1.399999999999999877e-04,-2.999999999999999737e-05,5.999999999999999474e-05,0.000000000000000000e+00,0.000000000000000000e+00,1.000000000000000000e+00,1.300000000000000000e+01
3.008300000000000000e+04,-2.000000000000000164e-05,-4.000000000000000327e-05,-2.999999999999999737e-05,-1.399999999999999877e-04,-2.999999999999999737e-05,5.999999999999999474e-05,0.000000000000000000e+00,0.000000000000000000e+00,1.000000000000000000e+00,1.300000000000000000e+01
3.008400000000000000e+04,-2.000000000000000164e-05,-4.000000000000000327e-05,-2.999999999999999737e-05,-1.399999999999999877e-04,-2.999999999999999737e-05,5.999999999999999474e-05,0.000000000000000000e+00,0.000000000000000000e+00,1.000000000000000000e+00,1.300000000000000000e+01
3.008500000000000000e+04,-2.000000000000000164e-05,-4.000000000000000327e-05,-2.999999999999999737e-05,-1.399999999999999877e-04,-2.999999999999999737e-05,5.999999999999999474e-05,0.000000000000000000e+00,0.000000000000000000e+00,1.000000000000000000e+00,1.300000000000000000e+01
3.008600000000000000e+04,-2.000000000000000164e-05,-4.000000000000000327e-05,-2.999999999999999737e-05,-1.399999999999999877e-04,-2.999999999999999737e-05,5.999999999999999474e-05,0.000000000000000000e+00,0.000000000000000000e+00,1.000000000000000000e+00,1.300000000000000000e+01
3.008900000000000000e+04,-2.000000000000000164e-05,-4.000000000000000327e-05,-2.999999999999999737e-05,-1.399999999999999877e-04,-2.999999999999999737e-05,5.999999999999999474e-05,0.000000000000000000e+00,0.000000000000000000e+00,1.000000000000000000e+00,1.300000000000000000e+01
3.009000000000000000e+04,-2.000000000000000164e-05,-4.000000000000000327e-05,-2.999999999999999737e-05,-1.399999999999999877e-04,-2.999999999999999737e-05,5.999999999999999474e-05,0.000000000000000000e+00,0.000000000000000000e+00,1.000000000000000000e+00,1.300000000000000000e+01
3.009100000000000000e+04,-2.000000000000000164e-05,-4.000000000000000327e-05,-2.999999999999999737e-05,-1.399999999999999877e-04,-2.999999999999999737e-05,5.999999999999999474e-05,0.000000000000000000e+00,0.000000000000000000e+00,1.000000000000000000e+00,1.300000000000000000e+01
3.009200000000000000e+04,-2.000000000000000164e-05,-4.000000000000000327e-05,-2.999999999999999737e-05,-1.399999999999999877e-04,-2.999999999999999737e-05,5.999999999999999474e-05,0.000000000000000000e+00,0.000000000000000000e+00,1.000000000000000000e+00,1.300000000000000000e+01
3.009300000000000000e+04,-2.000000000000000164e-05,0.000000000000000000e+00,5.000000000000000240e-05,1.399999999999999877e-04,-1.000000000000000082e-05,-6.999999999999999387e-05,-1.000000000000000082e-05,-1.000000000000000082e-05,1.000000000000000000e+00,1.300000000000000000e+01
3.009400000000000000e+04,-2.000000000000000164e-05,0.000000000000000000e+00,-1.000000000000000082e-05,2.999999999999999737e-05,0.000000000000000000e+00,-2.999999999999999737e-05,-2.999999999999999737e-05,0.000000000000000000e+00,1.000000000000000000e+00,1.300000000000000000e+01
3.009500000000000000e+04,-1.000000000000000082e-05,1.000000000000000082e-05,-1.000000000000000082e-05,2.000000000000000164e-05,-4.000000000000000327e-05,0.000000000000000000e+00,-1.000000000000000082e-05,0.000000000000000000e+00,1.000000000000000000e+00,1.300000000000000000e+01
3.009600000000000000e+04,-1.000000000000000082e-05,1.000000000000000082e-05,-1.000000000000000082e-05,2.000000000000000164e-05,-4.000000000000000327e-05,0.000000000000000000e+00,-1.000000000000000082e-05,0.000000000000000000e+00,1.000000000000000000e+00,1.300000000000000000e+01
3.009700000000000000e+04,-1.000000000000000082e-05,1.000000000000000082e-05,-1.000000000000000082e-05,2.000000000000000164e-05,-4.000000000000000327e-05,0.000000000000000000e+00,-1.000000000000000082e-05,0.000000000000000000e+00,1.000000000000000000e+00,1.300000000000000000e+01
3.009800000000000000e+04,-1.000000000000000082e-05,1.000000000000000082e-05,-1.000000000000000082e-05,2.000000000000000164e-05,-4.000000000000000327e-05,0.000000000000000000e+00,-1.000000000000000082e-05,0.000000000000000000e+00,1.000000000000000000e+00,1.300000000000000000e+01
3.009900000000000000e+04,-1.000000000000000082e-05,1.000000000000000082e-05,-1.000000000000000082e-05,2.000000000000000164e-05,-4.000000000000000327e-05,0.000000000000000000e+00,-1.000000000000000082e-05,0.000000000000000000e+00,1.000000000000000000e+00,1.300000000000000000e+01
3.010000000000000000e+04,-1.000000000000000082e-05,1.000000000000000082e-05,-1.000000000000000082e-05,2.000000000000000164e-05,-4.000000000000000327e-05,0.000000000000000000e+00,-1.000000000000000082e-05,0.000000000000000000e+00,1.000000000000000000e+00,1.300000000000000000e+01
3.010100000000000000e+04,-1.000000000000000082e-05,1.000000000000000082e-05,-1.000000000000000082e-05,2.000000000000000164e-05,-4.000000000000000327e-05,0.000000000000000000e+00,-1.000000000000000082e-05,0.000000000000000000e+00,1.000000000000000000e+00,1.300000000000000000e+01
3.010200000000000000e+04,-1.000000000000000082e-05,1.000000000000000082e-05,-1.000000000000000082e-05,2.000000000000000164e-05,-4.000000000000000327e-05,0.000000000000000000e+00,-1.000000000000000082e-05,0.000000000000000000e+00,1.000000000000000000e+00,1.300000000000000000e+01
3.010300000000000000e+04,-1.000000000000000082e-05,1.000000000000000082e-05,-1.000000000000000082e-05,2.000000000000000164e-05,-4.000000000000000327e-05,0.000000000000000000e+00,-1.000000000000000082e-05,0.000000000000000000e+00,1.000000000000000000e+00,1.300000000000000000e+01
3.010400000000000000e+04,-1.000000000000000082e-05,1.000000000000000082e-05,-1.000000000000000082e-05,2.000000000000000164e-05,-4.000000000000000327e-05,0.000000000000000000e+00,-1.000000000000000082e-05,0.000000000000000000e+00,1.000000000000000000e+00,1.300000000000000000e+01
3.010500000000000000e+04,-1.000000000000000082e-05,1.000000000000000082e-05,-1.000000000000000082e-05,2.000000000000000164e-05,-4.000000000000000327e-05,0.000000000000000000e+00,-1.000000000000000082e-05,0.000000000000000000e+00,1.000000000000000000e+00,1.300000000000000000e+01
3.010600000000000000e+04,-1.000000000000000082e-05,1.000000000000000082e-05,-1.000000000000000082e-05,2.000000000000000164e-05,-4.000000000000000327e-05,0.000000000000000000e+00,-1.000000000000000082e-05,0.000000000000000000e+00,1.000000000000000000e+00,1.300000000000000000e+01
3.010700000000000000e+04,-1.000000000000000082e-05,1.000000000000000082e-05,-1.000000000000000082e-05,2.000000000000000164e-05,-4.000000000000000327e-05,0.000000000000000000e+00,-1.000000000000000082e-05,0.000000000000000000e+00,1.000000000000000000e+00,1.300000000000000000e+01
3.010800000000000000e+04,-1.000000000000000082e-05,1.000000000000000082e-05,-1.000000000000000082e-05,2.000000000000000164e-05,-4.000000000000000327e-05,0.000000000000000000e+00,-1.000000000000000082e-05,0.000000000000000000e+00,1.000000000000000000e+00,1.300000000000000000e+01
3.011000000000000000e+04,-1.000000000000000082e-05,1.000000000000000082e-05,-1.000000000000000082e-05,2.000000000000000164e-05,-4.000000000000000327e-05,0.000000000000000000e+00,-1.000000000000000082e-05,0.000000000000000000e+00,1.000000000000000000e+00,1.300000000000000000e+01
3.011100000000000000e+04,-1.000000000000000082e-05,1.000000000000000082e-05,-1.000000000000000082e-05,2.000000000000000164e-05,-4.000000000000000327e-05,0.000000000000000000e+00,-1.000000000000000082e-05,0.000000000000000000e+00,1.000000000000000000e+00,1.300000000000000000e+01
3.011200000000000000e+04,-1.000000000000000082e-05,1.000000000000000082e-05,-1.000000000000000082e-05,2.000000000000000164e-05,-4.000000000000000327e-05,0.000000000000000000e+00,-1.000000000000000082e-05,0.000000000000000000e+00,1.000000000000000000e+00,1.300000000000000000e+01
3.011300000000000000e+04,-1.000000000000000082e-05,1.000000000000000082e-05,-1.000000000000000082e-05,2.000000000000000164e-05,-4.000000000000000327e-05,0.000000000000000000e+00,-1.000000000000000082e-05,0.000000000000000000e+00,1.000000000000000000e+00,1.300000000000000000e+01
3.011400000000000000e+04,-1.000000000000000082e-05,1.000000000000000082e-05,-1.000000000000000082e-05,2.000000000000000164e-05,-4.000000000000000327e-05,0.000000000000000000e+00,-1.000000000000000082e-05,0.000000000000000000e+00,1.000000000000000000e+00,1.300000000000000000e+01
3.011500000000000000e+04,-1.000000000000000082e-05,1.000000000000000082e-05,-1.000000000000000082e-05,2.000000000000000164e-05,-4.000000000000000327e-05,0.000000000000000000e+00,-1.000000000000000082e-05,0.000000000000000000e+00,1.000000000000000000e+00,1.300000000000000000e+01
3.011600000000000000e+04,-2.999999999999999737e-05,0.000000000000000000e+00,-6.999999999999999387e-05,-5.000000000000000240e-05,-6.999999999999999387e-05,-5.999999999999999474e-05,-1.000000000000000082e-05,-1.000000000000000082e-05,1.000000000000000000e+00,1.300000000000000000e+01
3.011700000000000000e+04,-2.000000000000000164e-05,-1.000000000000000082e-05,-1.000000000000000082e-05,-8.000000000000000654e-05,-2.999999999999999737e-05,5.000000000000000240e-05,-2.999999999999999737e-05,-1.000000000000000082e-05,1.000000000000000000e+00,1.300000000000000000e+01
3.011800000000000000e+04,-2.000000000000000164e-05,-1.000000000000000082e-05,-1.000000000000000082e-05,-8.000000000000000654e-05,-2.999999999999999737e-05,5.000000000000000240e-05,-2.999999999999999737e-05,-1.000000000000000082e-05,1.000000000000000000e+00,1.300000000000000000e+01
3.011900000000000000e+04,-2.000000000000000164e-05,-1.000000000000000082e-05,-1.000000000000000082e-05,-8.000000000000000654e-05,-2.999999999999999737e-05,5.000000000000000240e-05,-2.999999999999999737e-05,-1.000000000000000082e-05,1.000000000000000000e+00,1.300000000000000000e+01
3.012000000000000000e+04,-2.000000000000000164e-05,-1.000000000000000082e-05,-1.000000000000000082e-05,-8.000000000000000654e-05,-2.999999999999999737e-05,5.000000000000000240e-05,-2.999999999999999737e-05,-1.000000000000000082e-05,1.000000000000000000e+00,1.300000000000000000e+01
3.012100000000000000e+04,-2.000000000000000164e-05,-1.000000000000000082e-05,-1.000000000000000082e-05,-8.000000000000000654e-05,-2.999999999999999737e-05,5.000000000000000240e-05,-2.999999999999999737e-05,-1.000000000000000082e-05,1.000000000000000000e+00,1.300000000000000000e+01
3.012200000000000000e+04,-2.000000000000000164e-05,-1.000000000000000082e-05,-1.000000000000000082e-05,-8.000000000000000654e-05,-2.999999999999999737e-05,5.000000000000000240e-05,-2.999999999999999737e-05,-1.000000000000000082e-05,1.000000000000000000e+00,1.300000000000000000e+01
3.012300000000000000e+04,-2.000000000000000164e-05,-1.000000000000000082e-05,-1.000000000000000082e-05,-8.000000000000000654e-05,-2.999999999999999737e-05,5.000000000000000240e-05,-2.999999999999999737e-05,-1.000000000000000082e-05,1.000000000000000000e+00,1.300000000000000000e+01
3.012400000000000000e+04,-2.000000000000000164e-05,-1.000000000000000082e-05,-1.000000000000000082e-05,-8.000000000000000654e-05,-2.999999999999999737e-05,5.000000000000000240e-05,-2.999999999999999737e-05,-1.000000000000000082e-05,1.000000000000000000e+00,1.300000000000000000e+01
3.012500000000000000e+04,-2.000000000000000164e-05,-1.000000000000000082e-05,-1.000000000000000082e-05,-8.000000000000000654e-05,-2.999999999999999737e-05,5.000000000000000240e-05,-2.999999999999999737e-05,-1.000000000000000082e-05,1.000000000000000000e+00,1.300000000000000000e+01
3.012600000000000000e+04,-2.000000000000000164e-05,-1.000000000000000082e-05,-1.000000000000000082e-05,-8.000000000000000654e-05,-2.999999999999999737e-05,5.000000000000000240e-05,-2.999999999999999737e-05,-1.000000000000000082e-05,1.000000000000000000e+00,1.300000000000000000e+01
3.012700000000000000e+04,-2.000000000000000164e-05,-1.000000000000000082e-05,-1.000000000000000082e-05,-8.000000000000000654e-05,-2.999999999999999737e-05,5.000000000000000240e-05,-2.999999999999999737e-05,-1.000000000000000082e-05,1.000000000000000000e+00,1.300000000000000000e+01
3.012800000000000000e+04,-2.000000000000000164e-05,-1.000000000000000082e-05,-1.000000000000000082e-05,-8.000000000000000654e-05,-2.999999999999999737e-05,5.000000000000000240e-05,-2.999999999999999737e-05,-1.000000000000000082e-05,1.000000000000000000e+00,1.300000000000000000e+01
3.012900000000000000e+04,0.000000000000000000e+00,1.000000000000000082e-05,0.000000000000000000e+00,-2.000000000000000164e-05,0.000000000000000000e+00,1.000000000000000082e-05,0.000000000000000000e+00,-1.000000000000000082e-05,1.000000000000000000e+00,1.300000000000000000e+01
3.013000000000000000e+04,0.000000000000000000e+00,1.000000000000000082e-05,0.000000000000000000e+00,-2.000000000000000164e-05,0.000000000000000000e+00,1.000000000000000082e-05,0.000000000000000000e+00,-1.000000000000000082e-05,1.000000000000000000e+00,1.300000000000000000e+01
3.013200000000000000e+04,0.000000000000000000e+00,1.000000000000000082e-05,0.000000000000000000e+00,-2.000000000000000164e-05,0.000000000000000000e+00,1.000000000000000082e-05,0.000000000000000000e+00,-1.000000000000000082e-05,1.000000000000000000e+00,1.300000000000000000e+01
3.013300000000000000e+04,0.000000000000000000e+00,1.000000000000000082e-05,0.000000000000000000e+00,-2.000000000000000164e-05,0.000000000000000000e+00,1.000000000000000082e-05,0.000000000000000000e+00,-1.000000000000000082e-05,1.000000000000000000e+00,1.300000000000000000e+01
3.013400000000000000e+04,0.000000000000000000e+00,1.000000000000000082e-05,0.000000000000000000e+00,-2.000000000000000164e-05,0.000000000000000000e+00,1.000000000000000082e-05,0.000000000000000000e+00,-1.000000000000000082e-05,1.000000000000000000e+00,1.300000000000000000e+01
3.013500000000000000e+04,0.000000000000000000e+00,1.000000000000000082e-05,0.000000000000000000e+00,-2.000000000000000164e-05,0.000000000000000000e+00,1.000000000000000082e-05,0.000000000000000000e+00,-1.000000000000000082e-05,1.000000000000000000e+00,1.300000000000000000e+01
3.013600000000000000e+04,0.000000000000000000e+00,1.000000000000000082e-05,0.000000000000000000e+00,-2.000000000000000164e-05,0.000000000000000000e+00,1.000000000000000082e-05,0.000000000000000000e+00,-1.000000000000000082e-05,1.000000000000000000e+00,1.300000000000000000e+01
3.013900000000000000e+04,0.000000000000000000e+00,0.000000000000000000e+00,0.000000000000000000e+00,4.000000000000000327e-05,-5.000000000000000240e-05,-1.199999999999999895e-04,-2.999999999999999737e-05,-2.000000000000000164e-05,1.000000000000000000e+00,1.300000000000000000e+01
3.014000000000000000e+04,0.000000000000000000e+00,0.000000000000000000e+00,0.000000000000000000e+00,4.000000000000000327e-05,-5.000000000000000240e-05,-1.199999999999999895e-04,-2.999999999999999737e-05,-2.000000000000000164e-05,1.000000000000000000e+00,1.300000000000000000e+01
3.014100000000000000e+04,0.000000000000000000e+00,0.000000000000000000e+00,0.000000000000000000e+00,4.000000000000000327e-05,-5.000000000000000240e-05,-1.199999999999999895e-04,-2.999999999999999737e-05,-2.000000000000000164e-05,1.000000000000000000e+00,1.300000000000000000e+01
3.014200000000000000e+04,0.000000000000000000e+00,0.000000000000000000e+00,0.000000000000000000e+00,4.000000000000000327e-05,-5.000000000000000240e-05,-1.199999999999999895e-04,-2.999999999999999737e-05,-2.000000000000000164e-05,1.000000000000000000e+00,1.300000000000000000e+01
3.014300000000000000e+04,0.000000000000000000e+00,0.000000000000000000e+00,0.000000000000000000e+00,4.000000000000000327e-05,-5.000000000000000240e-05,-1.199999999999999895e-04,-2.999999999999999737e-05,-2.000000000000000164e-05,1.000000000000000000e+00,1.300000000000000000e+01
3.014400000000000000e+04,0.000000000000000000e+00,0.000000000000000000e+00,0.000000000000000000e+00,4.000000000000000327e-05,-5.000000000000000240e-05,-1.199999999999999895e-04,-2.999999999999999737e-05,-2.000000000000000164e-05,1.000000000000000000e+00,1.300000000000000000e+01
3.014500000000000000e+04,0.000000000000000000e+00,0.000000000000000000e+00,0.000000000000000000e+00,4.000000000000000327e-05,-5.000000000000000240e-05,-1.199999999999999895e-04,-2.999999999999999737e-05,-2.000000000000000164e-05,1.000000000000000000e+00,1.300000000000000000e+01
3.014600000000000000e+04,0.000000000000000000e+00,0.000000000000000000e+00,0.000000000000000000e+00,4.000000000000000327e-05,-5.000000000000000240e-05,-1.199999999999999895e-04,-2.999999999999999737e-05,-2.000000000000000164e-05,1.000000000000000000e+00,1.300000000000000000e+01
3.014700000000000000e+04,0.000000000000000000e+00,0.000000000000000000e+00,0.000000000000000000e+00,4.000000000000000327e-05,-5.000000000000000240e-05,-1.199999999999999895e-04,-2.999999999999999737e-05,-2.000000000000000164e-05,1.000000000000000000e+00,1.300000000000000000e+01
3.014800000000000000e+04,0.000000000000000000e+00,0.000000000000000000e+00,0.000000000000000000e+00,4.000000000000000327e-05,-5.000000000000000240e-05,-1.199999999999999895e-04,-2.999999999999999737e-05,-2.000000000000000164e-05,1.000000000000000000e+00,1.300000000000000000e+01
3.014900000000000000e+04,0.000000000000000000e+00,0.000000000000000000e+00,0.000000000000000000e+00,4.000000000000000327e-05,-5.000000000000000240e-05,-1.199999999999999895e-04,-2.999999999999999737e-05,-2.000000000000000164e-05,1.000000000000000000e+00,1.300000000000000000e+01
3.015000000000000000e+04,0.000000000000000000e+00,0.000000000000000000e+00,0.000000000000000000e+00,4.000000000000000327e-05,-5.000000000000000240e-05,-1.199999999999999895e-04,-2.999999999999999737e-05,-2.000000000000000164e-05,1.000000000000000000e+00,1.300000000000000000e+01
3.015100000000000000e+04,0.000000000000000000e+00,0.000000000000000000e+00,0.000000000000000000e+00,4.000000000000000327e-05,-5.000000000000000240e-05,-1.199999999999999895e-04,-2.999999999999999737e-05,-2.000000000000000164e-05,1.000000000000000000e+00,1.300000000000000000e+01
3.015200000000000000e+04,0.000000000000000000e+00,0.000000000000000000e+00,0.000000000000000000e+00,4.000000000000000327e-05,-5.000000000000000240e-05,-1.199999999999999895e-04,-2.999999999999999737e-05,-2.000000000000000164e-05,1.000000000000000000e+00,1.300000000000000000e+01
3.015300000000000000e+04,0.000000000000000000e+00,-1.000000000000000082e-05,1.000000000000000082e-05,2.000000000000000164e-05,1.000000000000000082e-05,4.000000000000000327e-05,0.000000000000000000e+00,-1.000000000000000082e-05,1.000000000000000000e+00,1.300000000000000000e+01
3.015400000000000000e+04,0.000000000000000000e+00,-1.000000000000000082e-05,1.000000000000000082e-05,2.000000000000000164e-05,1.000000000000000082e-05,4.000000000000000327e-05,0.000000000000000000e+00,-1.000000000000000082e-05,1.000000000000000000e+00,1.300000000000000000e+01
3.015500000000000000e+04,0.000000000000000000e+00,-5.999999999999999474e-05,2.999999999999999737e-05,8.000000000000000654e-05,1.000000000000000082e-05,2.999999999999999737e-05,-1.000000000000000082e-05,-2.000000000000000164e-05,1.000000000000000000e+00,1.300000000000000000e+01
3.015600000000000000e+04,0.000000000000000000e+00,-5.999999999999999474e-05,2.999999999999999737e-05,8.000000000000000654e-05,1.000000000000000082e-05,2.999999999999999737e-05,-1.000000000000000082e-05,-2.000000000000000164e-05,1.000000000000000000e+00,1.300000000000000000e+01
3.015700000000000000e+04,0.000000000000000000e+00,-5.999999999999999474e-05,2.999999999999999737e-05,8.000000000000000654e-05,1.000000000000000082e-05,2.999999999999999737e-05,-1.000000000000000082e-05,-2.000000000000000164e-05,1.000000000000000000e+00,1.300000000000000000e+01
3.015800000000000000e+04,0.000000000000000000e+00,-5.999999999999999474e-05,2.999999999999999737e-05,8.000000000000000654e-05,1.000000000000000082e-05,2.999999999999999737e-05,-1.000000000000000082e-05,-2.000000000000000164e-05,1.000000000000000000e+00,1.300000000000000000e+01
3.015900000000000000e+04,0.000000000000000000e+00,-5.999999999999999474e-05,2.999999999999999737e-05,8.000000000000000654e-05,1.000000000000000082e-05,2.999999999999999737e-05,-1.000000000000000082e-05,-2.000000000000000164e-05,1.000000000000000000e+00,1.300000000000000000e+01
3.016000000000000000e+04,0.000000000000000000e+00,-5.999999999999999474e-05,2.999999999999999737e-05,8.000000000000000654e-05,1.000000000000000082e-05,2.999999999999999737e-05,-1.000000000000000082e-05,-2.000000000000000164e-05,1.000000000000000000e+00,1.300000000000000000e+01
3.016100000000000000e+04,0.000000000000000000e+00,-5.999999999999999474e-05,2.999999999999999737e-05,8.000000000000000654e-05,1.000000000000000082e-05,2.999999999999999737e-05,-1.000000000000000082e-05,-2.000000000000000164e-05,1.000000000000000000e+00,1.300000000000000000e+01
3.016200000000000000e+04,0.000000000000000000e+00,-5.999999999999999474e-05,2.999999999999999737e-05,8.000000000000000654e-05,1.000000000000000082e-05,2.999999999999999737e-05,-1.000000000000000082e-05,-2.000000000000000164e-05,1.000000000000000000e+00,1.300000000000000000e+01
3.016300000000000000e+04,0.000000000000000000e+00,-5.999999999999999474e-05,2.999999999999999737e-05,8.000000000000000654e-05,1.000000000000000082e-05,2.999999999999999737e-05,-1.000000000000000082e-05,-2.000000000000000164e-05,1.000000000000000000e+00,1.300000000000000000e+01
3.016400000000000000e+04,0.000000000000000000e+00,-5.999999999999999474e-05,2.999999999999999737e-05,8.000000000000000654e-05,1.000000000000000082e-05,2.999999999999999737e-05,-1.000000000000000082e-05,-2.000000000000000164e-05,1.000000000000000000e+00,1.300000000000000000e+01
3.016500000000000000e+04,0.000000000000000000e+00,-5.999999999999999474e-05,2.999999999999999737e-05,8.000000000000000654e-05,1.000000000000000082e-05,2.999999999999999737e-05,-1.000000000000000082e-05,-2.000000000000000164e-05,1.000000000000000000e+00,1.300000000000000000e+01
3.016600000000000000e+04,0.000000000000000000e+00,-5.999999999999999474e-05,2.999999999999999737e-05,8.000000000000000654e-05,1.000000000000000082e-05,2.999999999999999737e-05,-1.000000000000000082e-05,-2.000000000000000164e-05,1.000000000000000000e+00,1.300000000000000000e+01
3.016700000000000000e+04,0.000000000000000000e+00,-5.999999999999999474e-05,2.999999999999999737e-05,8.000000000000000654e-05,1.000000000000000082e-05,2.999999999999999737e-05,-1.000000000000000082e-05,-2.000000000000000164e-05,1.000000000000000000e+00,1.300000000000000000e+01
3.016800000000000000e+04,0.000000000000000000e+00,-5.999999999999999474e-05,2.999999999999999737e-05,8.000000000000000654e-05,1.000000000000000082e-05,2.999999999999999737e-05,-1.000000000000000082e-05,-2.000000000000000164e-05,1.000000000000000000e+00,1.300000000000000000e+01
3.016900000000000000e+04,0.000000000000000000e+00,-5.999999999999999474e-05,2.999999999999999737e-05,8.000000000000000654e-05,1.000000000000000082e-05,2.999999999999999737e-05,-1.000000000000000082e-05,-2.000000000000000164e-05,1.000000000000000000e+00,1.300000000000000000e+01
3.017000000000000000e+04,0.000000000000000000e+00,-5.999999999999999474e-05,2.999999999999999737e-05,8.000000000000000654e-05,1.000000000000000082e-05,2.999999999999999737e-05,-1.000000000000000082e-05,-2.000000000000000164e-05,1.000000000000000000e+00,1.300000000000000000e+01
3.017100000000000000e+04,0.000000000000000000e+00,-5.999999999999999474e-05,2.999999999999999737e-05,8.000000000000000654e-05,1.000000000000000082e-05,2.999999999999999737e-05,-1.000000000000000082e-05,-2.000000000000000164e-05,1.000000000000000000e+00,1.300000000000000000e+01
3.017200000000000000e+04,0.000000000000000000e+00,-5.999999999999999474e-05,2.999999999999999737e-05,8.000000000000000654e-05,1.000000000000000082e-05,2.999999999999999737e-05,-1.000000000000000082e-05,-2.000000000000000164e-05,1.000000000000000000e+00,1.300000000000000000e+01
3.017300000000000000e+04,0.000000000000000000e+00,-5.999999999999999474e-05,2.999999999999999737e-05,8.000000000000000654e-05,1.000000000000000082e-05,2.999999999999999737e-05,-1.000000000000000082e-05,-2.000000000000000164e-05,1.000000000000000000e+00,1.300000000000000000e+01
3.017400000000000000e+04,0.000000000000000000e+00,-5.999999999999999474e-05,2.999999999999999737e-05,8.000000000000000654e-05,1.000000000000000082e-05,2.999999999999999737e-05,-1.000000000000000082e-05,-2.000000000000000164e-05,1.000000000000000000e+00,1.300000000000000000e+01
3.017500000000000000e+04,0.000000000000000000e+00,-5.999999999999999474e-05,2.999999999999999737e-05,8.000000000000000654e-05,1.000000000000000082e-05,2.999999999999999737e-05,-1.000000000000000082e-05,-2.000000000000000164e-05,1.000000000000000000e+00,1.300000000000000000e+01
3.017600000000000000e+04,-2.999999999999999737e-05,-1.000000000000000082e-05,-1.000000000000000082e-05,-2.000000000000000164e-05,-2.000000000000000164e-05,2.999999999999999737e-05,1.000000000000000082e-05,-2.000000000000000164e-05,1.000000000000000000e+00,1.300000000000000000e+01
3.017700000000000000e+04,-1.000000000000000082e-05,1.000000000000000082e-05,-6.999999999999999387e-05,-1.199999999999999895e-04,-1.000000000000000082e-05,1.000000000000000082e-05,1.000000000000000082e-05,-1.000000000000000082e-05,1.000000000000000000e+00,1.300000000000000000e+01
3.017900000000000000e+04,-1.000000000000000082e-05,1.000000000000000082e-05,-6.999999999999999387e-05,-1.199999999999999895e-04,-1.000000000000000082e-05,1.000000000000000082e-05,1.000000000000000082e-05,-1.000000000000000082e-05,1.000000000000000000e+00,1.300000000000000000e+01
3.018000000000000000e+04,-1.000000000000000082e-05,1.000000000000000082e-05,-6.999999999999999387e-05,-1.199999999999999895e-04,-1.000000000000000082e-05,1.000000000000000082e-05,1.000000000000000082e-05,-1.000000000000000082e-05,1.000000000000000000e+00,1.300000000000000000e+01
3.018100000000000000e+04,-1.000000000000000082e-05,1.000000000000000082e-05,-6.999999999999999387e-05,-1.199999999999999895e-04,-1.000000000000000082e-05,1.000000000000000082e-05,1.000000000000000082e-05,-1.000000000000000082e-05,1.000000000000000000e+00,1.300000000000000000e+01
3.018200000000000000e+04,-1.000000000000000082e-05,1.000000000000000082e-05,-6.999999999999999387e-05,-1.199999999999999895e-04,-1.000000000000000082e-05,1.000000000000000082e-05,1.000000000000000082e-05,-1.000000000000000082e-05,1.000000000000000000e+00,1.300000000000000000e+01
3.018300000000000000e+04,-1.000000000000000082e-05,1.000000000000000082e-05,-6.999999999999999387e-05,-1.199999999999999895e-04,-1.000000000000000082e-05,1.000000000000000082e-05,1.000000000000000082e-05,-1.000000000000000082e-05,1.000000000000000000e+00,1.300000000000000000e+01
3.018400000000000000e+04,-1.000000000000000082e-05,1.000000000000000082e-05,-6.999999999999999387e-05,-1.199999999999999895e-04,-1.000000000000000082e-05,1.000000000000000082e-05,1.000000000000000082e-05,-1.000000000000000082e-05,1.000000000000000000e+00,1.300000000000000000e+01
3.018500000000000000e+04,-1.000000000000000082e-05,1.000000000000000082e-05,-6.999999999999999387e-05,-1.199999999999999895e-04,-1.000000000000000082e-05,1.000000000000000082e-05,1.000000000000000082e-05,-1.000000000000000082e-05,1.000000000000000000e+00,1.300000000000000000e+01
3.018600000000000000e+04,-1.000000000000000082e-05,1.000000000000000082e-05,-6.999999999999999387e-05,-1.199999999999999895e-04,-1.000000000000000082e-05,1.000000000000000082e-05,1.000000000000000082e-05,-1.000000000000000082e-05,1.000000000000000000e+00,1.300000000000000000e+01
3.018800000000000000e+04,1.000000000000000082e-05,2.000000000000000164e-05,8.000000000000000654e-05,6.999999999999999387e-05,0.000000000000000000e+00,1.000000000000000082e-05,0.000000000000000000e+00,-1.000000000000000082e-05,1.000000000000000000e+00,1.300000000000000000e+01
3.019000000000000000e+04,-1.000000000000000082e-05,-1.000000000000000082e-05,-4.000000000000000327e-05,-2.000000000000000164e-05,-2.000000000000000164e-05,-1.000000000000000082e-05,-1.000000000000000082e-05,-1.000000000000000082e-05,1.000000000000000000e+00,1.300000000000000000e+01
3.019100000000000000e+04,-1.000000000000000082e-05,-1.000000000000000082e-05,-4.000000000000000327e-05,-2.000000000000000164e-05,-2.000000000000000164e-05,-1.000000000000000082e-05,-1.000000000000000082e-05,-1.000000000000000082e-05,1.000000000000000000e+00,1.300000000000000000e+01
3.019200000000000000e+04,-1.000000000000000082e-05,-1.000000000000000082e-05,-4.000000000000000327e-05,-2.000000000000000164e-05,-2.000000000000000164e-05,-1.000000000000000082e-05,-1.000000000000000082e-05,-1.000000000000000082e-05,1.000000000000000000e+00,1.300000000000000000e+01
3.019300000000000000e+04,-1.000000000000000082e-05,-1.000000000000000082e-05,-4.000000000000000327e-05,-2.000000000000000164e-05,-2.000000000000000164e-05,-1.000000000000000082e-05,-1.000000000000000082e-05,-1.000000000000000082e-05,1.000000000000000000e+00,1.300000000000000000e+01
3.019400000000000000e+04,-1.000000000000000082e-05,-1.000000000000000082e-05,-4.000000000000000327e-05,-2.000000000000000164e-05,-2.000000000000000164e-05,-1.000000000000000082e-05,-1.000000000000000082e-05,-1.000000000000000082e-05,1.000000000000000000e+00,1.300000000000000000e+01
3.019500000000000000e+04,-1.000000000000000082e-05,-1.000000000000000082e-05,-4.000000000000000327e-05,-2.000000000000000164e-05,-2.000000000000000164e-05,-1.000000000000000082e-05,-1.000000000000000082e-05,-1.000000000000000082e-05,1.000000000000000000e+00,1.300000000000000000e+01
3.019600000000000000e+04,-1.000000000000000082e-05,-1.000000000000000082e-05,-4.000000000000000327e-05,-2.000000000000000164e-05,-2.000000000000000164e-05,-1.000000000000000082e-05,-1.000000000000000082e-05,-1.000000000000000082e-05,1.000000000000000000e+00,1.300000000000000000e+01
3.019700000000000000e+04,-1.000000000000000082e-05,-1.000000000000000082e-05,-4.000000000000000327e-05,-2.000000000000000164e-05,-2.000000000000000164e-05,-1.000000000000000082e-05,-1.000000000000000082e-05,-1.000000000000000082e-05,1.000000000000000000e+00,1.300000000000000000e+01
3.019800000000000000e+04,-1.000000000000000082e-05,-2.000000000000000164e-05,2.999999999999999737e-05,-5.000000000000000240e-05,2.000000000000000164e-05,5.000000000000000240e-05,1.000000000000000082e-05,-1.000000000000000082e-05,1.000000000000000000e+00,1.300000000000000000e+01
3.019900000000000000e+04,-1.000000000000000082e-05,-2.000000000000000164e-05,2.999999999999999737e-05,-5.000000000000000240e-05,2.000000000000000164e-05,5.000000000000000240e-05,1.000000000000000082e-05,-1.000000000000000082e-05,1.000000000000000000e+00,1.300000000000000000e+01
3.020000000000000000e+04,-1.000000000000000082e-05,-2.000000000000000164e-05,2.999999999999999737e-05,-5.000000000000000240e-05,2.000000000000000164e-05,5.000000000000000240e-05,1.000000000000000082e-05,-1.000000000000000082e-05,1.000000000000000000e+00,1.300000000000000000e+01
3.020100000000000000e+04,-1.000000000000000082e-05,-2.000000000000000164e-05,2.999999999999999737e-05,-5.000000000000000240e-05,2.000000000000000164e-05,5.000000000000000240e-05,1.000000000000000082e-05,-1.000000000000000082e-05,1.000000000000000000e+00,1.300000000000000000e+01
3.020200000000000000e+04,-1.000000000000000082e-05,-2.000000000000000164e-05,2.999999999999999737e-05,-5.000000000000000240e-05,2.000000000000000164e-05,5.000000000000000240e-05,1.000000000000000082e-05,-1.000000000000000082e-05,1.000000000000000000e+00,1.300000000000000000e+01
3.020300000000000000e+04,-1.000000000000000082e-05,-2.000000000000000164e-05,2.999999999999999737e-05,-5.000000000000000240e-05,2.000000000000000164e-05,5.000000000000000240e-05,1.000000000000000082e-05,-1.000000000000000082e-05,1.000000000000000000e+00,1.300000000000000000e+01
3.020400000000000000e+04,-1.000000000000000082e-05,-2.000000000000000164e-05,2.999999999999999737e-05,-5.000000000000000240e-05,2.000000000000000164e-05,5.000000000000000240e-05,1.000000000000000082e-05,-1.000000000000000082e-05,1.000000000000000000e+00,1.300000000000000000e+01
3.020500000000000000e+04,-1.000000000000000082e-05,-2.000000000000000164e-05,2.999999999999999737e-05,-5.000000000000000240e-05,2.000000000000000164e-05,5.000000000000000240e-05,1.000000000000000082e-05,-1.000000000000000082e-05,1.000000000000000000e+00,1.300000000000000000e+01
3.020600000000000000e+04,-1.000000000000000082e-05,-2.000000000000000164e-05,2.999999999999999737e-05,-5.000000000000000240e-05,2.000000000000000164e-05,5.000000000000000240e-05,1.000000000000000082e-05,-1.000000000000000082e-05,1.000000000000000000e+00,1.300000000000000000e+01
3.020700000000000000e+04,-1.000000000000000082e-05,-2.000000000000000164e-05,2.999999999999999737e-05,-5.000000000000000240e-05,2.000000000000000164e-05,5.000000000000000240e-05,1.000000000000000082e-05,-1.000000000000000082e-05,1.000000000000000000e+00,1.300000000000000000e+01
3.020800000000000000e+04,-1.000000000000000082e-05,-2.000000000000000164e-05,2.999999999999999737e-05,-5.000000000000000240e-05,2.000000000000000164e-05,5.000000000000000240e-05,1.000000000000000082e-05,-1.000000000000000082e-05,1.000000000000000000e+00,1.300000000000000000e+01
3.020900000000000000e+04,-1.000000000000000082e-05,-2.000000000000000164e-05,2.999999999999999737e-05,-5.000000000000000240e-05,2.000000000000000164e-05,5.000000000000000240e-05,1.000000000000000082e-05,-1.000000000000000082e-05,1.000000000000000000e+00,1.300000000000000000e+01
3.021000000000000000e+04,-1.000000000000000082e-05,-2.000000000000000164e-05,2.999999999999999737e-05,-5.000000000000000240e-05,2.000000000000000164e-05,5.000000000000000240e-05,1.000000000000000082e-05,-1.000000000000000082e-05,1.000000000000000000e+00,1.300000000000000000e+01
3.021100000000000000e+04,-1.000000000000000082e-05,-2.000000000000000164e-05,2.999999999999999737e-05,-5.000000000000000240e-05,2.000000000000000164e-05,5.000000000000000240e-05,1.000000000000000082e-05,-1.000000000000000082e-05,1.000000000000000000e+00,1.300000000000000000e+01
3.021200000000000000e+04,-1.000000000000000082e-05,-2.000000000000000164e-05,2.999999999999999737e-05,-5.000000000000000240e-05,2.000000000000000164e-05,5.000000000000000240e-05,1.000000000000000082e-05,-1.000000000000000082e-05,1.000000000000000000e+00,1.300000000000000000e+01
3.021300000000000000e+04,-1.000000000000000082e-05,-2.000000000000000164e-05,2.999999999999999737e-05,-5.000000000000000240e-05,2.000000000000000164e-05,5.000000000000000240e-05,1.000000000000000082e-05,-1.000000000000000082e-05,1.000000000000000000e+00,1.300000000000000000e+01
3.021400000000000000e+04,-1.000000000000000082e-05,-2.000000000000000164e-05,2.999999999999999737e-05,-5.000000000000000240e-05,2.000000000000000164e-05,5.000000000000000240e-05,1.000000000000000082e-05,-1.000000000000000082e-05,1.000000000000000000e+00,1.300000000000000000e+01
3.021500000000000000e+04,-1.000000000000000082e-05,-2.000000000000000164e-05,2.999999999999999737e-05,-5.000000000000000240e-05,2.000000000000000164e-05,5.000000000000000240e-05,1.000000000000000082e-05,-1.000000000000000082e-05,1.000000000000000000e+00,1.300000000000000000e+01
3.021600000000000000e+04,-1.000000000000000082e-05,-2.000000000000000164e-05,2.999999999999999737e-05,-5.000000000000000240e-05,2.000000000000000164e-05,5.000000000000000240e-05,1.000000000000000082e-05,-1.000000000000000082e-05,1.000000000000000000e+00,1.300000000000000000e+01
3.021700000000000000e+04,-1.000000000000000082e-05,-2.000000000000000164e-05,2.999999999999999737e-05,-5.000000000000000240e-05,2.000000000000000164e-05,5.000000000000000240e-05,1.000000000000000082e-05,-1.000000000000000082e-05,1.000000000000000000e+00,1.300000000000000000e+01
3.021800000000000000e+04,-1.000000000000000082e-05,-2.000000000000000164e-05,2.999999999999999737e-05,-5.000000000000000240e-05,2.000000000000000164e-05,5.000000000000000240e-05,1.000000000000000082e-05,-1.000000000000000082e-05,1.000000000000000000e+00,1.300000000000000000e+01
3.021900000000000000e+04,-1.000000000000000082e-05,-2.000000000000000164e-05,2.999999999999999737e-05,-5.000000000000000240e-05,2.000000000000000164e-05,5.000000000000000240e-05,1.000000000000000082e-05,-1.000000000000000082e-05,1.000000000000000000e+00,1.300000000000000000e+01
3.022000000000000000e+04,-1.000000000000000082e-05,-2.000000000000000164e-05,2.999999999999999737e-05,-5.000000000000000240e-05,2.000000000000000164e-05,5.000000000000000240e-05,1.000000000000000082e-05,-1.000000000000000082e-05,1.000000000000000000e+00,1.300000000000000000e+01
3.022100000000000000e+04,0.000000000000000000e+00,-2.000000000000000164e-05,-2.000000000000000164e-05,0.000000000000000000e+00,-1.000000000000000082e-05,-1.000000000000000082e-05,0.000000000000000000e+00,-1.000000000000000082e-05,1.000000000000000000e+00,1.300000000000000000e+01
3.022200000000000000e+04,1.000000000000000082e-05,1.000000000000000082e-05,0.000000000000000000e+00,6.999999999999999387e-05,5.999999999999999474e-05,4.000000000000000327e-05,-1.000000000000000082e-05,0.000000000000000000e+00,1.000000000000000000e+00,1.300000000000000000e+01
3.022300000000000000e+04,1.000000000000000082e-05,1.000000000000000082e-05,0.000000000000000000e+00,6.999999999999999387e-05,5.999999999999999474e-05,4.000000000000000327e-05,-1.000000000000000082e-05,0.000000000000000000e+00,1.000000000000000000e+00,1.300000000000000000e+01
3.022400000000000000e+04,1.000000000000000082e-05,1.000000000000000082e-05,0.000000000000000000e+00,6.999999999999999387e-05,5.999999999999999474e-05,4.000000000000000327e-05,-1.000000000000000082e-05,0.000000000000000000e+00,1.000000000000000000e+00,1.300000000000000000e+01
3.022500000000000000e+04,1.000000000000000082e-05,1.000000000000000082e-05,0.000000000000000000e+00,6.999999999999999387e-05,5.999999999999999474e-05,4.000000000000000327e-05,-1.000000000000000082e-05,0.000000000000000000e+00,1.000000000000000000e+00,1.300000000000000000e+01
3.022600000000000000e+04,1.000000000000000082e-05,1.000000000000000082e-05,0.000000000000000000e+00,6.999999999999999387e-05,5.999999999999999474e-05,4.000000000000000327e-05,-1.000000000000000082e-05,0.000000000000000000e+00,1.000000000000000000e+00,1.300000000000000000e+01
3.022700000000000000e+04,1.000000000000000082e-05,1.000000000000000082e-05,0.000000000000000000e+00,6.999999999999999387e-05,5.999999999999999474e-05,4.000000000000000327e-05,-1.000000000000000082e-05,0.000000000000000000e+00,1.000000000000000000e+00,1.300000000000000000e+01
3.022800000000000000e+04,1.000000000000000082e-05,1.000000000000000082e-05,0.000000000000000000e+00,6.999999999999999387e-05,5.999999999999999474e-05,4.000000000000000327e-05,-1.000000000000000082e-05,0.000000000000000000e+00,1.000000000000000000e+00,1.300000000000000000e+01
3.022900000000000000e+04,1.000000000000000082e-05,1.000000000000000082e-05,0.000000000000000000e+00,6.999999999999999387e-05,5.999999999999999474e-05,4.000000000000000327e-05,-1.000000000000000082e-05,0.000000000000000000e+00,1.000000000000000000e+00,1.300000000000000000e+01
3.023000000000000000e+04,1.000000000000000082e-05,1.000000000000000082e-05,0.000000000000000000e+00,6.999999999999999387e-05,5.999999999999999474e-05,4.000000000000000327e-05,-1.000000000000000082e-05,0.000000000000000000e+00,1.000000000000000000e+00,1.300000000000000000e+01
3.023100000000000000e+04,1.000000000000000082e-05,1.000000000000000082e-05,0.000000000000000000e+00,6.999999999999999387e-05,5.999999999999999474e-05,4.000000000000000327e-05,-1.000000000000000082e-05,0.000000000000000000e+00,1.000000000000000000e+00,1.300000000000000000e+01
3.023200000000000000e+04,1.000000000000000082e-05,1.000000000000000082e-05,0.000000000000000000e+00,6.999999999999999387e-05,5.999999999999999474e-05,4.000000000000000327e-05,-1.000000000000000082e-05,0.000000000000000000e+00,1.000000000000000000e+00,1.300000000000000000e+01
3.023300000000000000e+04,1.000000000000000082e-05,1.000000000000000082e-05,0.000000000000000000e+00,6.999999999999999387e-05,5.999999999999999474e-05,4.000000000000000327e-05,-1.000000000000000082e-05,0.000000000000000000e+00,1.000000000000000000e+00,1.300000000000000000e+01
3.023400000000000000e+04,1.000000000000000082e-05,1.000000000000000082e-05,0.000000000000000000e+00,6.999999999999999387e-05,5.999999999999999474e-05,4.000000000000000327e-05,-1.000000000000000082e-05,0.000000000000000000e+00,1.000000000000000000e+00,1.300000000000000000e+01
3.023500000000000000e+04,1.000000000000000082e-05,1.000000000000000082e-05,0.000000000000000000e+00,6.999999999999999387e-05,5.999999999999999474e-05,4.000000000000000327e-05,-1.000000000000000082e-05,0.000000000000000000e+00,1.000000000000000000e+00,1.300000000000000000e+01
3.023600000000000000e+04,-1.000000000000000082e-05,0.000000000000000000e+00,2.999999999999999737e-05,8.000000000000000654e-05,-1.000000000000000082e-05,-6.999999999999999387e-05,-2.000000000000000164e-05,0.000000000000000000e+00,1.000000000000000000e+00,1.300000000000000000e+01
3.023900000000000000e+04,-2.000000000000000164e-05,0.000000000000000000e+00,0.000000000000000000e+00,0.000000000000000000e+00,0.000000000000000000e+00,2.999999999999999737e-05,1.000000000000000082e-05,0.000000000000000000e+00,1.000000000000000000e+00,1.300000000000000000e+01
3.024000000000000000e+04,-2.000000000000000164e-05,0.000000000000000000e+00,0.000000000000000000e+00,0.000000000000000000e+00,0.000000000000000000e+00,2.999999999999999737e-05,1.000000000000000082e-05,0.000000000000000000e+00,1.000000000000000000e+00,1.300000000000000000e+01
3.024100000000000000e+04,-2.000000000000000164e-05,0.000000000000000000e+00,0.000000000000000000e+00,0.000000000000000000e+00,0.000000000000000000e+00,2.999999999999999737e-05,1.000000000000000082e-05,0.000000000000000000e+00,1.000000000000000000e+00,1.300000000000000000e+01
3.024200000000000000e+04,-2.000000000000000164e-05,0.000000000000000000e+00,0.000000000000000000e+00,0.000000000000000000e+00,0.000000000000000000e+00,2.999999999999999737e-05,1.000000000000000082e-05,0.000000000000000000e+00,1.000000000000000000e+00,1.300000000000000000e+01
3.024300000000000000e+04,-2.000000000000000164e-05,0.000000000000000000e+00,0.000000000000000000e+00,0.000000000000000000e+00,0.000000000000000000e+00,2.999999999999999737e-05,1.000000000000000082e-05,0.000000000000000000e+00,1.000000000000000000e+00,1.300000000000000000e+01
3.024400000000000000e+04,-2.000000000000000164e-05,0.000000000000000000e+00,0.000000000000000000e+00,0.000000000000000000e+00,0.000000000000000000e+00,2.999999999999999737e-05,1.000000000000000082e-05,0.000000000000000000e+00,1.000000000000000000e+00,1.300000000000000000e+01
3.024500000000000000e+04,-2.000000000000000164e-05,0.000000000000000000e+00,0.000000000000000000e+00,0.000000000000000000e+00,0.000000000000000000e+00,2.999999999999999737e-05,1.000000000000000082e-05,0.000000000000000000e+00,1.000000000000000000e+00,1.300000000000000000e+01
3.024600000000000000e+04,-2.000000000000000164e-05,0.000000000000000000e+00,0.000000000000000000e+00,0.000000000000000000e+00,0.000000000000000000e+00,2.999999999999999737e-05,1.000000000000000082e-05,0.000000000000000000e+00,1.000000000000000000e+00,1.300000000000000000e+01
3.024700000000000000e+04,-2.000000000000000164e-05,0.000000000000000000e+00,0.000000000000000000e+00,0.000000000000000000e+00,0.000000000000000000e+00,2.999999999999999737e-05,1.000000000000000082e-05,0.000000000000000000e+00,1.000000000000000000e+00,1.300000000000000000e+01
3.024800000000000000e+04,-2.000000000000000164e-05,0.000000000000000000e+00,0.000000000000000000e+00,0.000000000000000000e+00,0.000000000000000000e+00,2.999999999999999737e-05,1.000000000000000082e-05,0.000000000000000000e+00,1.000000000000000000e+00,1.300000000000000000e+01
3.024900000000000000e+04,1.000000000000000082e-05,-2.000000000000000164e-05,2.999999999999999737e-05,5.000000000000000240e-05,0.000000000000000000e+00,-1.000000000000000082e-05,-1.000000000000000082e-05,-1.000000000000000082e-05,1.000000000000000000e+00,1.300000000000000000e+01
3.025000000000000000e+04,1.000000000000000082e-05,-2.000000000000000164e-05,2.999999999999999737e-05,5.000000000000000240e-05,0.000000000000000000e+00,-1.000000000000000082e-05,-1.000000000000000082e-05,-1.000000000000000082e-05,1.000000000000000000e+00,1.300000000000000000e+01
3.025100000000000000e+04,1.000000000000000082e-05,-2.000000000000000164e-05,2.999999999999999737e-05,5.000000000000000240e-05,0.000000000000000000e+00,-1.000000000000000082e-05,-1.000000000000000082e-05,-1.000000000000000082e-05,1.000000000000000000e+00,1.300000000000000000e+01
3.025200000000000000e+04,1.000000000000000082e-05,-2.000000000000000164e-05,2.999999999999999737e-05,5.000000000000000240e-05,0.000000000000000000e+00,-1.000000000000000082e-05,-1.000000000000000082e-05,-1.000000000000000082e-05,1.000000000000000000e+00,1.300000000000000000e+01
3.025300000000000000e+04,1.000000000000000082e-05,-2.000000000000000164e-05,2.999999999999999737e-05,5.000000000000000240e-05,0.000000000000000000e+00,-1.000000000000000082e-05,-1.000000000000000082e-05,-1.000000000000000082e-05,1.000000000000000000e+00,1.300000000000000000e+01
3.025400000000000000e+04,1.000000000000000082e-05,-2.000000000000000164e-05,2.999999999999999737e-05,5.000000000000000240e-05,0.000000000000000000e+00,-1.000000000000000082e-05,-1.000000000000000082e-05,-1.000000000000000082e-05,1.000000000000000000e+00,1.300000000000000000e+01
3.025500000000000000e+04,1.000000000000000082e-05,-2.000000000000000164e-05,2.999999999999999737e-05,5.000000000000000240e-05,0.000000000000000000e+00,-1.000000000000000082e-05,-1.000000000000000082e-05,-1.000000000000000082e-05,1.000000000000000000e+00,1.300000000000000000e+01
3.025600000000000000e+04,1.000000000000000082e-05,-2.000000000000000164e-05,2.999999999999999737e-05,5.000000000000000240e-05,0.000000000000000000e+00,-1.000000000000000082e-05,-1.000000000000000082e-05,-1.000000000000000082e-05,1.000000000000000000e+00,1.300000000000000000e+01
3.025700000000000000e+04,1.000000000000000082e-05,-2.000000000000000164e-05,2.999999999999999737e-05,5.000000000000000240e-05,0.000000000000000000e+00,-1.000000000000000082e-05,-1.000000000000000082e-05,-1.000000000000000082e-05,1.000000000000000000e+00,1.300000000000000000e+01
3.025800000000000000e+04,-2.999999999999999737e-05,2.000000000000000164e-05,4.000000000000000327e-05,-1.100000000000000039e-04,-2.000000000000000164e-05,-1.000000000000000082e-05,0.000000000000000000e+00,-1.000000000000000082e-05,1.000000000000000000e+00,1.300000000000000000e+01
3.025900000000000000e+04,-2.999999999999999737e-05,2.000000000000000164e-05,4.000000000000000327e-05,-1.100000000000000039e-04,-2.000000000000000164e-05,-1.000000000000000082e-05,0.000000000000000000e+00,-1.000000000000000082e-05,1.000000000000000000e+00,1.300000000000000000e+01
3.026000000000000000e+04,-2.999999999999999737e-05,2.000000000000000164e-05,4.000000000000000327e-05,-1.100000000000000039e-04,-2.000000000000000164e-05,-1.000000000000000082e-05,0.000000000000000000e+00,-1.000000000000000082e-05,1.000000000000000000e+00,1.300000000000000000e+01
3.026100000000000000e+04,-2.999999999999999737e-05,2.000000000000000164e-05,4.000000000000000327e-05,-1.100000000000000039e-04,-2.000000000000000164e-05,-1.000000000000000082e-05,0.000000000000000000e+00,-1.000000000000000082e-05,1.000000000000000000e+00,1.300000000000000000e+01
3.026200000000000000e+04,-2.999999999999999737e-05,2.000000000000000164e-05,4.000000000000000327e-05,-1.100000000000000039e-04,-2.000000000000000164e-05,-1.000000000000000082e-05,0.000000000000000000e+00,-1.000000000000000082e-05,1.000000000000000000e+00,1.300000000000000000e+01
3.026300000000000000e+04,-2.999999999999999737e-05,2.000000000000000164e-05,4.000000000000000327e-05,-1.100000000000000039e-04,-2.000000000000000164e-05,-1.000000000000000082e-05,0.000000000000000000e+00,-1.000000000000000082e-05,1.000000000000000000e+00,1.300000000000000000e+01
3.026400000000000000e+04,-2.999999999999999737e-05,2.000000000000000164e-05,4.000000000000000327e-05,-1.100000000000000039e-04,-2.000000000000000164e-05,-1.000000000000000082e-05,0.000000000000000000e+00,-1.000000000000000082e-05,1.000000000000000000e+00,1.300000000000000000e+01
3.026500000000000000e+04,-2.999999999999999737e-05,2.000000000000000164e-05,4.000000000000000327e-05,-1.100000000000000039e-04,-2.000000000000000164e-05,-1.000000000000000082e-05,0.000000000000000000e+00,-1.000000000000000082e-05,1.000000000000000000e+00,1.300000000000000000e+01
3.026600000000000000e+04,-2.999999999999999737e-05,2.000000000000000164e-05,4.000000000000000327e-05,-1.100000000000000039e-04,-2.000000000000000164e-05,-1.000000000000000082e-05,0.000000000000000000e+00,-1.000000000000000082e-05,1.000000000000000000e+00,1.300000000000000000e+01
3.026700000000000000e+04,-2.999999999999999737e-05,2.000000000000000164e-05,4.000000000000000327e-05,-1.100000000000000039e-04,-2.000000000000000164e-05,-1.000000000000000082e-05,0.000000000000000000e+00,-1.000000000000000082e-05,1.000000000000000000e+00,1.300000000000000000e+01
3.026800000000000000e+04,-2.999999999999999737e-05,2.000000000000000164e-05,4.000000000000000327e-05,-1.100000000000000039e-04,-2.000000000000000164e-05,-1.000000000000000082e-05,0.000000000000000000e+00,-1.000000000000000082e-05,1.000000000000000000e+00,1.300000000000000000e+01
3.026900000000000000e+04,-2.999999999999999737e-05,2.000000000000000164e-05,4.000000000000000327e-05,-1.100000000000000039e-04,-2.000000000000000164e-05,-1.000000000000000082e-05,0.000000000000000000e+00,-1.000000000000000082e-05,1.000000000000000000e+00,1.300000000000000000e+01
3.027000000000000000e+04,-2.999999999999999737e-05,2.000000000000000164e-05,4.000000000000000327e-05,-1.100000000000000039e-04,-2.000000000000000164e-05,-1.000000000000000082e-05,0.000000000000000000e+00,-1.000000000000000082e-05,1.000000000000000000e+00,1.300000000000000000e+01
3.027100000000000000e+04,-2.999999999999999737e-05,2.000000000000000164e-05,4.000000000000000327e-05,-1.100000000000000039e-04,-2.000000000000000164e-05,-1.000000000000000082e-05,0.000000000000000000e+00,-1.000000000000000082e-05,1.000000000000000000e+00,1.300000000000000000e+01
3.027200000000000000e+04,-2.999999999999999737e-05,2.000000000000000164e-05,4.000000000000000327e-05,-1.100000000000000039e-04,-2.000000000000000164e-05,-1.000000000000000082e-05,0.000000000000000000e+00,-1.000000000000000082e-05,1.000000000000000000e+00,1.300000000000000000e+01
3.027300000000000000e+04,0.000000000000000000e+00,1.000000000000000082e-05,1.000000000000000082e-05,-5.000000000000000240e-05,4.000000000000000327e-05,2.999999999999999737e-05,-1.000000000000000082e-05,-2.999999999999999737e-05,1.000000000000000000e+00,1.300000000000000000e+01
3.027400000000000000e+04,0.000000000000000000e+00,1.000000000000000082e-05,1.000000000000000082e-05,-5.000000000000000240e-05,4.000000000000000327e-05,2.999999999999999737e-05,-1.000000000000000082e-05,-2.999999999999999737e-05,1.000000000000000000e+00,1.300000000000000000e+01
3.027500000000000000e+04,0.000000000000000000e+00,1.000000000000000082e-05,1.000000000000000082e-05,-5.000000000000000240e-05,4.000000000000000327e-05,2.999999999999999737e-05,-1.000000000000000082e-05,-2.999999999999999737e-05,1.000000000000000000e+00,1.300000000000000000e+01
3.027600000000000000e+04,0.000000000000000000e+00,1.000000000000000082e-05,1.000000000000000082e-05,-5.000000000000000240e-05,4.000000000000000327e-05,2.999999999999999737e-05,-1.000000000000000082e-05,-2.999999999999999737e-05,1.000000000000000000e+00,1.300000000000000000e+01
3.027700000000000000e+04,0.000000000000000000e+00,1.000000000000000082e-05,1.000000000000000082e-05,-5.000000000000000240e-05,4.000000000000000327e-05,2.999999999999999737e-05,-1.000000000000000082e-05,-2.999999999999999737e-05,1.000000000000000000e+00,1.300000000000000000e+01
3.027800000000000000e+04,0.000000000000000000e+00,1.000000000000000082e-05,1.000000000000000082e-05,-5.000000000000000240e-05,4.000000000000000327e-05,2.999999999999999737e-05,-1.000000000000000082e-05,-2.999999999999999737e-05,1.000000000000000000e+00,1.300000000000000000e+01
3.027900000000000000e+04,0.000000000000000000e+00,1.000000000000000082e-05,1.000000000000000082e-05,-5.000000000000000240e-05,4.000000000000000327e-05,2.999999999999999737e-05,-1.000000000000000082e-05,-2.999999999999999737e-05,1.000000000000000000e+00,1.300000000000000000e+01
3.028000000000000000e+04,0.000000000000000000e+00,1.000000000000000082e-05,1.000000000000000082e-05,-5.000000000000000240e-05,4.000000000000000327e-05,2.999999999999999737e-05,-1.000000000000000082e-05,-2.999999999999999737e-05,1.000000000000000000e+00,1.300000000000000000e+01
3.028100000000000000e+04,0.000000000000000000e+00,1.000000000000000082e-05,1.000000000000000082e-05,-5.000000000000000240e-05,4.000000000000000327e-05,2.999999999999999737e-05,-1.000000000000000082e-05,-2.999999999999999737e-05,1.000000000000000000e+00,1.300000000000000000e+01
3.028200000000000000e+04,0.000000000000000000e+00,1.000000000000000082e-05,1.000000000000000082e-05,-5.000000000000000240e-05,4.000000000000000327e-05,2.999999999999999737e-05,-1.000000000000000082e-05,-2.999999999999999737e-05,1.000000000000000000e+00,1.300000000000000000e+01
3.028300000000000000e+04,0.000000000000000000e+00,1.000000000000000082e-05,1.000000000000000082e-05,-5.000000000000000240e-05,4.000000000000000327e-05,2.999999999999999737e-05,-1.000000000000000082e-05,-2.999999999999999737e-05,1.000000000000000000e+00,1.300000000000000000e+01
3.028400000000000000e+04,0.000000000000000000e+00,1.000000000000000082e-05,1.000000000000000082e-05,-5.000000000000000240e-05,4.000000000000000327e-05,2.999999999999999737e-05,-1.000000000000000082e-05,-2.999999999999999737e-05,1.000000000000000000e+00,1.300000000000000000e+01
3.028500000000000000e+04,0.000000000000000000e+00,1.000000000000000082e-05,1.000000000000000082e-05,-5.000000000000000240e-05,4.000000000000000327e-05,2.999999999999999737e-05,-1.000000000000000082e-05,-2.999999999999999737e-05,1.000000000000000000e+00,1.300000000000000000e+01
3.028600000000000000e+04,-1.000000000000000082e-05,-2.000000000000000164e-05,0.000000000000000000e+00,-1.499999999999999869e-04,-2.000000000000000164e-05,-1.000000000000000048e-04,-2.000000000000000164e-05,-1.000000000000000082e-05,1.000000000000000000e+00,1.300000000000000000e+01
3.028900000000000000e+04,0.000000000000000000e+00,-1.000000000000000082e-05,-1.000000000000000082e-05,1.000000000000000082e-05,-2.999999999999999737e-05,1.000000000000000082e-05,0.000000000000000000e+00,1.000000000000000082e-05,1.000000000000000000e+00,1.300000000000000000e+01
3.029000000000000000e+04,0.000000000000000000e+00,-1.000000000000000082e-05,-1.000000000000000082e-05,1.000000000000000082e-05,-2.999999999999999737e-05,1.000000000000000082e-05,0.000000000000000000e+00,1.000000000000000082e-05,1.000000000000000000e+00,1.300000000000000000e+01
3.029100000000000000e+04,0.000000000000000000e+00,-1.000000000000000082e-05,-1.000000000000000082e-05,1.000000000000000082e-05,-2.999999999999999737e-05,1.000000000000000082e-05,0.000000000000000000e+00,1.000000000000000082e-05,1.000000000000000000e+00,1.300000000000000000e+01
3.029200000000000000e+04,0.000000000000000000e+00,-1.000000000000000082e-05,-1.000000000000000082e-05,1.000000000000000082e-05,-2.999999999999999737e-05,1.000000000000000082e-05,0.000000000000000000e+00,1.000000000000000082e-05,1.000000000000000000e+00,1.300000000000000000e+01
3.029300000000000000e+04,0.000000000000000000e+00,-1.000000000000000082e-05,-1.000000000000000082e-05,1.000000000000000082e-05,-2.999999999999999737e-05,1.000000000000000082e-05,0.000000000000000000e+00,1.000000000000000082e-05,1.000000000000000000e+00,1.300000000000000000e+01
3.029400000000000000e+04,0.000000000000000000e+00,-1.000000000000000082e-05,-1.000000000000000082e-05,1.000000000000000082e-05,-2.999999999999999737e-05,1.000000000000000082e-05,0.000000000000000000e+00,1.000000000000000082e-05,1.000000000000000000e+00,1.300000000000000000e+01
3.029500000000000000e+04,0.000000000000000000e+00,-1.000000000000000082e-05,-1.000000000000000082e-05,1.000000000000000082e-05,-2.999999999999999737e-05,1.000000000000000082e-05,0.000000000000000000e+00,1.000000000000000082e-05,1.000000000000000000e+00,1.300000000000000000e+01
3.029600000000000000e+04,-1.000000000000000082e-05,-2.000000000000000164e-05,-2.000000000000000164e-05,0.000000000000000000e+00,0.000000000000000000e+00,-1.000000000000000082e-05,1.000000000000000082e-05,-1.000000000000000082e-05,1.000000000000000000e+00,1.300000000000000000e+01
3.029700000000000000e+04,0.000000000000000000e+00,-1.000000000000000082e-05,4.000000000000000327e-05,6.999999999999999387e-05,0.000000000000000000e+00,-4.000000000000000327e-05,1.000000000000000082e-05,-2.000000000000000164e-05,1.000000000000000000e+00,1.300000000000000000e+01
