5.339700000000000000e+04,-1.030000000000000100e-03,-1.399999999999999877e-04,-6.999999999999999387e-05,-1.499999999999999869e-04,-7.200000000000000453e-04,-1.000000000000000021e-03,-2.200000000000000078e-04,-5.000000000000000104e-04,6.000000000000000000e+00,2.300000000000000000e+01
5.339800000000000000e+04,-1.030000000000000100e-03,-1.399999999999999877e-04,-6.999999999999999387e-05,-1.499999999999999869e-04,-7.200000000000000453e-04,-1.000000000000000021e-03,-2.200000000000000078e-04,-5.000000000000000104e-04,6.000000000000000000e+00,2.300000000000000000e+01
5.339900000000000000e+04,-1.030000000000000100e-03,-1.399999999999999877e-04,-6.999999999999999387e-05,-1.499999999999999869e-04,-7.200000000000000453e-04,-1.000000000000000021e-03,-2.200000000000000078e-04,-5.000000000000000104e-04,6.000000000000000000e+00,2.300000000000000000e+01
5.340000000000000000e+04,-1.030000000000000100e-03,-1.399999999999999877e-04,-6.999999999999999387e-05,-1.499999999999999869e-04,-7.200000000000000453e-04,-1.000000000000000021e-03,-2.200000000000000078e-04,-5.000000000000000104e-04,6.000000000000000000e+00,2.300000000000000000e+01
5.340100000000000000e+04,-1.030000000000000100e-03,-1.399999999999999877e-04,-6.999999999999999387e-05,-1.499999999999999869e-04,-7.200000000000000453e-04,-1.000000000000000021e-03,-2.200000000000000078e-04,-5.000000000000000104e-04,6.000000000000000000e+00,2.300000000000000000e+01
5.340200000000000000e+04,-1.030000000000000100e-03,-1.399999999999999877e-04,-6.999999999999999387e-05,-1.499999999999999869e-04,-7.200000000000000453e-04,-1.000000000000000021e-03,-2.200000000000000078e-04,-5.000000000000000104e-04,6.000000000000000000e+00,2.300000000000000000e+01
5.340300000000000000e+04,-1.030000000000000100e-03,-1.399999999999999877e-04,-6.999999999999999387e-05,-1.499999999999999869e-04,-7.200000000000000453e-04,-1.000000000000000021e-03,-2.200000000000000078e-04,-5.000000000000000104e-04,6.000000000000000000e+00,2.300000000000000000e+01
5.340400000000000000e+04,-1.030000000000000100e-03,-1.399999999999999877e-04,-6.999999999999999387e-05,-1.499999999999999869e-04,-7.200000000000000453e-04,-1.000000000000000021e-03,-2.200000000000000078e-04,-5.000000000000000104e-04,6.000000000000000000e+00,2.300000000000000000e+01
5.340500000000000000e+04,-1.030000000000000100e-03,-1.399999999999999877e-04,-6.999999999999999387e-05,-1.499999999999999869e-04,-7.200000000000000453e-04,-1.000000000000000021e-03,-2.200000000000000078e-04,-5.000000000000000104e-04,6.000000000000000000e+00,2.300000000000000000e+01
5.340600000000000000e+04,-1.030000000000000100e-03,-1.399999999999999877e-04,-6.999999999999999387e-05,-1.499999999999999869e-04,-7.200000000000000453e-04,-1.000000000000000021e-03,-2.200000000000000078e-04,-5.000000000000000104e-04,6.000000000000000000e+00,2.300000000000000000e+01
5.340700000000000000e+04,-1.030000000000000100e-03,-1.399999999999999877e-04,-6.999999999999999387e-05,-1.499999999999999869e-04,-7.200000000000000453e-04,-1.000000000000000021e-03,-2.200000000000000078e-04,-5.000000000000000104e-04,6.000000000000000000e+00,2.300000000000000000e+01
5.340800000000000000e+04,-1.030000000000000100e-03,-1.399999999999999877e-04,-6.999999999999999387e-05,-1.499999999999999869e-04,-7.200000000000000453e-04,-1.000000000000000021e-03,-2.200000000000000078e-04,-5.000000000000000104e-04,6.000000000000000000e+00,2.300000000000000000e+01
5.340900000000000000e+04,-1.030000000000000100e-03,-1.399999999999999877e-04,-6.999999999999999387e-05,-1.499999999999999869e-04,-7.200000000000000453e-04,-1.000000000000000021e-03,-2.200000000000000078e-04,-5.000000000000000104e-04,6.000000000000000000e+00,2.300000000000000000e+01
5.341000000000000000e+04,-1.030000000000000100e-03,-1.399999999999999877e-04,-6.999999999999999387e-05,-1.499999999999999869e-04,-7.200000000000000453e-04,-1.000000000000000021e-03,-2.200000000000000078e-04,-5.000000000000000104e-04,6.000000000000000000e+00,2.300000000000000000e+01
5.341100000000000000e+04,-1.030000000000000100e-03,-1.399999999999999877e-04,-6.999999999999999387e-05,-1.499999999999999869e-04,-7.200000000000000453e-04,-1.000000000000000021e-03,-2.200000000000000078e-04,-5.000000000000000104e-04,6.000000000000000000e+00,2.300000000000000000e+01
5.341200000000000000e+04,-1.030000000000000100e-03,-1.399999999999999877e-04,-6.999999999999999387e-05,-1.499999999999999869e-04,-7.200000000000000453e-04,-1.000000000000000021e-03,-2.200000000000000078e-04,-5.000000000000000104e-04,6.000000000000000000e+00,2.300000000000000000e+01
5.341300000000000000e+04,-1.030000000000000100e-03,-1.399999999999999877e-04,-6.999999999999999387e-05,-1.499999999999999869e-04,-7.200000000000000453e-04,-1.000000000000000021e-03,-2.200000000000000078e-04,-5.000000000000000104e-04,6.000000000000000000e+00,2.300000000000000000e+01
5.341400000000000000e+04,-1.499999999999999869e-04,-1.000000000000000082e-05,2.999999999999999737e-05,8.000000000000000654e-05,6.099999999999999737e-04,-5.299999999999999807e-04,-2.200000000000000078e-04,-1.100000000000000039e-04,6.000000000000000000e+00,2.300000000000000000e+01
5.341500000000000000e+04,2.000000000000000096e-04,-1.399999999999999877e-04,-1.600000000000000131e-04,-2.799999999999999755e-04,-8.300000000000001170e-04,1.199999999999999895e-04,-2.999999999999999737e-05,-1.800000000000000113e-04,6.000000000000000000e+00,2.300000000000000000e+01
5.341600000000000000e+04,2.000000000000000096e-04,-1.399999999999999877e-04,-1.600000000000000131e-04,-2.799999999999999755e-04,-8.300000000000001170e-04,1.199999999999999895e-04,-2.999999999999999737e-05,-1.800000000000000113e-04,6.000000000000000000e+00,2.300000000000000000e+01
5.341700000000000000e+04,2.000000000000000096e-04,-1.399999999999999877e-04,-1.600000000000000131e-04,-2.799999999999999755e-04,-8.300000000000001170e-04,1.199999999999999895e-04,-2.999999999999999737e-05,-1.800000000000000113e-04,6.000000000000000000e+00,2.300000000000000000e+01
5.341800000000000000e+04,2.000000000000000096e-04,-1.399999999999999877e-04,-1.600000000000000131e-04,-2.799999999999999755e-04,-8.300000000000001170e-04,1.199999999999999895e-04,-2.999999999999999737e-05,-1.800000000000000113e-04,6.000000000000000000e+00,2.300000000000000000e+01
5.341900000000000000e+04,2.000000000000000096e-04,-1.399999999999999877e-04,-1.600000000000000131e-04,-2.799999999999999755e-04,-8.300000000000001170e-04,1.199999999999999895e-04,-2.999999999999999737e-05,-1.800000000000000113e-04,6.000000000000000000e+00,2.300000000000000000e+01
5.342000000000000000e+04,2.000000000000000096e-04,-1.399999999999999877e-04,-1.600000000000000131e-04,-2.799999999999999755e-04,-8.300000000000001170e-04,1.199999999999999895e-04,-2.999999999999999737e-05,-1.800000000000000113e-04,6.000000000000000000e+00,2.300000000000000000e+01
5.342100000000000000e+04,2.000000000000000096e-04,-1.399999999999999877e-04,-1.600000000000000131e-04,-2.799999999999999755e-04,-8.300000000000001170e-04,1.199999999999999895e-04,-2.999999999999999737e-05,-1.800000000000000113e-04,6.000000000000000000e+00,2.300000000000000000e+01
5.342200000000000000e+04,2.000000000000000096e-04,-1.399999999999999877e-04,-1.600000000000000131e-04,-2.799999999999999755e-04,-8.300000000000001170e-04,1.199999999999999895e-04,-2.999999999999999737e-05,-1.800000000000000113e-04,6.000000000000000000e+00,2.300000000000000000e+01
5.342300000000000000e+04,2.000000000000000096e-04,-1.399999999999999877e-04,-1.600000000000000131e-04,-2.799999999999999755e-04,-8.300000000000001170e-04,1.199999999999999895e-04,-2.999999999999999737e-05,-1.800000000000000113e-04,6.000000000000000000e+00,2.300000000000000000e+01
5.342400000000000000e+04,2.000000000000000096e-04,-1.399999999999999877e-04,-1.600000000000000131e-04,-2.799999999999999755e-04,-8.300000000000001170e-04,1.199999999999999895e-04,-2.999999999999999737e-05,-1.800000000000000113e-04,6.000000000000000000e+00,2.300000000000000000e+01
5.342500000000000000e+04,2.000000000000000096e-04,-1.399999999999999877e-04,-1.600000000000000131e-04,-2.799999999999999755e-04,-8.300000000000001170e-04,1.199999999999999895e-04,-2.999999999999999737e-05,-1.800000000000000113e-04,6.000000000000000000e+00,2.300000000000000000e+01
5.342600000000000000e+04,2.000000000000000096e-04,-1.399999999999999877e-04,-1.600000000000000131e-04,-2.799999999999999755e-04,-8.300000000000001170e-04,1.199999999999999895e-04,-2.999999999999999737e-05,-1.800000000000000113e-04,6.000000000000000000e+00,2.300000000000000000e+01
5.342700000000000000e+04,2.000000000000000096e-04,-1.399999999999999877e-04,-1.600000000000000131e-04,-2.799999999999999755e-04,-8.300000000000001170e-04,1.199999999999999895e-04,-2.999999999999999737e-05,-1.800000000000000113e-04,6.000000000000000000e+00,2.300000000000000000e+01
5.342800000000000000e+04,2.000000000000000096e-04,-1.399999999999999877e-04,-1.600000000000000131e-04,-2.799999999999999755e-04,-8.300000000000001170e-04,1.199999999999999895e-04,-2.999999999999999737e-05,-1.800000000000000113e-04,6.000000000000000000e+00,2.300000000000000000e+01
5.342900000000000000e+04,2.000000000000000096e-04,-1.399999999999999877e-04,-1.600000000000000131e-04,-2.799999999999999755e-04,-8.300000000000001170e-04,1.199999999999999895e-04,-2.999999999999999737e-05,-1.800000000000000113e-04,6.000000000000000000e+00,2.300000000000000000e+01
5.343000000000000000e+04,2.000000000000000096e-04,-1.399999999999999877e-04,-1.600000000000000131e-04,-2.799999999999999755e-04,-8.300000000000001170e-04,1.199999999999999895e-04,-2.999999999999999737e-05,-1.800000000000000113e-04,6.000000000000000000e+00,2.300000000000000000e+01
5.343100000000000000e+04,2.000000000000000096e-04,-1.399999999999999877e-04,-1.600000000000000131e-04,-2.799999999999999755e-04,-8.300000000000001170e-04,1.199999999999999895e-04,-2.999999999999999737e-05,-1.800000000000000113e-04,6.000000000000000000e+00,2.300000000000000000e+01
5.343200000000000000e+04,2.000000000000000096e-04,-1.399999999999999877e-04,-1.600000000000000131e-04,-2.799999999999999755e-04,-8.300000000000001170e-04,1.199999999999999895e-04,-2.999999999999999737e-05,-1.800000000000000113e-04,6.000000000000000000e+00,2.300000000000000000e+01
5.343300000000000000e+04,2.000000000000000096e-04,-1.399999999999999877e-04,-1.600000000000000131e-04,-2.799999999999999755e-04,-8.300000000000001170e-04,1.199999999999999895e-04,-2.999999999999999737e-05,-1.800000000000000113e-04,6.000000000000000000e+00,2.300000000000000000e+01
5.343400000000000000e+04,2.000000000000000096e-04,-1.399999999999999877e-04,-1.600000000000000131e-04,-2.799999999999999755e-04,-8.300000000000001170e-04,1.199999999999999895e-04,-2.999999999999999737e-05,-1.800000000000000113e-04,6.000000000000000000e+00,2.300000000000000000e+01
5.343500000000000000e+04,2.000000000000000096e-04,-1.399999999999999877e-04,-1.600000000000000131e-04,-2.799999999999999755e-04,-8.300000000000001170e-04,1.199999999999999895e-04,-2.999999999999999737e-05,-1.800000000000000113e-04,6.000000000000000000e+00,2.300000000000000000e+01
5.343600000000000000e+04,2.000000000000000096e-04,-1.399999999999999877e-04,-1.600000000000000131e-04,-2.799999999999999755e-04,-8.300000000000001170e-04,1.199999999999999895e-04,-2.999999999999999737e-05,-1.800000000000000113e-04,6.000000000000000000e+00,2.300000000000000000e+01
5.343800000000000000e+04,1.000000000000000048e-04,0.000000000000000000e+00,-1.000000000000000048e-04,-3.399999999999999702e-04,-1.080000000000000014e-03,-8.099999999999999561e-04,-1.000000000000000082e-05,1.100000000000000039e-04,6.000000000000000000e+00,2.300000000000000000e+01
5.343900000000000000e+04,1.000000000000000048e-04,0.000000000000000000e+00,-1.000000000000000048e-04,-3.399999999999999702e-04,-1.080000000000000014e-03,-8.099999999999999561e-04,-1.000000000000000082e-05,1.100000000000000039e-04,6.000000000000000000e+00,2.300000000000000000e+01
5.344000000000000000e+04,1.000000000000000048e-04,0.000000000000000000e+00,-1.000000000000000048e-04,-3.399999999999999702e-04,-1.080000000000000014e-03,-8.099999999999999561e-04,-1.000000000000000082e-05,1.100000000000000039e-04,6.000000000000000000e+00,2.300000000000000000e+01
5.344100000000000000e+04,1.000000000000000048e-04,0.000000000000000000e+00,-1.000000000000000048e-04,-3.399999999999999702e-04,-1.080000000000000014e-03,-8.099999999999999561e-04,-1.000000000000000082e-05,1.100000000000000039e-04,6.000000000000000000e+00,2.300000000000000000e+01
5.344200000000000000e+04,1.000000000000000048e-04,0.000000000000000000e+00,-1.000000000000000048e-04,-3.399999999999999702e-04,-1.080000000000000014e-03,-8.099999999999999561e-04,-1.000000000000000082e-05,1.100000000000000039e-04,6.000000000000000000e+00,2.300000000000000000e+01
5.344300000000000000e+04,1.000000000000000048e-04,0.000000000000000000e+00,-1.000000000000000048e-04,-3.399999999999999702e-04,-1.080000000000000014e-03,-8.099999999999999561e-04,-1.000000000000000082e-05,1.100000000000000039e-04,6.000000000000000000e+00,2.300000000000000000e+01
5.344400000000000000e+04,1.000000000000000048e-04,0.000000000000000000e+00,-1.000000000000000048e-04,-3.399999999999999702e-04,-1.080000000000000014e-03,-8.099999999999999561e-04,-1.000000000000000082e-05,1.100000000000000039e-04,6.000000000000000000e+00,2.300000000000000000e+01
5.344500000000000000e+04,1.000000000000000048e-04,0.000000000000000000e+00,-1.000000000000000048e-04,-3.399999999999999702e-04,-1.080000000000000014e-03,-8.099999999999999561e-04,-1.000000000000000082e-05,1.100000000000000039e-04,6.000000000000000000e+00,2.300000000000000000e+01
5.344600000000000000e+04,1.000000000000000048e-04,0.000000000000000000e+00,-1.000000000000000048e-04,-3.399999999999999702e-04,-1.080000000000000014e-03,-8.099999999999999561e-04,-1.000000000000000082e-05,1.100000000000000039e-04,6.000000000000000000e+00,2.300000000000000000e+01
5.344700000000000000e+04,1.000000000000000048e-04,0.000000000000000000e+00,-1.000000000000000048e-04,-3.399999999999999702e-04,-1.080000000000000014e-03,-8.099999999999999561e-04,-1.000000000000000082e-05,1.100000000000000039e-04,6.000000000000000000e+00,2.300000000000000000e+01
5.344800000000000000e+04,1.000000000000000048e-04,0.000000000000000000e+00,-1.000000000000000048e-04,-3.399999999999999702e-04,-1.080000000000000014e-03,-8.099999999999999561e-04,-1.000000000000000082e-05,1.100000000000000039e-04,6.000000000000000000e+00,2.300000000000000000e+01
5.344900000000000000e+04,1.000000000000000048e-04,0.000000000000000000e+00,-1.000000000000000048e-04,-3.399999999999999702e-04,-1.080000000000000014e-03,-8.099999999999999561e-04,-1.000000000000000082e-05,1.100000000000000039e-04,6.000000000000000000e+00,2.300000000000000000e+01
5.345000000000000000e+04,1.000000000000000048e-04,0.000000000000000000e+00,-1.000000000000000048e-04,-3.399999999999999702e-04,-1.080000000000000014e-03,-8.099999999999999561e-04,-1.000000000000000082e-05,1.100000000000000039e-04,6.000000000000000000e+00,2.300000000000000000e+01
5.345100000000000000e+04,1.000000000000000048e-04,0.000000000000000000e+00,-1.000000000000000048e-04,-3.399999999999999702e-04,-1.080000000000000014e-03,-8.099999999999999561e-04,-1.000000000000000082e-05,1.100000000000000039e-04,6.000000000000000000e+00,2.300000000000000000e+01
5.345200000000000000e+04,3.399999999999999702e-04,1.100000000000000039e-04,9.000000000000000567e-05,1.899999999999999834e-04,1.000000000000000048e-04,5.299999999999999807e-04,2.100000000000000087e-04,1.899999999999999834e-04,6.000000000000000000e+00,2.300000000000000000e+01
5.345300000000000000e+04,-6.199999999999999999e-04,-4.000000000000000327e-05,0.000000000000000000e+00,8.000000000000000654e-05,-4.000000000000000192e-04,-1.100000000000000039e-04,-9.000000000000000567e-05,-3.399999999999999702e-04,6.000000000000000000e+00,2.300000000000000000e+01
5.345400000000000000e+04,-6.199999999999999999e-04,-4.000000000000000327e-05,0.000000000000000000e+00,8.000000000000000654e-05,-4.000000000000000192e-04,-1.100000000000000039e-04,-9.000000000000000567e-05,-3.399999999999999702e-04,6.000000000000000000e+00,2.300000000000000000e+01
5.345500000000000000e+04,-6.199999999999999999e-04,-4.000000000000000327e-05,0.000000000000000000e+00,8.000000000000000654e-05,-4.000000000000000192e-04,-1.100000000000000039e-04,-9.000000000000000567e-05,-3.399999999999999702e-04,6.000000000000000000e+00,2.300000000000000000e+01
5.345600000000000000e+04,-6.199999999999999999e-04,-4.000000000000000327e-05,0.000000000000000000e+00,8.000000000000000654e-05,-4.000000000000000192e-04,-1.100000000000000039e-04,-9.000000000000000567e-05,-3.399999999999999702e-04,6.000000000000000000e+00,2.300000000000000000e+01
5.345700000000000000e+04,-6.199999999999999999e-04,-4.000000000000000327e-05,0.000000000000000000e+00,8.000000000000000654e-05,-4.000000000000000192e-04,-1.100000000000000039e-04,-9.000000000000000567e-05,-3.399999999999999702e-04,6.000000000000000000e+00,2.300000000000000000e+01
5.345800000000000000e+04,-6.199999999999999999e-04,-4.000000000000000327e-05,0.000000000000000000e+00,8.000000000000000654e-05,-4.000000000000000192e-04,-1.100000000000000039e-04,-9.000000000000000567e-05,-3.399999999999999702e-04,6.000000000000000000e+00,2.300000000000000000e+01
5.345900000000000000e+04,-6.199999999999999999e-04,-4.000000000000000327e-05,0.000000000000000000e+00,8.000000000000000654e-05,-4.000000000000000192e-04,-1.100000000000000039e-04,-9.000000000000000567e-05,-3.399999999999999702e-04,6.000000000000000000e+00,2.300000000000000000e+01
5.346000000000000000e+04,-6.199999999999999999e-04,-4.000000000000000327e-05,0.000000000000000000e+00,8.000000000000000654e-05,-4.000000000000000192e-04,-1.100000000000000039e-04,-9.000000000000000567e-05,-3.399999999999999702e-04,6.000000000000000000e+00,2.300000000000000000e+01
5.346100000000000000e+04,-6.199999999999999999e-04,-4.000000000000000327e-05,0.000000000000000000e+00,8.000000000000000654e-05,-4.000000000000000192e-04,-1.100000000000000039e-04,-9.000000000000000567e-05,-3.399999999999999702e-04,6.000000000000000000e+00,2.300000000000000000e+01
5.346200000000000000e+04,-6.199999999999999999e-04,-4.000000000000000327e-05,0.000000000000000000e+00,8.000000000000000654e-05,-4.000000000000000192e-04,-1.100000000000000039e-04,-9.000000000000000567e-05,-3.399999999999999702e-04,6.000000000000000000e+00,2.300000000000000000e+01
5.346400000000000000e+04,-6.199999999999999999e-04,-4.000000000000000327e-05,0.000000000000000000e+00,8.000000000000000654e-05,-4.000000000000000192e-04,-1.100000000000000039e-04,-9.000000000000000567e-05,-3.399999999999999702e-04,6.000000000000000000e+00,2.300000000000000000e+01
5.346500000000000000e+04,-6.199999999999999999e-04,-4.000000000000000327e-05,0.000000000000000000e+00,8.000000000000000654e-05,-4.000000000000000192e-04,-1.100000000000000039e-04,-9.000000000000000567e-05,-3.399999999999999702e-04,6.000000000000000000e+00,2.300000000000000000e+01
5.346600000000000000e+04,-6.199999999999999999e-04,-4.000000000000000327e-05,0.000000000000000000e+00,8.000000000000000654e-05,-4.000000000000000192e-04,-1.100000000000000039e-04,-9.000000000000000567e-05,-3.399999999999999702e-04,6.000000000000000000e+00,2.300000000000000000e+01
5.346700000000000000e+04,-6.199999999999999999e-04,-4.000000000000000327e-05,0.000000000000000000e+00,8.000000000000000654e-05,-4.000000000000000192e-04,-1.100000000000000039e-04,-9.000000000000000567e-05,-3.399999999999999702e-04,6.000000000000000000e+00,2.300000000000000000e+01
5.346800000000000000e+04,-6.199999999999999999e-04,-4.000000000000000327e-05,0.000000000000000000e+00,8.000000000000000654e-05,-4.000000000000000192e-04,-1.100000000000000039e-04,-9.000000000000000567e-05,-3.399999999999999702e-04,6.000000000000000000e+00,2.300000000000000000e+01
5.346900000000000000e+04,-6.199999999999999999e-04,-4.000000000000000327e-05,0.000000000000000000e+00,8.000000000000000654e-05,-4.000000000000000192e-04,-1.100000000000000039e-04,-9.000000000000000567e-05,-3.399999999999999702e-04,6.000000000000000000e+00,2.300000000000000000e+01
5.347000000000000000e+04,-6.199999999999999999e-04,-4.000000000000000327e-05,0.000000000000000000e+00,8.000000000000000654e-05,-4.000000000000000192e-04,-1.100000000000000039e-04,-9.000000000000000567e-05,-3.399999999999999702e-04,6.000000000000000000e+00,2.300000000000000000e+01
5.347100000000000000e+04,-6.199999999999999999e-04,-4.000000000000000327e-05,0.000000000000000000e+00,8.000000000000000654e-05,-4.000000000000000192e-04,-1.100000000000000039e-04,-9.000000000000000567e-05,-3.399999999999999702e-04,6.000000000000000000e+00,2.300000000000000000e+01
5.347200000000000000e+04,-6.199999999999999999e-04,-4.000000000000000327e-05,0.000000000000000000e+00,8.000000000000000654e-05,-4.000000000000000192e-04,-1.100000000000000039e-04,-9.000000000000000567e-05,-3.399999999999999702e-04,6.000000000000000000e+00,2.300000000000000000e+01
5.347300000000000000e+04,-6.199999999999999999e-04,-4.000000000000000327e-05,0.000000000000000000e+00,8.000000000000000654e-05,-4.000000000000000192e-04,-1.100000000000000039e-04,-9.000000000000000567e-05,-3.399999999999999702e-04,6.000000000000000000e+00,2.300000000000000000e+01
5.347400000000000000e+04,-6.199999999999999999e-04,-4.000000000000000327e-05,0.000000000000000000e+00,8.000000000000000654e-05,-4.000000000000000192e-04,-1.100000000000000039e-04,-9.000000000000000567e-05,-3.399999999999999702e-04,6.000000000000000000e+00,2.300000000000000000e+01
5.347500000000000000e+04,-2.399999999999999790e-04,-4.000000000000000327e-05,1.000000000000000082e-05,1.800000000000000113e-04,5.999999999999999474e-04,-3.200000000000000262e-04,-1.600000000000000131e-04,-1.499999999999999869e-04,6.000000000000000000e+00,2.300000000000000000e+01
5.347600000000000000e+04,-2.399999999999999790e-04,-4.000000000000000327e-05,1.000000000000000082e-05,1.800000000000000113e-04,5.999999999999999474e-04,-3.200000000000000262e-04,-1.600000000000000131e-04,-1.499999999999999869e-04,6.000000000000000000e+00,2.300000000000000000e+01
5.347700000000000000e+04,-2.399999999999999790e-04,-4.000000000000000327e-05,1.000000000000000082e-05,1.800000000000000113e-04,5.999999999999999474e-04,-3.200000000000000262e-04,-1.600000000000000131e-04,-1.499999999999999869e-04,6.000000000000000000e+00,2.300000000000000000e+01
5.347800000000000000e+04,-2.399999999999999790e-04,-4.000000000000000327e-05,1.000000000000000082e-05,1.800000000000000113e-04,5.999999999999999474e-04,-3.200000000000000262e-04,-1.600000000000000131e-04,-1.499999999999999869e-04,6.000000000000000000e+00,2.300000000000000000e+01
5.347900000000000000e+04,-2.399999999999999790e-04,-4.000000000000000327e-05,1.000000000000000082e-05,1.800000000000000113e-04,5.999999999999999474e-04,-3.200000000000000262e-04,-1.600000000000000131e-04,-1.499999999999999869e-04,6.000000000000000000e+00,2.300000000000000000e+01
5.348000000000000000e+04,-2.399999999999999790e-04,-4.000000000000000327e-05,1.000000000000000082e-05,1.800000000000000113e-04,5.999999999999999474e-04,-3.200000000000000262e-04,-1.600000000000000131e-04,-1.499999999999999869e-04,6.000000000000000000e+00,2.300000000000000000e+01
5.348100000000000000e+04,-2.399999999999999790e-04,-4.000000000000000327e-05,1.000000000000000082e-05,1.800000000000000113e-04,5.999999999999999474e-04,-3.200000000000000262e-04,-1.600000000000000131e-04,-1.499999999999999869e-04,6.000000000000000000e+00,2.300000000000000000e+01
5.348200000000000000e+04,-2.399999999999999790e-04,-4.000000000000000327e-05,1.000000000000000082e-05,1.800000000000000113e-04,5.999999999999999474e-04,-3.200000000000000262e-04,-1.600000000000000131e-04,-1.499999999999999869e-04,6.000000000000000000e+00,2.300000000000000000e+01
5.348300000000000000e+04,-2.399999999999999790e-04,-4.000000000000000327e-05,1.000000000000000082e-05,1.800000000000000113e-04,5.999999999999999474e-04,-3.200000000000000262e-04,-1.600000000000000131e-04,-1.499999999999999869e-04,6.000000000000000000e+00,2.300000000000000000e+01
5.348400000000000000e+04,-2.399999999999999790e-04,-4.000000000000000327e-05,1.000000000000000082e-05,1.800000000000000113e-04,5.999999999999999474e-04,-3.200000000000000262e-04,-1.600000000000000131e-04,-1.499999999999999869e-04,6.000000000000000000e+00,2.300000000000000000e+01
5.348500000000000000e+04,-2.399999999999999790e-04,-4.000000000000000327e-05,1.000000000000000082e-05,1.800000000000000113e-04,5.999999999999999474e-04,-3.200000000000000262e-04,-1.600000000000000131e-04,-1.499999999999999869e-04,6.000000000000000000e+00,2.300000000000000000e+01
5.348600000000000000e+04,-2.399999999999999790e-04,-4.000000000000000327e-05,1.000000000000000082e-05,1.800000000000000113e-04,5.999999999999999474e-04,-3.200000000000000262e-04,-1.600000000000000131e-04,-1.499999999999999869e-04,6.000000000000000000e+00,2.300000000000000000e+01
5.348700000000000000e+04,-2.399999999999999790e-04,-4.000000000000000327e-05,1.000000000000000082e-05,1.800000000000000113e-04,5.999999999999999474e-04,-3.200000000000000262e-04,-1.600000000000000131e-04,-1.499999999999999869e-04,6.000000000000000000e+00,2.300000000000000000e+01
5.348800000000000000e+04,-2.399999999999999790e-04,-4.000000000000000327e-05,1.000000000000000082e-05,1.800000000000000113e-04,5.999999999999999474e-04,-3.200000000000000262e-04,-1.600000000000000131e-04,-1.499999999999999869e-04,6.000000000000000000e+00,2.300000000000000000e+01
5.348900000000000000e+04,-2.399999999999999790e-04,-4.000000000000000327e-05,1.000000000000000082e-05,1.800000000000000113e-04,5.999999999999999474e-04,-3.200000000000000262e-04,-1.600000000000000131e-04,-1.499999999999999869e-04,6.000000000000000000e+00,2.300000000000000000e+01
5.349000000000000000e+04,-2.399999999999999790e-04,-4.000000000000000327e-05,1.000000000000000082e-05,1.800000000000000113e-04,5.999999999999999474e-04,-3.200000000000000262e-04,-1.600000000000000131e-04,-1.499999999999999869e-04,6.000000000000000000e+00,2.300000000000000000e+01
5.349100000000000000e+04,-2.399999999999999790e-04,-4.000000000000000327e-05,1.000000000000000082e-05,1.800000000000000113e-04,5.999999999999999474e-04,-3.200000000000000262e-04,-1.600000000000000131e-04,-1.499999999999999869e-04,6.000000000000000000e+00,2.300000000000000000e+01
5.349200000000000000e+04,-2.399999999999999790e-04,-4.000000000000000327e-05,1.000000000000000082e-05,1.800000000000000113e-04,5.999999999999999474e-04,-3.200000000000000262e-04,-1.600000000000000131e-04,-1.499999999999999869e-04,6.000000000000000000e+00,2.300000000000000000e+01
5.349300000000000000e+04,-2.399999999999999790e-04,-4.000000000000000327e-05,1.000000000000000082e-05,1.800000000000000113e-04,5.999999999999999474e-04,-3.200000000000000262e-04,-1.600000000000000131e-04,-1.499999999999999869e-04,6.000000000000000000e+00,2.300000000000000000e+01
5.349400000000000000e+04,-2.399999999999999790e-04,-4.000000000000000327e-05,1.000000000000000082e-05,1.800000000000000113e-04,5.999999999999999474e-04,-3.200000000000000262e-04,-1.600000000000000131e-04,-1.499999999999999869e-04,6.000000000000000000e+00,2.300000000000000000e+01
5.349500000000000000e+04,-2.399999999999999790e-04,-4.000000000000000327e-05,1.000000000000000082e-05,1.800000000000000113e-04,5.999999999999999474e-04,-3.200000000000000262e-04,-1.600000000000000131e-04,-1.499999999999999869e-04,6.000000000000000000e+00,2.300000000000000000e+01
5.349600000000000000e+04,-2.399999999999999790e-04,-4.000000000000000327e-05,1.000000000000000082e-05,1.800000000000000113e-04,5.999999999999999474e-04,-3.200000000000000262e-04,-1.600000000000000131e-04,-1.499999999999999869e-04,6.000000000000000000e+00,2.300000000000000000e+01
5.349700000000000000e+04,-2.000000000000000096e-04,-6.999999999999999387e-05,-5.999999999999999474e-05,-1.699999999999999851e-04,-4.799999999999999580e-04,-7.200000000000000453e-04,-2.999999999999999737e-05,-3.699999999999999947e-04,6.000000000000000000e+00,2.300000000000000000e+01
5.349800000000000000e+04,4.000000000000000192e-04,1.000000000000000048e-04,1.800000000000000113e-04,5.699999999999999772e-04,7.399999999999999894e-04,9.899999999999999946e-04,5.400000000000000069e-04,-4.000000000000000327e-05,6.000000000000000000e+00,2.300000000000000000e+01
5.349900000000000000e+04,4.000000000000000192e-04,1.000000000000000048e-04,1.800000000000000113e-04,5.699999999999999772e-04,7.399999999999999894e-04,9.899999999999999946e-04,5.400000000000000069e-04,-4.000000000000000327e-05,6.000000000000000000e+00,2.300000000000000000e+01
5.350000000000000000e+04,4.000000000000000192e-04,1.000000000000000048e-04,1.800000000000000113e-04,5.699999999999999772e-04,7.399999999999999894e-04,9.899999999999999946e-04,5.400000000000000069e-04,-4.000000000000000327e-05,6.000000000000000000e+00,2.300000000000000000e+01
5.350100000000000000e+04,4.000000000000000192e-04,1.000000000000000048e-04,1.800000000000000113e-04,5.699999999999999772e-04,7.399999999999999894e-04,9.899999999999999946e-04,5.400000000000000069e-04,-4.000000000000000327e-05,6.000000000000000000e+00,2.300000000000000000e+01
5.350200000000000000e+04,4.000000000000000192e-04,1.000000000000000048e-04,1.800000000000000113e-04,5.699999999999999772e-04,7.399999999999999894e-04,9.899999999999999946e-04,5.400000000000000069e-04,-4.000000000000000327e-05,6.000000000000000000e+00,2.300000000000000000e+01
5.350300000000000000e+04,4.000000000000000192e-04,1.000000000000000048e-04,1.800000000000000113e-04,5.699999999999999772e-04,7.399999999999999894e-04,9.899999999999999946e-04,5.400000000000000069e-04,-4.000000000000000327e-05,6.000000000000000000e+00,2.300000000000000000e+01
5.350400000000000000e+04,4.000000000000000192e-04,1.000000000000000048e-04,1.800000000000000113e-04,5.699999999999999772e-04,7.399999999999999894e-04,9.899999999999999946e-04,5.400000000000000069e-04,-4.000000000000000327e-05,6.000000000000000000e+00,2.300000000000000000e+01
5.350500000000000000e+04,4.000000000000000192e-04,1.000000000000000048e-04,1.800000000000000113e-04,5.699999999999999772e-04,7.399999999999999894e-04,9.899999999999999946e-04,5.400000000000000069e-04,-4.000000000000000327e-05,6.000000000000000000e+00,2.300000000000000000e+01
5.350600000000000000e+04,4.000000000000000192e-04,1.000000000000000048e-04,1.800000000000000113e-04,5.699999999999999772e-04,7.399999999999999894e-04,9.899999999999999946e-04,5.400000000000000069e-04,-4.000000000000000327e-05,6.000000000000000000e+00,2.300000000000000000e+01
5.350700000000000000e+04,4.000000000000000192e-04,1.000000000000000048e-04,1.800000000000000113e-04,5.699999999999999772e-04,7.399999999999999894e-04,9.899999999999999946e-04,5.400000000000000069e-04,-4.000000000000000327e-05,6.000000000000000000e+00,2.300000000000000000e+01
5.350800000000000000e+04,4.000000000000000192e-04,1.000000000000000048e-04,1.800000000000000113e-04,5.699999999999999772e-04,7.399999999999999894e-04,9.899999999999999946e-04,5.400000000000000069e-04,-4.000000000000000327e-05,6.000000000000000000e+00,2.300000000000000000e+01
5.350900000000000000e+04,4.000000000000000192e-04,1.000000000000000048e-04,1.800000000000000113e-04,5.699999999999999772e-04,7.399999999999999894e-04,9.899999999999999946e-04,5.400000000000000069e-04,-4.000000000000000327e-05,6.000000000000000000e+00,2.300000000000000000e+01
5.351100000000000000e+04,4.000000000000000192e-04,1.000000000000000048e-04,1.800000000000000113e-04,5.699999999999999772e-04,7.399999999999999894e-04,9.899999999999999946e-04,5.400000000000000069e-04,-4.000000000000000327e-05,6.000000000000000000e+00,2.300000000000000000e+01
5.351200000000000000e+04,4.000000000000000192e-04,1.000000000000000048e-04,1.800000000000000113e-04,5.699999999999999772e-04,7.399999999999999894e-04,9.899999999999999946e-04,5.400000000000000069e-04,-4.000000000000000327e-05,6.000000000000000000e+00,2.300000000000000000e+01
5.351300000000000000e+04,-2.100000000000000087e-04,0.000000000000000000e+00,9.000000000000000567e-05,2.200000000000000078e-04,5.200000000000000629e-04,-7.700000000000000681e-04,-9.000000000000000567e-05,5.999999999999999474e-05,6.000000000000000000e+00,2.300000000000000000e+01
5.351400000000000000e+04,-2.100000000000000087e-04,0.000000000000000000e+00,9.000000000000000567e-05,2.200000000000000078e-04,5.200000000000000629e-04,-7.700000000000000681e-04,-9.000000000000000567e-05,5.999999999999999474e-05,6.000000000000000000e+00,2.300000000000000000e+01
5.351500000000000000e+04,-2.100000000000000087e-04,0.000000000000000000e+00,9.000000000000000567e-05,2.200000000000000078e-04,5.200000000000000629e-04,-7.700000000000000681e-04,-9.000000000000000567e-05,5.999999999999999474e-05,6.000000000000000000e+00,2.300000000000000000e+01
5.351600000000000000e+04,-2.100000000000000087e-04,0.000000000000000000e+00,9.000000000000000567e-05,2.200000000000000078e-04,5.200000000000000629e-04,-7.700000000000000681e-04,-9.000000000000000567e-05,5.999999999999999474e-05,6.000000000000000000e+00,2.300000000000000000e+01
5.351700000000000000e+04,-2.100000000000000087e-04,0.000000000000000000e+00,9.000000000000000567e-05,2.200000000000000078e-04,5.200000000000000629e-04,-7.700000000000000681e-04,-9.000000000000000567e-05,5.999999999999999474e-05,6.000000000000000000e+00,2.300000000000000000e+01
5.351800000000000000e+04,-2.100000000000000087e-04,0.000000000000000000e+00,9.000000000000000567e-05,2.200000000000000078e-04,5.200000000000000629e-04,-7.700000000000000681e-04,-9.000000000000000567e-05,5.999999999999999474e-05,6.000000000000000000e+00,2.300000000000000000e+01
5.351900000000000000e+04,-2.100000000000000087e-04,0.000000000000000000e+00,9.000000000000000567e-05,2.200000000000000078e-04,5.200000000000000629e-04,-7.700000000000000681e-04,-9.000000000000000567e-05,5.999999999999999474e-05,6.000000000000000000e+00,2.300000000000000000e+01
5.352000000000000000e+04,-2.100000000000000087e-04,0.000000000000000000e+00,9.000000000000000567e-05,2.200000000000000078e-04,5.200000000000000629e-04,-7.700000000000000681e-04,-9.000000000000000567e-05,5.999999999999999474e-05,6.000000000000000000e+00,2.300000000000000000e+01
5.352100000000000000e+04,-2.100000000000000087e-04,0.000000000000000000e+00,9.000000000000000567e-05,2.200000000000000078e-04,5.200000000000000629e-04,-7.700000000000000681e-04,-9.000000000000000567e-05,5.999999999999999474e-05,6.000000000000000000e+00,2.300000000000000000e+01
5.352200000000000000e+04,-2.100000000000000087e-04,0.000000000000000000e+00,9.000000000000000567e-05,2.200000000000000078e-04,5.200000000000000629e-04,-7.700000000000000681e-04,-9.000000000000000567e-05,5.999999999999999474e-05,6.000000000000000000e+00,2.300000000000000000e+01
5.352300000000000000e+04,-2.100000000000000087e-04,0.000000000000000000e+00,9.000000000000000567e-05,2.200000000000000078e-04,5.200000000000000629e-04,-7.700000000000000681e-04,-9.000000000000000567e-05,5.999999999999999474e-05,6.000000000000000000e+00,2.300000000000000000e+01
5.352400000000000000e+04,-2.100000000000000087e-04,0.000000000000000000e+00,9.000000000000000567e-05,2.200000000000000078e-04,5.200000000000000629e-04,-7.700000000000000681e-04,-9.000000000000000567e-05,5.999999999999999474e-05,6.000000000000000000e+00,2.300000000000000000e+01
5.352500000000000000e+04,-2.100000000000000087e-04,0.000000000000000000e+00,9.000000000000000567e-05,2.200000000000000078e-04,5.200000000000000629e-04,-7.700000000000000681e-04,-9.000000000000000567e-05,5.999999999999999474e-05,6.000000000000000000e+00,2.300000000000000000e+01
5.352600000000000000e+04,-2.100000000000000087e-04,0.000000000000000000e+00,9.000000000000000567e-05,2.200000000000000078e-04,5.200000000000000629e-04,-7.700000000000000681e-04,-9.000000000000000567e-05,5.999999999999999474e-05,6.000000000000000000e+00,2.300000000000000000e+01
5.352700000000000000e+04,-2.100000000000000087e-04,0.000000000000000000e+00,9.000000000000000567e-05,2.200000000000000078e-04,5.200000000000000629e-04,-7.700000000000000681e-04,-9.000000000000000567e-05,5.999999999999999474e-05,6.000000000000000000e+00,2.300000000000000000e+01
5.352800000000000000e+04,-2.100000000000000087e-04,0.000000000000000000e+00,9.000000000000000567e-05,2.200000000000000078e-04,5.200000000000000629e-04,-7.700000000000000681e-04,-9.000000000000000567e-05,5.999999999999999474e-05,6.000000000000000000e+00,2.300000000000000000e+01
5.352900000000000000e+04,-2.100000000000000087e-04,0.000000000000000000e+00,9.000000000000000567e-05,2.200000000000000078e-04,5.200000000000000629e-04,-7.700000000000000681e-04,-9.000000000000000567e-05,5.999999999999999474e-05,6.000000000000000000e+00,2.300000000000000000e+01
5.353000000000000000e+04,-2.100000000000000087e-04,0.000000000000000000e+00,9.000000000000000567e-05,2.200000000000000078e-04,5.200000000000000629e-04,-7.700000000000000681e-04,-9.000000000000000567e-05,5.999999999999999474e-05,6.000000000000000000e+00,2.300000000000000000e+01
5.353100000000000000e+04,-2.100000000000000087e-04,0.000000000000000000e+00,9.000000000000000567e-05,2.200000000000000078e-04,5.200000000000000629e-04,-7.700000000000000681e-04,-9.000000000000000567e-05,5.999999999999999474e-05,6.000000000000000000e+00,2.300000000000000000e+01
5.353200000000000000e+04,-2.100000000000000087e-04,0.000000000000000000e+00,9.000000000000000567e-05,2.200000000000000078e-04,5.200000000000000629e-04,-7.700000000000000681e-04,-9.000000000000000567e-05,5.999999999999999474e-05,6.000000000000000000e+00,2.300000000000000000e+01
5.353300000000000000e+04,-2.100000000000000087e-04,0.000000000000000000e+00,9.000000000000000567e-05,2.200000000000000078e-04,5.200000000000000629e-04,-7.700000000000000681e-04,-9.000000000000000567e-05,5.999999999999999474e-05,6.000000000000000000e+00,2.300000000000000000e+01
5.353400000000000000e+04,3.600000000000000227e-04,2.000000000000000164e-05,-5.000000000000000240e-05,-1.199999999999999895e-04,-1.000000000000000048e-04,-3.399999999999999702e-04,5.000000000000000240e-05,4.799999999999999580e-04,6.000000000000000000e+00,2.300000000000000000e+01
5.353500000000000000e+04,3.600000000000000227e-04,2.999999999999999737e-05,-2.999999999999999737e-05,-3.399999999999999702e-04,-2.000000000000000096e-04,-3.299999999999999982e-04,-2.200000000000000078e-04,-4.200000000000000174e-04,6.000000000000000000e+00,2.300000000000000000e+01
5.353600000000000000e+04,3.600000000000000227e-04,2.999999999999999737e-05,-2.999999999999999737e-05,-3.399999999999999702e-04,-2.000000000000000096e-04,-3.299999999999999982e-04,-2.200000000000000078e-04,-4.200000000000000174e-04,6.000000000000000000e+00,2.300000000000000000e+01
5.353700000000000000e+04,3.600000000000000227e-04,2.999999999999999737e-05,-2.999999999999999737e-05,-3.399999999999999702e-04,-2.000000000000000096e-04,-3.299999999999999982e-04,-2.200000000000000078e-04,-4.200000000000000174e-04,6.000000000000000000e+00,2.300000000000000000e+01
5.353900000000000000e+04,3.600000000000000227e-04,2.999999999999999737e-05,-2.999999999999999737e-05,-3.399999999999999702e-04,-2.000000000000000096e-04,-3.299999999999999982e-04,-2.200000000000000078e-04,-4.200000000000000174e-04,6.000000000000000000e+00,2.300000000000000000e+01
5.354000000000000000e+04,3.600000000000000227e-04,2.999999999999999737e-05,-2.999999999999999737e-05,-3.399999999999999702e-04,-2.000000000000000096e-04,-3.299999999999999982e-04,-2.200000000000000078e-04,-4.200000000000000174e-04,6.000000000000000000e+00,2.300000000000000000e+01
5.354100000000000000e+04,3.600000000000000227e-04,2.999999999999999737e-05,-2.999999999999999737e-05,-3.399999999999999702e-04,-2.000000000000000096e-04,-3.299999999999999982e-04,-2.200000000000000078e-04,-4.200000000000000174e-04,6.000000000000000000e+00,2.300000000000000000e+01
5.354200000000000000e+04,3.600000000000000227e-04,2.999999999999999737e-05,-2.999999999999999737e-05,-3.399999999999999702e-04,-2.000000000000000096e-04,-3.299999999999999982e-04,-2.200000000000000078e-04,-4.200000000000000174e-04,6.000000000000000000e+00,2.300000000000000000e+01
5.354300000000000000e+04,3.600000000000000227e-04,2.999999999999999737e-05,-2.999999999999999737e-05,-3.399999999999999702e-04,-2.000000000000000096e-04,-3.299999999999999982e-04,-2.200000000000000078e-04,-4.200000000000000174e-04,6.000000000000000000e+00,2.300000000000000000e+01
5.354400000000000000e+04,3.600000000000000227e-04,2.999999999999999737e-05,-2.999999999999999737e-05,-3.399999999999999702e-04,-2.000000000000000096e-04,-3.299999999999999982e-04,-2.200000000000000078e-04,-4.200000000000000174e-04,6.000000000000000000e+00,2.300000000000000000e+01
5.354500000000000000e+04,3.600000000000000227e-04,2.999999999999999737e-05,-2.999999999999999737e-05,-3.399999999999999702e-04,-2.000000000000000096e-04,-3.299999999999999982e-04,-2.200000000000000078e-04,-4.200000000000000174e-04,6.000000000000000000e+00,2.300000000000000000e+01
5.354600000000000000e+04,3.600000000000000227e-04,2.999999999999999737e-05,-2.999999999999999737e-05,-3.399999999999999702e-04,-2.000000000000000096e-04,-3.299999999999999982e-04,-2.200000000000000078e-04,-4.200000000000000174e-04,6.000000000000000000e+00,2.300000000000000000e+01
5.354700000000000000e+04,3.600000000000000227e-04,2.999999999999999737e-05,-2.999999999999999737e-05,-3.399999999999999702e-04,-2.000000000000000096e-04,-3.299999999999999982e-04,-2.200000000000000078e-04,-4.200000000000000174e-04,6.000000000000000000e+00,2.300000000000000000e+01
5.354800000000000000e+04,3.600000000000000227e-04,2.999999999999999737e-05,-2.999999999999999737e-05,-3.399999999999999702e-04,-2.000000000000000096e-04,-3.299999999999999982e-04,-2.200000000000000078e-04,-4.200000000000000174e-04,6.000000000000000000e+00,2.300000000000000000e+01
5.354900000000000000e+04,3.600000000000000227e-04,2.999999999999999737e-05,-2.999999999999999737e-05,-3.399999999999999702e-04,-2.000000000000000096e-04,-3.299999999999999982e-04,-2.200000000000000078e-04,-4.200000000000000174e-04,6.000000000000000000e+00,2.300000000000000000e+01
5.355000000000000000e+04,3.600000000000000227e-04,2.999999999999999737e-05,-2.999999999999999737e-05,-3.399999999999999702e-04,-2.000000000000000096e-04,-3.299999999999999982e-04,-2.200000000000000078e-04,-4.200000000000000174e-04,6.000000000000000000e+00,2.300000000000000000e+01
5.355100000000000000e+04,3.600000000000000227e-04,2.999999999999999737e-05,-2.999999999999999737e-05,-3.399999999999999702e-04,-2.000000000000000096e-04,-3.299999999999999982e-04,-2.200000000000000078e-04,-4.200000000000000174e-04,6.000000000000000000e+00,2.300000000000000000e+01
5.355200000000000000e+04,3.600000000000000227e-04,2.999999999999999737e-05,-2.999999999999999737e-05,-3.399999999999999702e-04,-2.000000000000000096e-04,-3.299999999999999982e-04,-2.200000000000000078e-04,-4.200000000000000174e-04,6.000000000000000000e+00,2.300000000000000000e+01
5.355300000000000000e+04,3.600000000000000227e-04,2.999999999999999737e-05,-2.999999999999999737e-05,-3.399999999999999702e-04,-2.000000000000000096e-04,-3.299999999999999982e-04,-2.200000000000000078e-04,-4.200000000000000174e-04,6.000000000000000000e+00,2.300000000000000000e+01
5.355400000000000000e+04,3.600000000000000227e-04,2.999999999999999737e-05,-2.999999999999999737e-05,-3.399999999999999702e-04,-2.000000000000000096e-04,-3.299999999999999982e-04,-2.200000000000000078e-04,-4.200000000000000174e-04,6.000000000000000000e+00,2.300000000000000000e+01
5.355500000000000000e+04,3.600000000000000227e-04,2.999999999999999737e-05,-2.999999999999999737e-05,-3.399999999999999702e-04,-2.000000000000000096e-04,-3.299999999999999982e-04,-2.200000000000000078e-04,-4.200000000000000174e-04,6.000000000000000000e+00,2.300000000000000000e+01
5.355600000000000000e+04,3.600000000000000227e-04,2.999999999999999737e-05,-2.999999999999999737e-05,-3.399999999999999702e-04,-2.000000000000000096e-04,-3.299999999999999982e-04,-2.200000000000000078e-04,-4.200000000000000174e-04,6.000000000000000000e+00,2.300000000000000000e+01
5.355800000000000000e+04,0.000000000000000000e+00,-2.000000000000000164e-05,-5.999999999999999474e-05,-5.000000000000000240e-05,-2.100000000000000087e-04,-2.000000000000000164e-05,1.199999999999999895e-04,2.999999999999999737e-05,6.000000000000000000e+00,2.300000000000000000e+01
5.355900000000000000e+04,0.000000000000000000e+00,-2.000000000000000164e-05,-5.999999999999999474e-05,-5.000000000000000240e-05,-2.100000000000000087e-04,-2.000000000000000164e-05,1.199999999999999895e-04,2.999999999999999737e-05,6.000000000000000000e+00,2.300000000000000000e+01
5.356000000000000000e+04,0.000000000000000000e+00,-2.000000000000000164e-05,-5.999999999999999474e-05,-5.000000000000000240e-05,-2.100000000000000087e-04,-2.000000000000000164e-05,1.199999999999999895e-04,2.999999999999999737e-05,6.000000000000000000e+00,2.300000000000000000e+01
5.356100000000000000e+04,0.000000000000000000e+00,-2.000000000000000164e-05,-5.999999999999999474e-05,-5.000000000000000240e-05,-2.100000000000000087e-04,-2.000000000000000164e-05,1.199999999999999895e-04,2.999999999999999737e-05,6.000000000000000000e+00,2.300000000000000000e+01
5.356200000000000000e+04,0.000000000000000000e+00,-2.000000000000000164e-05,-5.999999999999999474e-05,-5.000000000000000240e-05,-2.100000000000000087e-04,-2.000000000000000164e-05,1.199999999999999895e-04,2.999999999999999737e-05,6.000000000000000000e+00,2.300000000000000000e+01
5.356300000000000000e+04,0.000000000000000000e+00,-2.000000000000000164e-05,-5.999999999999999474e-05,-5.000000000000000240e-05,-2.100000000000000087e-04,-2.000000000000000164e-05,1.199999999999999895e-04,2.999999999999999737e-05,6.000000000000000000e+00,2.300000000000000000e+01
5.356400000000000000e+04,0.000000000000000000e+00,-2.000000000000000164e-05,-5.999999999999999474e-05,-5.000000000000000240e-05,-2.100000000000000087e-04,-2.000000000000000164e-05,1.199999999999999895e-04,2.999999999999999737e-05,6.000000000000000000e+00,2.300000000000000000e+01
5.356500000000000000e+04,0.000000000000000000e+00,-2.000000000000000164e-05,-5.999999999999999474e-05,-5.000000000000000240e-05,-2.100000000000000087e-04,-2.000000000000000164e-05,1.199999999999999895e-04,2.999999999999999737e-05,6.000000000000000000e+00,2.300000000000000000e+01
5.356600000000000000e+04,0.000000000000000000e+00,-2.000000000000000164e-05,-5.999999999999999474e-05,-5.000000000000000240e-05,-2.100000000000000087e-04,-2.000000000000000164e-05,1.199999999999999895e-04,2.999999999999999737e-05,6.000000000000000000e+00,2.300000000000000000e+01
5.356700000000000000e+04,0.000000000000000000e+00,-2.000000000000000164e-05,-5.999999999999999474e-05,-5.000000000000000240e-05,-2.100000000000000087e-04,-2.000000000000000164e-05,1.199999999999999895e-04,2.999999999999999737e-05,6.000000000000000000e+00,2.300000000000000000e+01
5.356800000000000000e+04,0.000000000000000000e+00,-2.000000000000000164e-05,-5.999999999999999474e-05,-5.000000000000000240e-05,-2.100000000000000087e-04,-2.000000000000000164e-05,1.199999999999999895e-04,2.999999999999999737e-05,6.000000000000000000e+00,2.300000000000000000e+01
5.356900000000000000e+04,0.000000000000000000e+00,-2.000000000000000164e-05,-5.999999999999999474e-05,-5.000000000000000240e-05,-2.100000000000000087e-04,-2.000000000000000164e-05,1.199999999999999895e-04,2.999999999999999737e-05,6.000000000000000000e+00,2.300000000000000000e+01
5.357000000000000000e+04,0.000000000000000000e+00,-2.000000000000000164e-05,-5.999999999999999474e-05,-5.000000000000000240e-05,-2.100000000000000087e-04,-2.000000000000000164e-05,1.199999999999999895e-04,2.999999999999999737e-05,6.000000000000000000e+00,2.300000000000000000e+01
5.357100000000000000e+04,0.000000000000000000e+00,-2.000000000000000164e-05,-5.999999999999999474e-05,-5.000000000000000240e-05,-2.100000000000000087e-04,-2.000000000000000164e-05,1.199999999999999895e-04,2.999999999999999737e-05,6.000000000000000000e+00,2.300000000000000000e+01
5.357200000000000000e+04,-1.100000000000000039e-04,-1.000000000000000082e-05,-2.999999999999999737e-05,2.100000000000000087e-04,2.000000000000000096e-04,4.000000000000000327e-05,-1.899999999999999834e-04,0.000000000000000000e+00,6.000000000000000000e+00,2.300000000000000000e+01
5.357300000000000000e+04,0.000000000000000000e+00,-2.999999999999999737e-05,-1.000000000000000082e-05,-1.300000000000000157e-04,-4.299999999999999894e-04,0.000000000000000000e+00,-2.299999999999999799e-04,1.699999999999999851e-04,6.000000000000000000e+00,2.300000000000000000e+01
5.357400000000000000e+04,0.000000000000000000e+00,-2.999999999999999737e-05,-1.000000000000000082e-05,-1.300000000000000157e-04,-4.299999999999999894e-04,0.000000000000000000e+00,-2.299999999999999799e-04,1.699999999999999851e-04,6.000000000000000000e+00,2.300000000000000000e+01
5.357500000000000000e+04,0.000000000000000000e+00,-2.999999999999999737e-05,-1.000000000000000082e-05,-1.300000000000000157e-04,-4.299999999999999894e-04,0.000000000000000000e+00,-2.299999999999999799e-04,1.699999999999999851e-04,6.000000000000000000e+00,2.300000000000000000e+01
5.357600000000000000e+04,0.000000000000000000e+00,-2.999999999999999737e-05,-1.000000000000000082e-05,-1.300000000000000157e-04,-4.299999999999999894e-04,0.000000000000000000e+00,-2.299999999999999799e-04,1.699999999999999851e-04,6.000000000000000000e+00,2.300000000000000000e+01
5.357700000000000000e+04,0.000000000000000000e+00,-2.999999999999999737e-05,-1.000000000000000082e-05,-1.300000000000000157e-04,-4.299999999999999894e-04,0.000000000000000000e+00,-2.299999999999999799e-04,1.699999999999999851e-04,6.000000000000000000e+00,2.300000000000000000e+01
5.357800000000000000e+04,0.000000000000000000e+00,-2.999999999999999737e-05,-1.000000000000000082e-05,-1.300000000000000157e-04,-4.299999999999999894e-04,0.000000000000000000e+00,-2.299999999999999799e-04,1.699999999999999851e-04,6.000000000000000000e+00,2.300000000000000000e+01
5.357900000000000000e+04,0.000000000000000000e+00,-2.999999999999999737e-05,-1.000000000000000082e-05,-1.300000000000000157e-04,-4.299999999999999894e-04,0.000000000000000000e+00,-2.299999999999999799e-04,1.699999999999999851e-04,6.000000000000000000e+00,2.300000000000000000e+01
5.358000000000000000e+04,0.000000000000000000e+00,-2.999999999999999737e-05,-1.000000000000000082e-05,-1.300000000000000157e-04,-4.299999999999999894e-04,0.000000000000000000e+00,-2.299999999999999799e-04,1.699999999999999851e-04,6.000000000000000000e+00,2.300000000000000000e+01
5.358100000000000000e+04,0.000000000000000000e+00,-2.999999999999999737e-05,-1.000000000000000082e-05,-1.300000000000000157e-04,-4.299999999999999894e-04,0.000000000000000000e+00,-2.299999999999999799e-04,1.699999999999999851e-04,6.000000000000000000e+00,2.300000000000000000e+01
5.358200000000000000e+04,0.000000000000000000e+00,-2.999999999999999737e-05,-1.000000000000000082e-05,-1.300000000000000157e-04,-4.299999999999999894e-04,0.000000000000000000e+00,-2.299999999999999799e-04,1.699999999999999851e-04,6.000000000000000000e+00,2.300000000000000000e+01
5.358300000000000000e+04,0.000000000000000000e+00,-2.999999999999999737e-05,-1.000000000000000082e-05,-1.300000000000000157e-04,-4.299999999999999894e-04,0.000000000000000000e+00,-2.299999999999999799e-04,1.699999999999999851e-04,6.000000000000000000e+00,2.300000000000000000e+01
5.358400000000000000e+04,0.000000000000000000e+00,-2.999999999999999737e-05,-1.000000000000000082e-05,-1.300000000000000157e-04,-4.299999999999999894e-04,0.000000000000000000e+00,-2.299999999999999799e-04,1.699999999999999851e-04,6.000000000000000000e+00,2.300000000000000000e+01
5.358500000000000000e+04,0.000000000000000000e+00,-2.999999999999999737e-05,-1.000000000000000082e-05,-1.300000000000000157e-04,-4.299999999999999894e-04,0.000000000000000000e+00,-2.299999999999999799e-04,1.699999999999999851e-04,6.000000000000000000e+00,2.300000000000000000e+01
5.358600000000000000e+04,0.000000000000000000e+00,-2.999999999999999737e-05,-1.000000000000000082e-05,-1.300000000000000157e-04,-4.299999999999999894e-04,0.000000000000000000e+00,-2.299999999999999799e-04,1.699999999999999851e-04,6.000000000000000000e+00,2.300000000000000000e+01
5.358700000000000000e+04,0.000000000000000000e+00,-2.999999999999999737e-05,-1.000000000000000082e-05,-1.300000000000000157e-04,-4.299999999999999894e-04,0.000000000000000000e+00,-2.299999999999999799e-04,1.699999999999999851e-04,6.000000000000000000e+00,2.300000000000000000e+01
5.358800000000000000e+04,0.000000000000000000e+00,-2.999999999999999737e-05,-1.000000000000000082e-05,-1.300000000000000157e-04,-4.299999999999999894e-04,0.000000000000000000e+00,-2.299999999999999799e-04,1.699999999999999851e-04,6.000000000000000000e+00,2.300000000000000000e+01
5.358900000000000000e+04,0.000000000000000000e+00,-2.999999999999999737e-05,-1.000000000000000082e-05,-1.300000000000000157e-04,-4.299999999999999894e-04,0.000000000000000000e+00,-2.299999999999999799e-04,1.699999999999999851e-04,6.000000000000000000e+00,2.300000000000000000e+01
5.359000000000000000e+04,0.000000000000000000e+00,-2.999999999999999737e-05,-1.000000000000000082e-05,-1.300000000000000157e-04,-4.299999999999999894e-04,0.000000000000000000e+00,-2.299999999999999799e-04,1.699999999999999851e-04,6.000000000000000000e+00,2.300000000000000000e+01
5.359100000000000000e+04,0.000000000000000000e+00,-2.999999999999999737e-05,-1.000000000000000082e-05,-1.300000000000000157e-04,-4.299999999999999894e-04,0.000000000000000000e+00,-2.299999999999999799e-04,1.699999999999999851e-04,6.000000000000000000e+00,2.300000000000000000e+01
5.359200000000000000e+04,0.000000000000000000e+00,-2.999999999999999737e-05,-1.000000000000000082e-05,-1.300000000000000157e-04,-4.299999999999999894e-04,0.000000000000000000e+00,-2.299999999999999799e-04,1.699999999999999851e-04,6.000000000000000000e+00,2.300000000000000000e+01
5.359300000000000000e+04,0.000000000000000000e+00,-2.999999999999999737e-05,-1.000000000000000082e-05,-1.300000000000000157e-04,-4.299999999999999894e-04,0.000000000000000000e+00,-2.299999999999999799e-04,1.699999999999999851e-04,6.000000000000000000e+00,2.300000000000000000e+01
5.359400000000000000e+04,0.000000000000000000e+00,-2.999999999999999737e-05,-1.000000000000000082e-05,-1.300000000000000157e-04,-4.299999999999999894e-04,0.000000000000000000e+00,-2.299999999999999799e-04,1.699999999999999851e-04,6.000000000000000000e+00,2.300000000000000000e+01
5.359500000000000000e+04,6.999999999999999387e-05,-2.999999999999999737e-05,-2.999999999999999737e-05,-5.000000000000000240e-05,-1.499999999999999869e-04,3.799999999999999667e-04,4.299999999999999894e-04,4.499999999999999877e-04,6.000000000000000000e+00,2.300000000000000000e+01
5.359600000000000000e+04,2.900000000000000017e-04,5.000000000000000240e-05,-1.000000000000000082e-05,1.100000000000000039e-04,-9.000000000000000567e-05,4.799999999999999580e-04,-1.399999999999999877e-04,-1.199999999999999895e-04,6.000000000000000000e+00,2.300000000000000000e+01
5.359700000000000000e+04,2.900000000000000017e-04,5.000000000000000240e-05,-1.000000000000000082e-05,1.100000000000000039e-04,-9.000000000000000567e-05,4.799999999999999580e-04,-1.399999999999999877e-04,-1.199999999999999895e-04,6.000000000000000000e+00,2.300000000000000000e+01
5.359800000000000000e+04,2.900000000000000017e-04,5.000000000000000240e-05,-1.000000000000000082e-05,1.100000000000000039e-04,-9.000000000000000567e-05,4.799999999999999580e-04,-1.399999999999999877e-04,-1.199999999999999895e-04,6.000000000000000000e+00,2.300000000000000000e+01
5.359900000000000000e+04,2.900000000000000017e-04,5.000000000000000240e-05,-1.000000000000000082e-05,1.100000000000000039e-04,-9.000000000000000567e-05,4.799999999999999580e-04,-1.399999999999999877e-04,-1.199999999999999895e-04,6.000000000000000000e+00,2.300000000000000000e+01
5.360000000000000000e+04,2.900000000000000017e-04,5.000000000000000240e-05,-1.000000000000000082e-05,1.100000000000000039e-04,-9.000000000000000567e-05,4.799999999999999580e-04,-1.399999999999999877e-04,-1.199999999999999895e-04,6.000000000000000000e+00,2.300000000000000000e+01
5.360100000000000000e+04,2.900000000000000017e-04,5.000000000000000240e-05,-1.000000000000000082e-05,1.100000000000000039e-04,-9.000000000000000567e-05,4.799999999999999580e-04,-1.399999999999999877e-04,-1.199999999999999895e-04,6.000000000000000000e+00,2.300000000000000000e+01
5.360200000000000000e+04,2.900000000000000017e-04,5.000000000000000240e-05,-1.000000000000000082e-05,1.100000000000000039e-04,-9.000000000000000567e-05,4.799999999999999580e-04,-1.399999999999999877e-04,-1.199999999999999895e-04,6.000000000000000000e+00,2.300000000000000000e+01
5.360300000000000000e+04,2.900000000000000017e-04,5.000000000000000240e-05,-1.000000000000000082e-05,1.100000000000000039e-04,-9.000000000000000567e-05,4.799999999999999580e-04,-1.399999999999999877e-04,-1.199999999999999895e-04,6.000000000000000000e+00,2.300000000000000000e+01
5.360500000000000000e+04,2.900000000000000017e-04,5.000000000000000240e-05,-1.000000000000000082e-05,1.100000000000000039e-04,-9.000000000000000567e-05,4.799999999999999580e-04,-1.399999999999999877e-04,-1.199999999999999895e-04,6.000000000000000000e+00,2.300000000000000000e+01
5.360600000000000000e+04,2.900000000000000017e-04,5.000000000000000240e-05,-1.000000000000000082e-05,1.100000000000000039e-04,-9.000000000000000567e-05,4.799999999999999580e-04,-1.399999999999999877e-04,-1.199999999999999895e-04,6.000000000000000000e+00,2.300000000000000000e+01
5.360700000000000000e+04,2.900000000000000017e-04,5.000000000000000240e-05,-1.000000000000000082e-05,1.100000000000000039e-04,-9.000000000000000567e-05,4.799999999999999580e-04,-1.399999999999999877e-04,-1.199999999999999895e-04,6.000000000000000000e+00,2.300000000000000000e+01
5.360800000000000000e+04,2.900000000000000017e-04,5.000000000000000240e-05,-1.000000000000000082e-05,1.100000000000000039e-04,-9.000000000000000567e-05,4.799999999999999580e-04,-1.399999999999999877e-04,-1.199999999999999895e-04,6.000000000000000000e+00,2.300000000000000000e+01
5.360900000000000000e+04,2.900000000000000017e-04,5.000000000000000240e-05,-1.000000000000000082e-05,1.100000000000000039e-04,-9.000000000000000567e-05,4.799999999999999580e-04,-1.399999999999999877e-04,-1.199999999999999895e-04,6.000000000000000000e+00,2.300000000000000000e+01
5.361000000000000000e+04,2.900000000000000017e-04,5.000000000000000240e-05,-1.000000000000000082e-05,1.100000000000000039e-04,-9.000000000000000567e-05,4.799999999999999580e-04,-1.399999999999999877e-04,-1.199999999999999895e-04,6.000000000000000000e+00,2.300000000000000000e+01
5.361100000000000000e+04,2.900000000000000017e-04,5.000000000000000240e-05,-1.000000000000000082e-05,1.100000000000000039e-04,-9.000000000000000567e-05,4.799999999999999580e-04,-1.399999999999999877e-04,-1.199999999999999895e-04,6.000000000000000000e+00,2.300000000000000000e+01
5.361200000000000000e+04,2.900000000000000017e-04,5.000000000000000240e-05,-1.000000000000000082e-05,1.100000000000000039e-04,-9.000000000000000567e-05,4.799999999999999580e-04,-1.399999999999999877e-04,-1.199999999999999895e-04,6.000000000000000000e+00,2.300000000000000000e+01
5.361300000000000000e+04,2.900000000000000017e-04,5.000000000000000240e-05,-1.000000000000000082e-05,1.100000000000000039e-04,-9.000000000000000567e-05,4.799999999999999580e-04,-1.399999999999999877e-04,-1.199999999999999895e-04,6.000000000000000000e+00,2.300000000000000000e+01
5.361400000000000000e+04,2.900000000000000017e-04,5.000000000000000240e-05,-1.000000000000000082e-05,1.100000000000000039e-04,-9.000000000000000567e-05,4.799999999999999580e-04,-1.399999999999999877e-04,-1.199999999999999895e-04,6.000000000000000000e+00,2.300000000000000000e+01
5.361500000000000000e+04,2.900000000000000017e-04,5.000000000000000240e-05,-1.000000000000000082e-05,1.100000000000000039e-04,-9.000000000000000567e-05,4.799999999999999580e-04,-1.399999999999999877e-04,-1.199999999999999895e-04,6.000000000000000000e+00,2.300000000000000000e+01
5.361600000000000000e+04,2.900000000000000017e-04,5.000000000000000240e-05,-1.000000000000000082e-05,1.100000000000000039e-04,-9.000000000000000567e-05,4.799999999999999580e-04,-1.399999999999999877e-04,-1.199999999999999895e-04,6.000000000000000000e+00,2.300000000000000000e+01
5.361700000000000000e+04,1.300000000000000157e-04,5.000000000000000240e-05,9.000000000000000567e-05,5.000000000000000240e-05,2.700000000000000035e-04,8.000000000000000654e-05,-3.099999999999999999e-04,-1.600000000000000131e-04,6.000000000000000000e+00,2.300000000000000000e+01
5.361800000000000000e+04,-3.600000000000000227e-04,-6.999999999999999387e-05,2.000000000000000164e-05,0.000000000000000000e+00,2.000000000000000096e-04,8.699999999999998967e-04,-1.000000000000000082e-05,-5.000000000000000240e-05,6.000000000000000000e+00,2.300000000000000000e+01
5.361900000000000000e+04,-3.600000000000000227e-04,-6.999999999999999387e-05,2.000000000000000164e-05,0.000000000000000000e+00,2.000000000000000096e-04,8.699999999999998967e-04,-1.000000000000000082e-05,-5.000000000000000240e-05,6.000000000000000000e+00,2.300000000000000000e+01
5.362000000000000000e+04,-3.600000000000000227e-04,-6.999999999999999387e-05,2.000000000000000164e-05,0.000000000000000000e+00,2.000000000000000096e-04,8.699999999999998967e-04,-1.000000000000000082e-05,-5.000000000000000240e-05,6.000000000000000000e+00,2.300000000000000000e+01
5.362100000000000000e+04,-3.600000000000000227e-04,-6.999999999999999387e-05,2.000000000000000164e-05,0.000000000000000000e+00,2.000000000000000096e-04,8.699999999999998967e-04,-1.000000000000000082e-05,-5.000000000000000240e-05,6.000000000000000000e+00,2.300000000000000000e+01
5.362200000000000000e+04,-3.600000000000000227e-04,-6.999999999999999387e-05,2.000000000000000164e-05,0.000000000000000000e+00,2.000000000000000096e-04,8.699999999999998967e-04,-1.000000000000000082e-05,-5.000000000000000240e-05,6.000000000000000000e+00,2.300000000000000000e+01
5.362300000000000000e+04,-3.600000000000000227e-04,-6.999999999999999387e-05,2.000000000000000164e-05,0.000000000000000000e+00,2.000000000000000096e-04,8.699999999999998967e-04,-1.000000000000000082e-05,-5.000000000000000240e-05,6.000000000000000000e+00,2.300000000000000000e+01
5.362400000000000000e+04,-3.600000000000000227e-04,-6.999999999999999387e-05,2.000000000000000164e-05,0.000000000000000000e+00,2.000000000000000096e-04,8.699999999999998967e-04,-1.000000000000000082e-05,-5.000000000000000240e-05,6.000000000000000000e+00,2.300000000000000000e+01
5.362500000000000000e+04,-3.600000000000000227e-04,-6.999999999999999387e-05,2.000000000000000164e-05,0.000000000000000000e+00,2.000000000000000096e-04,8.699999999999998967e-04,-1.000000000000000082e-05,-5.000000000000000240e-05,6.000000000000000000e+00,2.300000000000000000e+01
5.362600000000000000e+04,-3.600000000000000227e-04,-6.999999999999999387e-05,2.000000000000000164e-05,0.000000000000000000e+00,2.000000000000000096e-04,8.699999999999998967e-04,-1.000000000000000082e-05,-5.000000000000000240e-05,6.000000000000000000e+00,2.300000000000000000e+01
5.362700000000000000e+04,-3.600000000000000227e-04,-6.999999999999999387e-05,2.000000000000000164e-05,0.000000000000000000e+00,2.000000000000000096e-04,8.699999999999998967e-04,-1.000000000000000082e-05,-5.000000000000000240e-05,6.000000000000000000e+00,2.300000000000000000e+01
5.362800000000000000e+04,-3.600000000000000227e-04,-6.999999999999999387e-05,2.000000000000000164e-05,0.000000000000000000e+00,2.000000000000000096e-04,8.699999999999998967e-04,-1.000000000000000082e-05,-5.000000000000000240e-05,6.000000000000000000e+00,2.300000000000000000e+01
5.362900000000000000e+04,-3.600000000000000227e-04,-6.999999999999999387e-05,2.000000000000000164e-05,0.000000000000000000e+00,2.000000000000000096e-04,8.699999999999998967e-04,-1.000000000000000082e-05,-5.000000000000000240e-05,6.000000000000000000e+00,2.300000000000000000e+01
5.363000000000000000e+04,-3.600000000000000227e-04,-6.999999999999999387e-05,2.000000000000000164e-05,0.000000000000000000e+00,2.000000000000000096e-04,8.699999999999998967e-04,-1.000000000000000082e-05,-5.000000000000000240e-05,6.000000000000000000e+00,2.300000000000000000e+01
5.363100000000000000e+04,-3.600000000000000227e-04,-6.999999999999999387e-05,2.000000000000000164e-05,0.000000000000000000e+00,2.000000000000000096e-04,8.699999999999998967e-04,-1.000000000000000082e-05,-5.000000000000000240e-05,6.000000000000000000e+00,2.300000000000000000e+01
5.363200000000000000e+04,-3.699999999999999947e-04,-5.999999999999999474e-05,4.000000000000000327e-05,-1.300000000000000157e-04,-2.500000000000000052e-04,-4.599999999999999597e-04,2.999999999999999737e-04,-1.100000000000000039e-04,6.000000000000000000e+00,2.300000000000000000e+01
5.363300000000000000e+04,3.200000000000000262e-04,5.000000000000000240e-05,0.000000000000000000e+00,5.000000000000000240e-05,1.600000000000000131e-04,-9.000000000000000567e-05,0.000000000000000000e+00,2.200000000000000078e-04,6.000000000000000000e+00,2.300000000000000000e+01
5.363400000000000000e+04,3.200000000000000262e-04,5.000000000000000240e-05,0.000000000000000000e+00,5.000000000000000240e-05,1.600000000000000131e-04,-9.000000000000000567e-05,0.000000000000000000e+00,2.200000000000000078e-04,6.000000000000000000e+00,2.300000000000000000e+01
5.363500000000000000e+04,3.200000000000000262e-04,5.000000000000000240e-05,0.000000000000000000e+00,5.000000000000000240e-05,1.600000000000000131e-04,-9.000000000000000567e-05,0.000000000000000000e+00,2.200000000000000078e-04,6.000000000000000000e+00,2.300000000000000000e+01
5.363600000000000000e+04,3.200000000000000262e-04,5.000000000000000240e-05,0.000000000000000000e+00,5.000000000000000240e-05,1.600000000000000131e-04,-9.000000000000000567e-05,0.000000000000000000e+00,2.200000000000000078e-04,6.000000000000000000e+00,2.300000000000000000e+01
5.363700000000000000e+04,3.200000000000000262e-04,5.000000000000000240e-05,0.000000000000000000e+00,5.000000000000000240e-05,1.600000000000000131e-04,-9.000000000000000567e-05,0.000000000000000000e+00,2.200000000000000078e-04,6.000000000000000000e+00,2.300000000000000000e+01
5.363800000000000000e+04,3.200000000000000262e-04,5.000000000000000240e-05,0.000000000000000000e+00,5.000000000000000240e-05,1.600000000000000131e-04,-9.000000000000000567e-05,0.000000000000000000e+00,2.200000000000000078e-04,6.000000000000000000e+00,2.300000000000000000e+01
5.363900000000000000e+04,3.200000000000000262e-04,5.000000000000000240e-05,0.000000000000000000e+00,5.000000000000000240e-05,1.600000000000000131e-04,-9.000000000000000567e-05,0.000000000000000000e+00,2.200000000000000078e-04,6.000000000000000000e+00,2.300000000000000000e+01
5.364000000000000000e+04,3.200000000000000262e-04,5.000000000000000240e-05,0.000000000000000000e+00,5.000000000000000240e-05,1.600000000000000131e-04,-9.000000000000000567e-05,0.000000000000000000e+00,2.200000000000000078e-04,6.000000000000000000e+00,2.300000000000000000e+01
5.364100000000000000e+04,3.200000000000000262e-04,5.000000000000000240e-05,0.000000000000000000e+00,5.000000000000000240e-05,1.600000000000000131e-04,-9.000000000000000567e-05,0.000000000000000000e+00,2.200000000000000078e-04,6.000000000000000000e+00,2.300000000000000000e+01
5.364200000000000000e+04,3.200000000000000262e-04,5.000000000000000240e-05,0.000000000000000000e+00,5.000000000000000240e-05,1.600000000000000131e-04,-9.000000000000000567e-05,0.000000000000000000e+00,2.200000000000000078e-04,6.000000000000000000e+00,2.300000000000000000e+01
5.364300000000000000e+04,3.200000000000000262e-04,5.000000000000000240e-05,0.000000000000000000e+00,5.000000000000000240e-05,1.600000000000000131e-04,-9.000000000000000567e-05,0.000000000000000000e+00,2.200000000000000078e-04,6.000000000000000000e+00,2.300000000000000000e+01
5.364400000000000000e+04,3.200000000000000262e-04,5.000000000000000240e-05,0.000000000000000000e+00,5.000000000000000240e-05,1.600000000000000131e-04,-9.000000000000000567e-05,0.000000000000000000e+00,2.200000000000000078e-04,6.000000000000000000e+00,2.300000000000000000e+01
5.364500000000000000e+04,3.200000000000000262e-04,5.000000000000000240e-05,0.000000000000000000e+00,5.000000000000000240e-05,1.600000000000000131e-04,-9.000000000000000567e-05,0.000000000000000000e+00,2.200000000000000078e-04,6.000000000000000000e+00,2.300000000000000000e+01
5.364600000000000000e+04,3.200000000000000262e-04,5.000000000000000240e-05,0.000000000000000000e+00,5.000000000000000240e-05,1.600000000000000131e-04,-9.000000000000000567e-05,0.000000000000000000e+00,2.200000000000000078e-04,6.000000000000000000e+00,2.300000000000000000e+01
5.364700000000000000e+04,3.200000000000000262e-04,5.000000000000000240e-05,0.000000000000000000e+00,5.000000000000000240e-05,1.600000000000000131e-04,-9.000000000000000567e-05,0.000000000000000000e+00,2.200000000000000078e-04,6.000000000000000000e+00,2.300000000000000000e+01
5.364800000000000000e+04,3.200000000000000262e-04,5.000000000000000240e-05,0.000000000000000000e+00,5.000000000000000240e-05,1.600000000000000131e-04,-9.000000000000000567e-05,0.000000000000000000e+00,2.200000000000000078e-04,6.000000000000000000e+00,2.300000000000000000e+01
5.364900000000000000e+04,3.200000000000000262e-04,5.000000000000000240e-05,0.000000000000000000e+00,5.000000000000000240e-05,1.600000000000000131e-04,-9.000000000000000567e-05,0.000000000000000000e+00,2.200000000000000078e-04,6.000000000000000000e+00,2.300000000000000000e+01
5.365100000000000000e+04,3.200000000000000262e-04,5.000000000000000240e-05,0.000000000000000000e+00,5.000000000000000240e-05,1.600000000000000131e-04,-9.000000000000000567e-05,0.000000000000000000e+00,2.200000000000000078e-04,6.000000000000000000e+00,2.300000000000000000e+01
5.365200000000000000e+04,3.200000000000000262e-04,5.000000000000000240e-05,0.000000000000000000e+00,5.000000000000000240e-05,1.600000000000000131e-04,-9.000000000000000567e-05,0.000000000000000000e+00,2.200000000000000078e-04,6.000000000000000000e+00,2.300000000000000000e+01
5.365300000000000000e+04,3.200000000000000262e-04,5.000000000000000240e-05,0.000000000000000000e+00,5.000000000000000240e-05,1.600000000000000131e-04,-9.000000000000000567e-05,0.000000000000000000e+00,2.200000000000000078e-04,6.000000000000000000e+00,2.300000000000000000e+01
5.365400000000000000e+04,3.200000000000000262e-04,5.000000000000000240e-05,0.000000000000000000e+00,5.000000000000000240e-05,1.600000000000000131e-04,-9.000000000000000567e-05,0.000000000000000000e+00,2.200000000000000078e-04,6.000000000000000000e+00,2.300000000000000000e+01
5.365500000000000000e+04,2.999999999999999737e-04,5.999999999999999474e-05,-5.000000000000000240e-05,-2.900000000000000017e-04,-1.149999999999999981e-03,-4.700000000000000401e-04,1.499999999999999869e-04,1.399999999999999877e-04,6.000000000000000000e+00,2.300000000000000000e+01
5.365600000000000000e+04,2.999999999999999737e-04,5.999999999999999474e-05,-5.000000000000000240e-05,-2.900000000000000017e-04,-1.149999999999999981e-03,-4.700000000000000401e-04,1.499999999999999869e-04,1.399999999999999877e-04,6.000000000000000000e+00,2.300000000000000000e+01
5.365700000000000000e+04,2.999999999999999737e-04,5.999999999999999474e-05,-5.000000000000000240e-05,-2.900000000000000017e-04,-1.149999999999999981e-03,-4.700000000000000401e-04,1.499999999999999869e-04,1.399999999999999877e-04,6.000000000000000000e+00,2.300000000000000000e+01
5.365800000000000000e+04,2.999999999999999737e-04,5.999999999999999474e-05,-5.000000000000000240e-05,-2.900000000000000017e-04,-1.149999999999999981e-03,-4.700000000000000401e-04,1.499999999999999869e-04,1.399999999999999877e-04,6.000000000000000000e+00,2.300000000000000000e+01
5.365900000000000000e+04,2.999999999999999737e-04,5.999999999999999474e-05,-5.000000000000000240e-05,-2.900000000000000017e-04,-1.149999999999999981e-03,-4.700000000000000401e-04,1.499999999999999869e-04,1.399999999999999877e-04,6.000000000000000000e+00,2.300000000000000000e+01
5.366000000000000000e+04,2.999999999999999737e-04,5.999999999999999474e-05,-5.000000000000000240e-05,-2.900000000000000017e-04,-1.149999999999999981e-03,-4.700000000000000401e-04,1.499999999999999869e-04,1.399999999999999877e-04,6.000000000000000000e+00,2.300000000000000000e+01
5.366100000000000000e+04,2.999999999999999737e-04,5.999999999999999474e-05,-5.000000000000000240e-05,-2.900000000000000017e-04,-1.149999999999999981e-03,-4.700000000000000401e-04,1.499999999999999869e-04,1.399999999999999877e-04,6.000000000000000000e+00,2.300000000000000000e+01
5.366200000000000000e+04,2.999999999999999737e-04,5.999999999999999474e-05,-5.000000000000000240e-05,-2.900000000000000017e-04,-1.149999999999999981e-03,-4.700000000000000401e-04,1.499999999999999869e-04,1.399999999999999877e-04,6.000000000000000000e+00,2.300000000000000000e+01
5.366300000000000000e+04,2.999999999999999737e-04,5.999999999999999474e-05,-5.000000000000000240e-05,-2.900000000000000017e-04,-1.149999999999999981e-03,-4.700000000000000401e-04,1.499999999999999869e-04,1.399999999999999877e-04,6.000000000000000000e+00,2.300000000000000000e+01
5.366400000000000000e+04,2.999999999999999737e-04,5.999999999999999474e-05,-5.000000000000000240e-05,-2.900000000000000017e-04,-1.149999999999999981e-03,-4.700000000000000401e-04,1.499999999999999869e-04,1.399999999999999877e-04,6.000000000000000000e+00,2.300000000000000000e+01
5.366500000000000000e+04,2.999999999999999737e-04,5.999999999999999474e-05,-5.000000000000000240e-05,-2.900000000000000017e-04,-1.149999999999999981e-03,-4.700000000000000401e-04,1.499999999999999869e-04,1.399999999999999877e-04,6.000000000000000000e+00,2.300000000000000000e+01
5.366600000000000000e+04,2.999999999999999737e-04,5.999999999999999474e-05,-5.000000000000000240e-05,-2.900000000000000017e-04,-1.149999999999999981e-03,-4.700000000000000401e-04,1.499999999999999869e-04,1.399999999999999877e-04,6.000000000000000000e+00,2.300000000000000000e+01
5.366700000000000000e+04,2.999999999999999737e-04,5.999999999999999474e-05,-5.000000000000000240e-05,-2.900000000000000017e-04,-1.149999999999999981e-03,-4.700000000000000401e-04,1.499999999999999869e-04,1.399999999999999877e-04,6.000000000000000000e+00,2.300000000000000000e+01
5.366800000000000000e+04,2.999999999999999737e-04,5.999999999999999474e-05,-5.000000000000000240e-05,-2.900000000000000017e-04,-1.149999999999999981e-03,-4.700000000000000401e-04,1.499999999999999869e-04,1.399999999999999877e-04,6.000000000000000000e+00,2.300000000000000000e+01
5.366900000000000000e+04,2.999999999999999737e-04,5.999999999999999474e-05,-5.000000000000000240e-05,-2.900000000000000017e-04,-1.149999999999999981e-03,-4.700000000000000401e-04,1.499999999999999869e-04,1.399999999999999877e-04,6.000000000000000000e+00,2.300000000000000000e+01
5.367000000000000000e+04,2.999999999999999737e-04,5.999999999999999474e-05,-5.000000000000000240e-05,-2.900000000000000017e-04,-1.149999999999999981e-03,-4.700000000000000401e-04,1.499999999999999869e-04,1.399999999999999877e-04,6.000000000000000000e+00,2.300000000000000000e+01
5.367100000000000000e+04,2.999999999999999737e-04,5.999999999999999474e-05,-5.000000000000000240e-05,-2.900000000000000017e-04,-1.149999999999999981e-03,-4.700000000000000401e-04,1.499999999999999869e-04,1.399999999999999877e-04,6.000000000000000000e+00,2.300000000000000000e+01
5.367200000000000000e+04,2.999999999999999737e-04,5.999999999999999474e-05,-5.000000000000000240e-05,-2.900000000000000017e-04,-1.149999999999999981e-03,-4.700000000000000401e-04,1.499999999999999869e-04,1.399999999999999877e-04,6.000000000000000000e+00,2.300000000000000000e+01
5.367300000000000000e+04,2.999999999999999737e-04,5.999999999999999474e-05,-5.000000000000000240e-05,-2.900000000000000017e-04,-1.149999999999999981e-03,-4.700000000000000401e-04,1.499999999999999869e-04,1.399999999999999877e-04,6.000000000000000000e+00,2.300000000000000000e+01
5.367400000000000000e+04,2.999999999999999737e-04,5.999999999999999474e-05,-5.000000000000000240e-05,-2.900000000000000017e-04,-1.149999999999999981e-03,-4.700000000000000401e-04,1.499999999999999869e-04,1.399999999999999877e-04,6.000000000000000000e+00,2.300000000000000000e+01
5.367500000000000000e+04,2.999999999999999737e-04,5.999999999999999474e-05,-5.000000000000000240e-05,-2.900000000000000017e-04,-1.149999999999999981e-03,-4.700000000000000401e-04,1.499999999999999869e-04,1.399999999999999877e-04,6.000000000000000000e+00,2.300000000000000000e+01
5.367600000000000000e+04,2.999999999999999737e-04,5.999999999999999474e-05,-5.000000000000000240e-05,-2.900000000000000017e-04,-1.149999999999999981e-03,-4.700000000000000401e-04,1.499999999999999869e-04,1.399999999999999877e-04,6.000000000000000000e+00,2.300000000000000000e+01
5.367700000000000000e+04,-4.400000000000000157e-04,-1.000000000000000082e-05,-9.000000000000000567e-05,1.800000000000000113e-04,-2.100000000000000087e-04,4.299999999999999894e-04,2.799999999999999755e-04,-2.600000000000000314e-04,6.000000000000000000e+00,2.300000000000000000e+01
5.367800000000000000e+04,-1.000000000000000048e-04,-4.000000000000000327e-05,2.999999999999999737e-05,-4.000000000000000327e-05,8.599999999999999789e-04,1.000000000000000048e-04,5.999999999999999474e-05,-4.299999999999999894e-04,6.000000000000000000e+00,2.300000000000000000e+01
5.367900000000000000e+04,-1.000000000000000048e-04,-4.000000000000000327e-05,2.999999999999999737e-05,-4.000000000000000327e-05,8.599999999999999789e-04,1.000000000000000048e-04,5.999999999999999474e-05,-4.299999999999999894e-04,6.000000000000000000e+00,2.300000000000000000e+01
5.368000000000000000e+04,-1.000000000000000048e-04,-4.000000000000000327e-05,2.999999999999999737e-05,-4.000000000000000327e-05,8.599999999999999789e-04,1.000000000000000048e-04,5.999999999999999474e-05,-4.299999999999999894e-04,6.000000000000000000e+00,2.300000000000000000e+01
5.368100000000000000e+04,-1.000000000000000048e-04,-4.000000000000000327e-05,2.999999999999999737e-05,-4.000000000000000327e-05,8.599999999999999789e-04,1.000000000000000048e-04,5.999999999999999474e-05,-4.299999999999999894e-04,6.000000000000000000e+00,2.300000000000000000e+01
5.368200000000000000e+04,-1.000000000000000048e-04,-4.000000000000000327e-05,2.999999999999999737e-05,-4.000000000000000327e-05,8.599999999999999789e-04,1.000000000000000048e-04,5.999999999999999474e-05,-4.299999999999999894e-04,6.000000000000000000e+00,2.300000000000000000e+01
5.368300000000000000e+04,-1.000000000000000048e-04,-4.000000000000000327e-05,2.999999999999999737e-05,-4.000000000000000327e-05,8.599999999999999789e-04,1.000000000000000048e-04,5.999999999999999474e-05,-4.299999999999999894e-04,6.000000000000000000e+00,2.300000000000000000e+01
5.368400000000000000e+04,-1.000000000000000048e-04,-4.000000000000000327e-05,2.999999999999999737e-05,-4.000000000000000327e-05,8.599999999999999789e-04,1.000000000000000048e-04,5.999999999999999474e-05,-4.299999999999999894e-04,6.000000000000000000e+00,2.300000000000000000e+01
5.368500000000000000e+04,-1.000000000000000048e-04,-4.000000000000000327e-05,2.999999999999999737e-05,-4.000000000000000327e-05,8.599999999999999789e-04,1.000000000000000048e-04,5.999999999999999474e-05,-4.299999999999999894e-04,6.000000000000000000e+00,2.300000000000000000e+01
5.368600000000000000e+04,-1.000000000000000048e-04,-4.000000000000000327e-05,2.999999999999999737e-05,-4.000000000000000327e-05,8.599999999999999789e-04,1.000000000000000048e-04,5.999999999999999474e-05,-4.299999999999999894e-04,6.000000000000000000e+00,2.300000000000000000e+01
5.368700000000000000e+04,-1.000000000000000048e-04,-4.000000000000000327e-05,2.999999999999999737e-05,-4.000000000000000327e-05,8.599999999999999789e-04,1.000000000000000048e-04,5.999999999999999474e-05,-4.299999999999999894e-04,6.000000000000000000e+00,2.300000000000000000e+01
5.368800000000000000e+04,-1.000000000000000048e-04,-4.000000000000000327e-05,2.999999999999999737e-05,-4.000000000000000327e-05,8.599999999999999789e-04,1.000000000000000048e-04,5.999999999999999474e-05,-4.299999999999999894e-04,6.000000000000000000e+00,2.300000000000000000e+01
5.368900000000000000e+04,-1.000000000000000048e-04,-4.000000000000000327e-05,2.999999999999999737e-05,-4.000000000000000327e-05,8.599999999999999789e-04,1.000000000000000048e-04,5.999999999999999474e-05,-4.299999999999999894e-04,6.000000000000000000e+00,2.300000000000000000e+01
5.369000000000000000e+04,-1.000000000000000048e-04,-4.000000000000000327e-05,2.999999999999999737e-05,-4.000000000000000327e-05,8.599999999999999789e-04,1.000000000000000048e-04,5.999999999999999474e-05,-4.299999999999999894e-04,6.000000000000000000e+00,2.300000000000000000e+01
5.369100000000000000e+04,-1.000000000000000048e-04,-4.000000000000000327e-05,2.999999999999999737e-05,-4.000000000000000327e-05,8.599999999999999789e-04,1.000000000000000048e-04,5.999999999999999474e-05,-4.299999999999999894e-04,6.000000000000000000e+00,2.300000000000000000e+01
5.369200000000000000e+04,-6.999999999999999387e-05,-2.999999999999999737e-05,6.999999999999999387e-05,2.299999999999999799e-04,5.699999999999999772e-04,-2.999999999999999737e-05,-3.799999999999999667e-04,-1.699999999999999851e-04,6.000000000000000000e+00,2.300000000000000000e+01
5.369300000000000000e+04,6.999999999999999387e-05,1.600000000000000131e-04,1.499999999999999869e-04,5.400000000000000069e-04,8.999999999999999754e-04,4.499999999999999877e-04,5.999999999999999474e-05,1.600000000000000131e-04,6.000000000000000000e+00,2.300000000000000000e+01
5.369400000000000000e+04,6.999999999999999387e-05,1.600000000000000131e-04,1.499999999999999869e-04,5.400000000000000069e-04,8.999999999999999754e-04,4.499999999999999877e-04,5.999999999999999474e-05,1.600000000000000131e-04,6.000000000000000000e+00,2.300000000000000000e+01
5.369500000000000000e+04,6.999999999999999387e-05,1.600000000000000131e-04,1.499999999999999869e-04,5.400000000000000069e-04,8.999999999999999754e-04,4.499999999999999877e-04,5.999999999999999474e-05,1.600000000000000131e-04,6.000000000000000000e+00,2.300000000000000000e+01
5.369600000000000000e+04,6.999999999999999387e-05,1.600000000000000131e-04,1.499999999999999869e-04,5.400000000000000069e-04,8.999999999999999754e-04,4.499999999999999877e-04,5.999999999999999474e-05,1.600000000000000131e-04,6.000000000000000000e+00,2.300000000000000000e+01
5.369800000000000000e+04,6.999999999999999387e-05,1.600000000000000131e-04,1.499999999999999869e-04,5.400000000000000069e-04,8.999999999999999754e-04,4.499999999999999877e-04,5.999999999999999474e-05,1.600000000000000131e-04,6.000000000000000000e+00,2.300000000000000000e+01
5.369900000000000000e+04,6.999999999999999387e-05,1.600000000000000131e-04,1.499999999999999869e-04,5.400000000000000069e-04,8.999999999999999754e-04,4.499999999999999877e-04,5.999999999999999474e-05,1.600000000000000131e-04,6.000000000000000000e+00,2.300000000000000000e+01
5.370000000000000000e+04,6.999999999999999387e-05,1.600000000000000131e-04,1.499999999999999869e-04,5.400000000000000069e-04,8.999999999999999754e-04,4.499999999999999877e-04,5.999999999999999474e-05,1.600000000000000131e-04,6.000000000000000000e+00,2.300000000000000000e+01
5.370100000000000000e+04,6.999999999999999387e-05,1.600000000000000131e-04,1.499999999999999869e-04,5.400000000000000069e-04,8.999999999999999754e-04,4.499999999999999877e-04,5.999999999999999474e-05,1.600000000000000131e-04,6.000000000000000000e+00,2.300000000000000000e+01
5.370200000000000000e+04,6.999999999999999387e-05,1.600000000000000131e-04,1.499999999999999869e-04,5.400000000000000069e-04,8.999999999999999754e-04,4.499999999999999877e-04,5.999999999999999474e-05,1.600000000000000131e-04,6.000000000000000000e+00,2.300000000000000000e+01
5.370300000000000000e+04,6.999999999999999387e-05,1.600000000000000131e-04,1.499999999999999869e-04,5.400000000000000069e-04,8.999999999999999754e-04,4.499999999999999877e-04,5.999999999999999474e-05,1.600000000000000131e-04,6.000000000000000000e+00,2.300000000000000000e+01
5.370400000000000000e+04,6.999999999999999387e-05,1.600000000000000131e-04,1.499999999999999869e-04,5.400000000000000069e-04,8.999999999999999754e-04,4.499999999999999877e-04,5.999999999999999474e-05,1.600000000000000131e-04,6.000000000000000000e+00,2.300000000000000000e+01
5.370500000000000000e+04,6.999999999999999387e-05,1.600000000000000131e-04,1.499999999999999869e-04,5.400000000000000069e-04,8.999999999999999754e-04,4.499999999999999877e-04,5.999999999999999474e-05,1.600000000000000131e-04,6.000000000000000000e+00,2.300000000000000000e+01
5.370600000000000000e+04,6.999999999999999387e-05,1.600000000000000131e-04,1.499999999999999869e-04,5.400000000000000069e-04,8.999999999999999754e-04,4.499999999999999877e-04,5.999999999999999474e-05,1.600000000000000131e-04,6.000000000000000000e+00,2.300000000000000000e+01
5.370700000000000000e+04,6.999999999999999387e-05,1.600000000000000131e-04,1.499999999999999869e-04,5.400000000000000069e-04,8.999999999999999754e-04,4.499999999999999877e-04,5.999999999999999474e-05,1.600000000000000131e-04,6.000000000000000000e+00,2.300000000000000000e+01
5.370800000000000000e+04,6.999999999999999387e-05,1.600000000000000131e-04,1.499999999999999869e-04,5.400000000000000069e-04,8.999999999999999754e-04,4.499999999999999877e-04,5.999999999999999474e-05,1.600000000000000131e-04,6.000000000000000000e+00,2.300000000000000000e+01
5.370900000000000000e+04,6.999999999999999387e-05,1.600000000000000131e-04,1.499999999999999869e-04,5.400000000000000069e-04,8.999999999999999754e-04,4.499999999999999877e-04,5.999999999999999474e-05,1.600000000000000131e-04,6.000000000000000000e+00,2.300000000000000000e+01
5.371000000000000000e+04,6.999999999999999387e-05,1.600000000000000131e-04,1.499999999999999869e-04,5.400000000000000069e-04,8.999999999999999754e-04,4.499999999999999877e-04,5.999999999999999474e-05,1.600000000000000131e-04,6.000000000000000000e+00,2.300000000000000000e+01
5.371100000000000000e+04,6.999999999999999387e-05,1.600000000000000131e-04,1.499999999999999869e-04,5.400000000000000069e-04,8.999999999999999754e-04,4.499999999999999877e-04,5.999999999999999474e-05,1.600000000000000131e-04,6.000000000000000000e+00,2.300000000000000000e+01
5.371200000000000000e+04,6.999999999999999387e-05,1.600000000000000131e-04,1.499999999999999869e-04,5.400000000000000069e-04,8.999999999999999754e-04,4.499999999999999877e-04,5.999999999999999474e-05,1.600000000000000131e-04,6.000000000000000000e+00,2.300000000000000000e+01
5.371300000000000000e+04,6.999999999999999387e-05,1.600000000000000131e-04,1.499999999999999869e-04,5.400000000000000069e-04,8.999999999999999754e-04,4.499999999999999877e-04,5.999999999999999474e-05,1.600000000000000131e-04,6.000000000000000000e+00,2.300000000000000000e+01
5.371400000000000000e+04,3.099999999999999999e-04,5.000000000000000240e-05,2.999999999999999737e-05,-2.000000000000000164e-05,3.799999999999999667e-04,-1.499999999999999869e-04,2.000000000000000164e-05,1.899999999999999834e-04,6.000000000000000000e+00,2.300000000000000000e+01
5.371500000000000000e+04,-9.000000000000000567e-05,-1.600000000000000131e-04,-2.100000000000000087e-04,-4.899999999999999842e-04,-1.280000000000000105e-03,-1.069999999999999988e-03,-3.399999999999999702e-04,1.300000000000000157e-04,6.000000000000000000e+00,2.300000000000000000e+01
5.371600000000000000e+04,-9.000000000000000567e-05,-1.600000000000000131e-04,-2.100000000000000087e-04,-4.899999999999999842e-04,-1.280000000000000105e-03,-1.069999999999999988e-03,-3.399999999999999702e-04,1.300000000000000157e-04,6.000000000000000000e+00,2.300000000000000000e+01
5.371700000000000000e+04,-9.000000000000000567e-05,-1.600000000000000131e-04,-2.100000000000000087e-04,-4.899999999999999842e-04,-1.280000000000000105e-03,-1.069999999999999988e-03,-3.399999999999999702e-04,1.300000000000000157e-04,6.000000000000000000e+00,2.300000000000000000e+01
5.371800000000000000e+04,-9.000000000000000567e-05,-1.600000000000000131e-04,-2.100000000000000087e-04,-4.899999999999999842e-04,-1.280000000000000105e-03,-1.069999999999999988e-03,-3.399999999999999702e-04,1.300000000000000157e-04,6.000000000000000000e+00,2.300000000000000000e+01
5.371900000000000000e+04,-9.000000000000000567e-05,-1.600000000000000131e-04,-2.100000000000000087e-04,-4.899999999999999842e-04,-1.280000000000000105e-03,-1.069999999999999988e-03,-3.399999999999999702e-04,1.300000000000000157e-04,6.000000000000000000e+00,2.300000000000000000e+01
5.372000000000000000e+04,-9.000000000000000567e-05,-1.600000000000000131e-04,-2.100000000000000087e-04,-4.899999999999999842e-04,-1.280000000000000105e-03,-1.069999999999999988e-03,-3.399999999999999702e-04,1.300000000000000157e-04,6.000000000000000000e+00,2.300000000000000000e+01
5.372100000000000000e+04,-9.000000000000000567e-05,-1.600000000000000131e-04,-2.100000000000000087e-04,-4.899999999999999842e-04,-1.280000000000000105e-03,-1.069999999999999988e-03,-3.399999999999999702e-04,1.300000000000000157e-04,6.000000000000000000e+00,2.300000000000000000e+01
5.372200000000000000e+04,-9.000000000000000567e-05,-1.600000000000000131e-04,-2.100000000000000087e-04,-4.899999999999999842e-04,-1.280000000000000105e-03,-1.069999999999999988e-03,-3.399999999999999702e-04,1.300000000000000157e-04,6.000000000000000000e+00,2.300000000000000000e+01
5.372300000000000000e+04,-9.000000000000000567e-05,-1.600000000000000131e-04,-2.100000000000000087e-04,-4.899999999999999842e-04,-1.280000000000000105e-03,-1.069999999999999988e-03,-3.399999999999999702e-04,1.300000000000000157e-04,6.000000000000000000e+00,2.300000000000000000e+01
5.372400000000000000e+04,-9.000000000000000567e-05,-1.600000000000000131e-04,-2.100000000000000087e-04,-4.899999999999999842e-04,-1.280000000000000105e-03,-1.069999999999999988e-03,-3.399999999999999702e-04,1.300000000000000157e-04,6.000000000000000000e+00,2.300000000000000000e+01
5.372500000000000000e+04,-9.000000000000000567e-05,-1.600000000000000131e-04,-2.100000000000000087e-04,-4.899999999999999842e-04,-1.280000000000000105e-03,-1.069999999999999988e-03,-3.399999999999999702e-04,1.300000000000000157e-04,6.000000000000000000e+00,2.300000000000000000e+01
5.372600000000000000e+04,-9.000000000000000567e-05,-1.600000000000000131e-04,-2.100000000000000087e-04,-4.899999999999999842e-04,-1.280000000000000105e-03,-1.069999999999999988e-03,-3.399999999999999702e-04,1.300000000000000157e-04,6.000000000000000000e+00,2.300000000000000000e+01
5.372700000000000000e+04,-9.000000000000000567e-05,-1.600000000000000131e-04,-2.100000000000000087e-04,-4.899999999999999842e-04,-1.280000000000000105e-03,-1.069999999999999988e-03,-3.399999999999999702e-04,1.300000000000000157e-04,6.000000000000000000e+00,2.300000000000000000e+01
5.372800000000000000e+04,-9.000000000000000567e-05,-1.600000000000000131e-04,-2.100000000000000087e-04,-4.899999999999999842e-04,-1.280000000000000105e-03,-1.069999999999999988e-03,-3.399999999999999702e-04,1.300000000000000157e-04,6.000000000000000000e+00,2.300000000000000000e+01
5.372900000000000000e+04,-9.000000000000000567e-05,-1.600000000000000131e-04,-2.100000000000000087e-04,-4.899999999999999842e-04,-1.280000000000000105e-03,-1.069999999999999988e-03,-3.399999999999999702e-04,1.300000000000000157e-04,6.000000000000000000e+00,2.300000000000000000e+01
5.373000000000000000e+04,-9.000000000000000567e-05,-1.600000000000000131e-04,-2.100000000000000087e-04,-4.899999999999999842e-04,-1.280000000000000105e-03,-1.069999999999999988e-03,-3.399999999999999702e-04,1.300000000000000157e-04,6.000000000000000000e+00,2.300000000000000000e+01
5.373100000000000000e+04,-9.000000000000000567e-05,-1.600000000000000131e-04,-2.100000000000000087e-04,-4.899999999999999842e-04,-1.280000000000000105e-03,-1.069999999999999988e-03,-3.399999999999999702e-04,1.300000000000000157e-04,6.000000000000000000e+00,2.300000000000000000e+01
5.373200000000000000e+04,-9.000000000000000567e-05,-1.600000000000000131e-04,-2.100000000000000087e-04,-4.899999999999999842e-04,-1.280000000000000105e-03,-1.069999999999999988e-03,-3.399999999999999702e-04,1.300000000000000157e-04,6.000000000000000000e+00,2.300000000000000000e+01
5.373300000000000000e+04,-9.000000000000000567e-05,-1.600000000000000131e-04,-2.100000000000000087e-04,-4.899999999999999842e-04,-1.280000000000000105e-03,-1.069999999999999988e-03,-3.399999999999999702e-04,1.300000000000000157e-04,6.000000000000000000e+00,2.300000000000000000e+01
5.373400000000000000e+04,-9.000000000000000567e-05,-1.600000000000000131e-04,-2.100000000000000087e-04,-4.899999999999999842e-04,-1.280000000000000105e-03,-1.069999999999999988e-03,-3.399999999999999702e-04,1.300000000000000157e-04,6.000000000000000000e+00,2.300000000000000000e+01
5.373500000000000000e+04,-9.000000000000000567e-05,-1.600000000000000131e-04,-2.100000000000000087e-04,-4.899999999999999842e-04,-1.280000000000000105e-03,-1.069999999999999988e-03,-3.399999999999999702e-04,1.300000000000000157e-04,6.000000000000000000e+00,2.300000000000000000e+01
5.373600000000000000e+04,-9.000000000000000567e-05,-1.600000000000000131e-04,-2.100000000000000087e-04,-4.899999999999999842e-04,-1.280000000000000105e-03,-1.069999999999999988e-03,-3.399999999999999702e-04,1.300000000000000157e-04,6.000000000000000000e+00,2.300000000000000000e+01
5.373800000000000000e+04,4.000000000000000327e-05,-1.000000000000000082e-05,-9.000000000000000567e-05,1.000000000000000082e-05,-3.799999999999999667e-04,3.799999999999999667e-04,1.000000000000000048e-04,2.999999999999999737e-05,6.000000000000000000e+00,2.300000000000000000e+01
5.373900000000000000e+04,4.000000000000000327e-05,-1.000000000000000082e-05,-9.000000000000000567e-05,1.000000000000000082e-05,-3.799999999999999667e-04,3.799999999999999667e-04,1.000000000000000048e-04,2.999999999999999737e-05,6.000000000000000000e+00,2.300000000000000000e+01
5.374000000000000000e+04,4.000000000000000327e-05,-1.000000000000000082e-05,-9.000000000000000567e-05,1.000000000000000082e-05,-3.799999999999999667e-04,3.799999999999999667e-04,1.000000000000000048e-04,2.999999999999999737e-05,6.000000000000000000e+00,2.300000000000000000e+01
5.374100000000000000e+04,4.000000000000000327e-05,-1.000000000000000082e-05,-9.000000000000000567e-05,1.000000000000000082e-05,-3.799999999999999667e-04,3.799999999999999667e-04,1.000000000000000048e-04,2.999999999999999737e-05,6.000000000000000000e+00,2.300000000000000000e+01
5.374200000000000000e+04,4.000000000000000327e-05,-1.000000000000000082e-05,-9.000000000000000567e-05,1.000000000000000082e-05,-3.799999999999999667e-04,3.799999999999999667e-04,1.000000000000000048e-04,2.999999999999999737e-05,6.000000000000000000e+00,2.300000000000000000e+01
5.374300000000000000e+04,4.000000000000000327e-05,-1.000000000000000082e-05,-9.000000000000000567e-05,1.000000000000000082e-05,-3.799999999999999667e-04,3.799999999999999667e-04,1.000000000000000048e-04,2.999999999999999737e-05,6.000000000000000000e+00,2.300000000000000000e+01
5.374600000000000000e+04,4.000000000000000327e-05,-1.000000000000000082e-05,-9.000000000000000567e-05,1.000000000000000082e-05,-3.799999999999999667e-04,3.799999999999999667e-04,1.000000000000000048e-04,2.999999999999999737e-05,6.000000000000000000e+00,2.300000000000000000e+01
5.374700000000000000e+04,4.000000000000000327e-05,-1.000000000000000082e-05,-9.000000000000000567e-05,1.000000000000000082e-05,-3.799999999999999667e-04,3.799999999999999667e-04,1.000000000000000048e-04,2.999999999999999737e-05,6.000000000000000000e+00,2.300000000000000000e+01
5.374800000000000000e+04,4.000000000000000327e-05,-1.000000000000000082e-05,-9.000000000000000567e-05,1.000000000000000082e-05,-3.799999999999999667e-04,3.799999999999999667e-04,1.000000000000000048e-04,2.999999999999999737e-05,6.000000000000000000e+00,2.300000000000000000e+01
5.374900000000000000e+04,4.000000000000000327e-05,-1.000000000000000082e-05,-9.000000000000000567e-05,1.000000000000000082e-05,-3.799999999999999667e-04,3.799999999999999667e-04,1.000000000000000048e-04,2.999999999999999737e-05,6.000000000000000000e+00,2.300000000000000000e+01
5.375000000000000000e+04,4.000000000000000327e-05,-1.000000000000000082e-05,-9.000000000000000567e-05,1.000000000000000082e-05,-3.799999999999999667e-04,3.799999999999999667e-04,1.000000000000000048e-04,2.999999999999999737e-05,6.000000000000000000e+00,2.300000000000000000e+01
5.375100000000000000e+04,2.700000000000000035e-04,0.000000000000000000e+00,-4.000000000000000327e-05,-1.899999999999999834e-04,-3.399999999999999702e-04,5.999999999999999474e-05,1.699999999999999851e-04,6.999999999999999387e-05,6.000000000000000000e+00,2.300000000000000000e+01
5.375200000000000000e+04,2.700000000000000035e-04,0.000000000000000000e+00,-4.000000000000000327e-05,-1.899999999999999834e-04,-3.399999999999999702e-04,5.999999999999999474e-05,1.699999999999999851e-04,6.999999999999999387e-05,6.000000000000000000e+00,2.300000000000000000e+01
5.375300000000000000e+04,2.700000000000000035e-04,0.000000000000000000e+00,-4.000000000000000327e-05,-1.899999999999999834e-04,-3.399999999999999702e-04,5.999999999999999474e-05,1.699999999999999851e-04,6.999999999999999387e-05,6.000000000000000000e+00,2.300000000000000000e+01
5.375400000000000000e+04,2.700000000000000035e-04,0.000000000000000000e+00,-4.000000000000000327e-05,-1.899999999999999834e-04,-3.399999999999999702e-04,5.999999999999999474e-05,1.699999999999999851e-04,6.999999999999999387e-05,6.000000000000000000e+00,2.300000000000000000e+01
5.375500000000000000e+04,2.700000000000000035e-04,0.000000000000000000e+00,-4.000000000000000327e-05,-1.899999999999999834e-04,-3.399999999999999702e-04,5.999999999999999474e-05,1.699999999999999851e-04,6.999999999999999387e-05,6.000000000000000000e+00,2.300000000000000000e+01
5.375600000000000000e+04,2.700000000000000035e-04,0.000000000000000000e+00,-4.000000000000000327e-05,-1.899999999999999834e-04,-3.399999999999999702e-04,5.999999999999999474e-05,1.699999999999999851e-04,6.999999999999999387e-05,6.000000000000000000e+00,2.300000000000000000e+01
5.375700000000000000e+04,2.700000000000000035e-04,0.000000000000000000e+00,-4.000000000000000327e-05,-1.899999999999999834e-04,-3.399999999999999702e-04,5.999999999999999474e-05,1.699999999999999851e-04,6.999999999999999387e-05,6.000000000000000000e+00,2.300000000000000000e+01
5.375800000000000000e+04,2.700000000000000035e-04,0.000000000000000000e+00,-4.000000000000000327e-05,-1.899999999999999834e-04,-3.399999999999999702e-04,5.999999999999999474e-05,1.699999999999999851e-04,6.999999999999999387e-05,6.000000000000000000e+00,2.300000000000000000e+01
5.375900000000000000e+04,-6.999999999999999387e-05,5.999999999999999474e-05,1.100000000000000039e-04,4.200000000000000174e-04,8.900000000000000576e-04,-2.700000000000000035e-04,-1.100000000000000039e-04,1.000000000000000082e-05,6.000000000000000000e+00,2.300000000000000000e+01
5.376000000000000000e+04,-6.999999999999999387e-05,5.999999999999999474e-05,1.100000000000000039e-04,4.200000000000000174e-04,8.900000000000000576e-04,-2.700000000000000035e-04,-1.100000000000000039e-04,1.000000000000000082e-05,6.000000000000000000e+00,2.300000000000000000e+01
5.376100000000000000e+04,-6.999999999999999387e-05,5.999999999999999474e-05,1.100000000000000039e-04,4.200000000000000174e-04,8.900000000000000576e-04,-2.700000000000000035e-04,-1.100000000000000039e-04,1.000000000000000082e-05,6.000000000000000000e+00,2.300000000000000000e+01
5.376200000000000000e+04,-6.999999999999999387e-05,5.999999999999999474e-05,1.100000000000000039e-04,4.200000000000000174e-04,8.900000000000000576e-04,-2.700000000000000035e-04,-1.100000000000000039e-04,1.000000000000000082e-05,6.000000000000000000e+00,2.300000000000000000e+01
5.376300000000000000e+04,-6.999999999999999387e-05,5.999999999999999474e-05,1.100000000000000039e-04,4.200000000000000174e-04,8.900000000000000576e-04,-2.700000000000000035e-04,-1.100000000000000039e-04,1.000000000000000082e-05,6.000000000000000000e+00,2.300000000000000000e+01
5.376400000000000000e+04,-6.999999999999999387e-05,5.999999999999999474e-05,1.100000000000000039e-04,4.200000000000000174e-04,8.900000000000000576e-04,-2.700000000000000035e-04,-1.100000000000000039e-04,1.000000000000000082e-05,6.000000000000000000e+00,2.300000000000000000e+01
5.376500000000000000e+04,-6.999999999999999387e-05,5.999999999999999474e-05,1.100000000000000039e-04,4.200000000000000174e-04,8.900000000000000576e-04,-2.700000000000000035e-04,-1.100000000000000039e-04,1.000000000000000082e-05,6.000000000000000000e+00,2.300000000000000000e+01
5.376600000000000000e+04,-6.999999999999999387e-05,5.999999999999999474e-05,1.100000000000000039e-04,4.200000000000000174e-04,8.900000000000000576e-04,-2.700000000000000035e-04,-1.100000000000000039e-04,1.000000000000000082e-05,6.000000000000000000e+00,2.300000000000000000e+01
5.376700000000000000e+04,-6.999999999999999387e-05,5.999999999999999474e-05,1.100000000000000039e-04,4.200000000000000174e-04,8.900000000000000576e-04,-2.700000000000000035e-04,-1.100000000000000039e-04,1.000000000000000082e-05,6.000000000000000000e+00,2.300000000000000000e+01
5.376800000000000000e+04,-6.999999999999999387e-05,5.999999999999999474e-05,1.100000000000000039e-04,4.200000000000000174e-04,8.900000000000000576e-04,-2.700000000000000035e-04,-1.100000000000000039e-04,1.000000000000000082e-05,6.000000000000000000e+00,2.300000000000000000e+01
5.376900000000000000e+04,-6.999999999999999387e-05,5.999999999999999474e-05,1.100000000000000039e-04,4.200000000000000174e-04,8.900000000000000576e-04,-2.700000000000000035e-04,-1.100000000000000039e-04,1.000000000000000082e-05,6.000000000000000000e+00,2.300000000000000000e+01
5.377000000000000000e+04,-6.999999999999999387e-05,5.999999999999999474e-05,1.100000000000000039e-04,4.200000000000000174e-04,8.900000000000000576e-04,-2.700000000000000035e-04,-1.100000000000000039e-04,1.000000000000000082e-05,6.000000000000000000e+00,2.300000000000000000e+01
5.377100000000000000e+04,-6.999999999999999387e-05,5.999999999999999474e-05,1.100000000000000039e-04,4.200000000000000174e-04,8.900000000000000576e-04,-2.700000000000000035e-04,-1.100000000000000039e-04,1.000000000000000082e-05,6.000000000000000000e+00,2.300000000000000000e+01
5.377200000000000000e+04,-6.999999999999999387e-05,5.999999999999999474e-05,1.100000000000000039e-04,4.200000000000000174e-04,8.900000000000000576e-04,-2.700000000000000035e-04,-1.100000000000000039e-04,1.000000000000000082e-05,6.000000000000000000e+00,2.300000000000000000e+01
5.377300000000000000e+04,-6.999999999999999387e-05,5.999999999999999474e-05,1.100000000000000039e-04,4.200000000000000174e-04,8.900000000000000576e-04,-2.700000000000000035e-04,-1.100000000000000039e-04,1.000000000000000082e-05,6.000000000000000000e+00,2.300000000000000000e+01
5.377400000000000000e+04,-1.499999999999999869e-04,0.000000000000000000e+00,-4.000000000000000327e-05,-6.999999999999999387e-05,-1.000000000000000048e-04,-4.599999999999999597e-04,-2.999999999999999737e-05,-1.499999999999999869e-04,6.000000000000000000e+00,2.300000000000000000e+01
5.377500000000000000e+04,1.300000000000000157e-04,4.000000000000000327e-05,5.000000000000000240e-05,-8.000000000000000654e-05,-3.099999999999999999e-04,-1.399999999999999877e-04,1.000000000000000048e-04,-1.499999999999999869e-04,6.000000000000000000e+00,2.300000000000000000e+01
5.377600000000000000e+04,1.300000000000000157e-04,4.000000000000000327e-05,5.000000000000000240e-05,-8.000000000000000654e-05,-3.099999999999999999e-04,-1.399999999999999877e-04,1.000000000000000048e-04,-1.499999999999999869e-04,6.000000000000000000e+00,2.300000000000000000e+01
5.377700000000000000e+04,1.300000000000000157e-04,4.000000000000000327e-05,5.000000000000000240e-05,-8.000000000000000654e-05,-3.099999999999999999e-04,-1.399999999999999877e-04,1.000000000000000048e-04,-1.499999999999999869e-04,6.000000000000000000e+00,2.300000000000000000e+01
5.377800000000000000e+04,1.300000000000000157e-04,4.000000000000000327e-05,5.000000000000000240e-05,-8.000000000000000654e-05,-3.099999999999999999e-04,-1.399999999999999877e-04,1.000000000000000048e-04,-1.499999999999999869e-04,6.000000000000000000e+00,2.300000000000000000e+01
5.377900000000000000e+04,1.300000000000000157e-04,4.000000000000000327e-05,5.000000000000000240e-05,-8.000000000000000654e-05,-3.099999999999999999e-04,-1.399999999999999877e-04,1.000000000000000048e-04,-1.499999999999999869e-04,6.000000000000000000e+00,2.300000000000000000e+01
5.378000000000000000e+04,1.300000000000000157e-04,4.000000000000000327e-05,5.000000000000000240e-05,-8.000000000000000654e-05,-3.099999999999999999e-04,-1.399999999999999877e-04,1.000000000000000048e-04,-1.499999999999999869e-04,6.000000000000000000e+00,2.300000000000000000e+01
5.378100000000000000e+04,1.300000000000000157e-04,4.000000000000000327e-05,5.000000000000000240e-05,-8.000000000000000654e-05,-3.099999999999999999e-04,-1.399999999999999877e-04,1.000000000000000048e-04,-1.499999999999999869e-04,6.000000000000000000e+00,2.300000000000000000e+01
5.378200000000000000e+04,1.300000000000000157e-04,4.000000000000000327e-05,5.000000000000000240e-05,-8.000000000000000654e-05,-3.099999999999999999e-04,-1.399999999999999877e-04,1.000000000000000048e-04,-1.499999999999999869e-04,6.000000000000000000e+00,2.300000000000000000e+01
5.378300000000000000e+04,1.300000000000000157e-04,4.000000000000000327e-05,5.000000000000000240e-05,-8.000000000000000654e-05,-3.099999999999999999e-04,-1.399999999999999877e-04,1.000000000000000048e-04,-1.499999999999999869e-04,6.000000000000000000e+00,2.300000000000000000e+01
5.378400000000000000e+04,1.300000000000000157e-04,4.000000000000000327e-05,5.000000000000000240e-05,-8.000000000000000654e-05,-3.099999999999999999e-04,-1.399999999999999877e-04,1.000000000000000048e-04,-1.499999999999999869e-04,6.000000000000000000e+00,2.300000000000000000e+01
5.378500000000000000e+04,1.300000000000000157e-04,4.000000000000000327e-05,5.000000000000000240e-05,-8.000000000000000654e-05,-3.099999999999999999e-04,-1.399999999999999877e-04,1.000000000000000048e-04,-1.499999999999999869e-04,6.000000000000000000e+00,2.300000000000000000e+01
5.378600000000000000e+04,1.300000000000000157e-04,4.000000000000000327e-05,5.000000000000000240e-05,-8.000000000000000654e-05,-3.099999999999999999e-04,-1.399999999999999877e-04,1.000000000000000048e-04,-1.499999999999999869e-04,6.000000000000000000e+00,2.300000000000000000e+01
5.378700000000000000e+04,1.300000000000000157e-04,4.000000000000000327e-05,5.000000000000000240e-05,-8.000000000000000654e-05,-3.099999999999999999e-04,-1.399999999999999877e-04,1.000000000000000048e-04,-1.499999999999999869e-04,6.000000000000000000e+00,2.300000000000000000e+01
5.378800000000000000e+04,1.300000000000000157e-04,4.000000000000000327e-05,5.000000000000000240e-05,-8.000000000000000654e-05,-3.099999999999999999e-04,-1.399999999999999877e-04,1.000000000000000048e-04,-1.499999999999999869e-04,6.000000000000000000e+00,2.300000000000000000e+01
5.378900000000000000e+04,1.300000000000000157e-04,4.000000000000000327e-05,5.000000000000000240e-05,-8.000000000000000654e-05,-3.099999999999999999e-04,-1.399999999999999877e-04,1.000000000000000048e-04,-1.499999999999999869e-04,6.000000000000000000e+00,2.300000000000000000e+01
5.379000000000000000e+04,1.300000000000000157e-04,4.000000000000000327e-05,5.000000000000000240e-05,-8.000000000000000654e-05,-3.099999999999999999e-04,-1.399999999999999877e-04,1.000000000000000048e-04,-1.499999999999999869e-04,6.000000000000000000e+00,2.300000000000000000e+01
5.379200000000000000e+04,1.300000000000000157e-04,4.000000000000000327e-05,5.000000000000000240e-05,-8.000000000000000654e-05,-3.099999999999999999e-04,-1.399999999999999877e-04,1.000000000000000048e-04,-1.499999999999999869e-04,6.000000000000000000e+00,2.300000000000000000e+01
5.379300000000000000e+04,1.300000000000000157e-04,4.000000000000000327e-05,5.000000000000000240e-05,-8.000000000000000654e-05,-3.099999999999999999e-04,-1.399999999999999877e-04,1.000000000000000048e-04,-1.499999999999999869e-04,6.000000000000000000e+00,2.300000000000000000e+01
5.379400000000000000e+04,1.300000000000000157e-04,4.000000000000000327e-05,5.000000000000000240e-05,-8.000000000000000654e-05,-3.099999999999999999e-04,-1.399999999999999877e-04,1.000000000000000048e-04,-1.499999999999999869e-04,6.000000000000000000e+00,2.300000000000000000e+01
5.379500000000000000e+04,1.300000000000000157e-04,4.000000000000000327e-05,5.000000000000000240e-05,-8.000000000000000654e-05,-3.099999999999999999e-04,-1.399999999999999877e-04,1.000000000000000048e-04,-1.499999999999999869e-04,6.000000000000000000e+00,2.300000000000000000e+01
5.379600000000000000e+04,1.300000000000000157e-04,4.000000000000000327e-05,5.000000000000000240e-05,-8.000000000000000654e-05,-3.099999999999999999e-04,-1.399999999999999877e-04,1.000000000000000048e-04,-1.499999999999999869e-04,6.000000000000000000e+00,2.300000000000000000e+01
5.379700000000000000e+04,1.399999999999999877e-04,2.999999999999999737e-05,2.000000000000000164e-05,-1.000000000000000048e-04,-3.099999999999999999e-04,3.099999999999999999e-04,1.399999999999999877e-04,-1.000000000000000082e-05,6.000000000000000000e+00,2.300000000000000000e+01
5.379800000000000000e+04,4.000000000000000327e-05,4.000000000000000327e-05,9.000000000000000567e-05,1.399999999999999877e-04,-5.000000000000000240e-05,3.499999999999999964e-04,-5.000000000000000240e-05,3.399999999999999702e-04,6.000000000000000000e+00,2.300000000000000000e+01
5.379900000000000000e+04,4.000000000000000327e-05,4.000000000000000327e-05,9.000000000000000567e-05,1.399999999999999877e-04,-5.000000000000000240e-05,3.499999999999999964e-04,-5.000000000000000240e-05,3.399999999999999702e-04,6.000000000000000000e+00,2.300000000000000000e+01
5.380000000000000000e+04,4.000000000000000327e-05,4.000000000000000327e-05,9.000000000000000567e-05,1.399999999999999877e-04,-5.000000000000000240e-05,3.499999999999999964e-04,-5.000000000000000240e-05,3.399999999999999702e-04,6.000000000000000000e+00,2.300000000000000000e+01
5.380100000000000000e+04,4.000000000000000327e-05,4.000000000000000327e-05,9.000000000000000567e-05,1.399999999999999877e-04,-5.000000000000000240e-05,3.499999999999999964e-04,-5.000000000000000240e-05,3.399999999999999702e-04,6.000000000000000000e+00,2.300000000000000000e+01
5.380200000000000000e+04,4.000000000000000327e-05,4.000000000000000327e-05,9.000000000000000567e-05,1.399999999999999877e-04,-5.000000000000000240e-05,3.499999999999999964e-04,-5.000000000000000240e-05,3.399999999999999702e-04,6.000000000000000000e+00,2.300000000000000000e+01
5.380300000000000000e+04,4.000000000000000327e-05,4.000000000000000327e-05,9.000000000000000567e-05,1.399999999999999877e-04,-5.000000000000000240e-05,3.499999999999999964e-04,-5.000000000000000240e-05,3.399999999999999702e-04,6.000000000000000000e+00,2.300000000000000000e+01
5.380400000000000000e+04,4.000000000000000327e-05,4.000000000000000327e-05,9.000000000000000567e-05,1.399999999999999877e-04,-5.000000000000000240e-05,3.499999999999999964e-04,-5.000000000000000240e-05,3.399999999999999702e-04,6.000000000000000000e+00,2.300000000000000000e+01
5.380500000000000000e+04,4.000000000000000327e-05,4.000000000000000327e-05,9.000000000000000567e-05,1.399999999999999877e-04,-5.000000000000000240e-05,3.499999999999999964e-04,-5.000000000000000240e-05,3.399999999999999702e-04,6.000000000000000000e+00,2.300000000000000000e+01
5.380600000000000000e+04,4.000000000000000327e-05,4.000000000000000327e-05,9.000000000000000567e-05,1.399999999999999877e-04,-5.000000000000000240e-05,3.499999999999999964e-04,-5.000000000000000240e-05,3.399999999999999702e-04,6.000000000000000000e+00,2.300000000000000000e+01
5.380700000000000000e+04,4.000000000000000327e-05,4.000000000000000327e-05,9.000000000000000567e-05,1.399999999999999877e-04,-5.000000000000000240e-05,3.499999999999999964e-04,-5.000000000000000240e-05,3.399999999999999702e-04,6.000000000000000000e+00,2.300000000000000000e+01
5.380800000000000000e+04,4.000000000000000327e-05,4.000000000000000327e-05,9.000000000000000567e-05,1.399999999999999877e-04,-5.000000000000000240e-05,3.499999999999999964e-04,-5.000000000000000240e-05,3.399999999999999702e-04,6.000000000000000000e+00,2.300000000000000000e+01
5.380900000000000000e+04,4.000000000000000327e-05,4.000000000000000327e-05,9.000000000000000567e-05,1.399999999999999877e-04,-5.000000000000000240e-05,3.499999999999999964e-04,-5.000000000000000240e-05,3.399999999999999702e-04,6.000000000000000000e+00,2.300000000000000000e+01
5.381000000000000000e+04,4.000000000000000327e-05,4.000000000000000327e-05,9.000000000000000567e-05,1.399999999999999877e-04,-5.000000000000000240e-05,3.499999999999999964e-04,-5.000000000000000240e-05,3.399999999999999702e-04,6.000000000000000000e+00,2.300000000000000000e+01
5.381100000000000000e+04,-6.799999999999999404e-04,-1.699999999999999851e-04,-8.000000000000000654e-05,1.499999999999999869e-04,-1.499999999999999869e-04,-2.000000000000000164e-05,-2.200000000000000078e-04,-4.200000000000000174e-04,6.000000000000000000e+00,2.300000000000000000e+01
5.381200000000000000e+04,-6.799999999999999404e-04,-1.699999999999999851e-04,-8.000000000000000654e-05,1.499999999999999869e-04,-1.499999999999999869e-04,-2.000000000000000164e-05,-2.200000000000000078e-04,-4.200000000000000174e-04,6.000000000000000000e+00,2.300000000000000000e+01
5.381300000000000000e+04,-6.799999999999999404e-04,-1.699999999999999851e-04,-8.000000000000000654e-05,1.499999999999999869e-04,-1.499999999999999869e-04,-2.000000000000000164e-05,-2.200000000000000078e-04,-4.200000000000000174e-04,6.000000000000000000e+00,2.300000000000000000e+01
5.381400000000000000e+04,-6.799999999999999404e-04,-1.699999999999999851e-04,-8.000000000000000654e-05,1.499999999999999869e-04,-1.499999999999999869e-04,-2.000000000000000164e-05,-2.200000000000000078e-04,-4.200000000000000174e-04,6.000000000000000000e+00,2.300000000000000000e+01
5.381500000000000000e+04,-6.799999999999999404e-04,-1.699999999999999851e-04,-8.000000000000000654e-05,1.499999999999999869e-04,-1.499999999999999869e-04,-2.000000000000000164e-05,-2.200000000000000078e-04,-4.200000000000000174e-04,6.000000000000000000e+00,2.300000000000000000e+01
5.381600000000000000e+04,-6.799999999999999404e-04,-1.699999999999999851e-04,-8.000000000000000654e-05,1.499999999999999869e-04,-1.499999999999999869e-04,-2.000000000000000164e-05,-2.200000000000000078e-04,-4.200000000000000174e-04,6.000000000000000000e+00,2.300000000000000000e+01
5.381700000000000000e+04,-6.799999999999999404e-04,-1.699999999999999851e-04,-8.000000000000000654e-05,1.499999999999999869e-04,-1.499999999999999869e-04,-2.000000000000000164e-05,-2.200000000000000078e-04,-4.200000000000000174e-04,6.000000000000000000e+00,2.300000000000000000e+01
5.381800000000000000e+04,-6.799999999999999404e-04,-1.699999999999999851e-04,-8.000000000000000654e-05,1.499999999999999869e-04,-1.499999999999999869e-04,-2.000000000000000164e-05,-2.200000000000000078e-04,-4.200000000000000174e-04,6.000000000000000000e+00,2.300000000000000000e+01
5.381900000000000000e+04,1.600000000000000131e-04,-1.000000000000000082e-05,2.999999999999999737e-05,1.000000000000000048e-04,-1.699999999999999851e-04,1.899999999999999834e-04,-1.100000000000000039e-04,-5.000000000000000240e-05,6.000000000000000000e+00,2.300000000000000000e+01
5.382000000000000000e+04,1.600000000000000131e-04,-1.000000000000000082e-05,2.999999999999999737e-05,1.000000000000000048e-04,-1.699999999999999851e-04,1.899999999999999834e-04,-1.100000000000000039e-04,-5.000000000000000240e-05,6.000000000000000000e+00,2.300000000000000000e+01
5.382100000000000000e+04,1.600000000000000131e-04,-1.000000000000000082e-05,2.999999999999999737e-05,1.000000000000000048e-04,-1.699999999999999851e-04,1.899999999999999834e-04,-1.100000000000000039e-04,-5.000000000000000240e-05,6.000000000000000000e+00,2.300000000000000000e+01
5.382200000000000000e+04,1.600000000000000131e-04,-1.000000000000000082e-05,2.999999999999999737e-05,1.000000000000000048e-04,-1.699999999999999851e-04,1.899999999999999834e-04,-1.100000000000000039e-04,-5.000000000000000240e-05,6.000000000000000000e+00,2.300000000000000000e+01
5.382300000000000000e+04,1.600000000000000131e-04,-1.000000000000000082e-05,2.999999999999999737e-05,1.000000000000000048e-04,-1.699999999999999851e-04,1.899999999999999834e-04,-1.100000000000000039e-04,-5.000000000000000240e-05,6.000000000000000000e+00,2.300000000000000000e+01
5.382400000000000000e+04,1.600000000000000131e-04,-1.000000000000000082e-05,2.999999999999999737e-05,1.000000000000000048e-04,-1.699999999999999851e-04,1.899999999999999834e-04,-1.100000000000000039e-04,-5.000000000000000240e-05,6.000000000000000000e+00,2.300000000000000000e+01
5.382500000000000000e+04,1.600000000000000131e-04,-1.000000000000000082e-05,2.999999999999999737e-05,1.000000000000000048e-04,-1.699999999999999851e-04,1.899999999999999834e-04,-1.100000000000000039e-04,-5.000000000000000240e-05,6.000000000000000000e+00,2.300000000000000000e+01
5.382600000000000000e+04,1.600000000000000131e-04,-1.000000000000000082e-05,2.999999999999999737e-05,1.000000000000000048e-04,-1.699999999999999851e-04,1.899999999999999834e-04,-1.100000000000000039e-04,-5.000000000000000240e-05,6.000000000000000000e+00,2.300000000000000000e+01
5.382700000000000000e+04,1.600000000000000131e-04,-1.000000000000000082e-05,2.999999999999999737e-05,1.000000000000000048e-04,-1.699999999999999851e-04,1.899999999999999834e-04,-1.100000000000000039e-04,-5.000000000000000240e-05,6.000000000000000000e+00,2.300000000000000000e+01
5.382800000000000000e+04,1.600000000000000131e-04,-1.000000000000000082e-05,2.999999999999999737e-05,1.000000000000000048e-04,-1.699999999999999851e-04,1.899999999999999834e-04,-1.100000000000000039e-04,-5.000000000000000240e-05,6.000000000000000000e+00,2.300000000000000000e+01
5.382900000000000000e+04,1.600000000000000131e-04,-1.000000000000000082e-05,2.999999999999999737e-05,1.000000000000000048e-04,-1.699999999999999851e-04,1.899999999999999834e-04,-1.100000000000000039e-04,-5.000000000000000240e-05,6.000000000000000000e+00,2.300000000000000000e+01
5.383000000000000000e+04,1.600000000000000131e-04,-1.000000000000000082e-05,2.999999999999999737e-05,1.000000000000000048e-04,-1.699999999999999851e-04,1.899999999999999834e-04,-1.100000000000000039e-04,-5.000000000000000240e-05,6.000000000000000000e+00,2.300000000000000000e+01
5.383100000000000000e+04,1.600000000000000131e-04,-1.000000000000000082e-05,2.999999999999999737e-05,1.000000000000000048e-04,-1.699999999999999851e-04,1.899999999999999834e-04,-1.100000000000000039e-04,-5.000000000000000240e-05,6.000000000000000000e+00,2.300000000000000000e+01
5.383200000000000000e+04,1.600000000000000131e-04,-1.000000000000000082e-05,2.999999999999999737e-05,1.000000000000000048e-04,-1.699999999999999851e-04,1.899999999999999834e-04,-1.100000000000000039e-04,-5.000000000000000240e-05,6.000000000000000000e+00,2.300000000000000000e+01
5.383300000000000000e+04,1.600000000000000131e-04,-1.000000000000000082e-05,2.999999999999999737e-05,1.000000000000000048e-04,-1.699999999999999851e-04,1.899999999999999834e-04,-1.100000000000000039e-04,-5.000000000000000240e-05,6.000000000000000000e+00,2.300000000000000000e+01
5.383400000000000000e+04,2.299999999999999799e-04,-2.000000000000000164e-05,0.000000000000000000e+00,2.999999999999999737e-05,4.700000000000000401e-04,6.900000000000000751e-04,1.300000000000000157e-04,1.300000000000000157e-04,6.000000000000000000e+00,2.300000000000000000e+01
5.383500000000000000e+04,-3.399999999999999702e-04,-2.999999999999999737e-05,1.000000000000000082e-05,4.000000000000000327e-05,1.899999999999999834e-04,4.700000000000000401e-04,2.600000000000000314e-04,5.099999999999999282e-04,6.000000000000000000e+00,2.300000000000000000e+01
5.383600000000000000e+04,-3.399999999999999702e-04,-2.999999999999999737e-05,1.000000000000000082e-05,4.000000000000000327e-05,1.899999999999999834e-04,4.700000000000000401e-04,2.600000000000000314e-04,5.099999999999999282e-04,6.000000000000000000e+00,2.300000000000000000e+01
5.383700000000000000e+04,-3.399999999999999702e-04,-2.999999999999999737e-05,1.000000000000000082e-05,4.000000000000000327e-05,1.899999999999999834e-04,4.700000000000000401e-04,2.600000000000000314e-04,5.099999999999999282e-04,6.000000000000000000e+00,2.300000000000000000e+01
