2.416800000000000000e+04,-2.000000000000000096e-04,-1.300000000000000157e-04,-1.000000000000000048e-04,-2.100000000000000087e-04,-1.100000000000000039e-04,-5.999999999999999474e-05,5.000000000000000240e-05,-1.000000000000000082e-05,5.000000000000000000e+00,9.000000000000000000e+00
2.416900000000000000e+04,1.600000000000000131e-04,6.999999999999999387e-05,1.000000000000000082e-05,1.300000000000000157e-04,3.699999999999999947e-04,-4.000000000000000327e-05,1.000000000000000082e-05,1.000000000000000082e-05,5.000000000000000000e+00,9.000000000000000000e+00
2.417000000000000000e+04,1.600000000000000131e-04,6.999999999999999387e-05,1.000000000000000082e-05,1.300000000000000157e-04,3.699999999999999947e-04,-4.000000000000000327e-05,1.000000000000000082e-05,1.000000000000000082e-05,5.000000000000000000e+00,9.000000000000000000e+00
2.417100000000000000e+04,1.600000000000000131e-04,6.999999999999999387e-05,1.000000000000000082e-05,1.300000000000000157e-04,3.699999999999999947e-04,-4.000000000000000327e-05,1.000000000000000082e-05,1.000000000000000082e-05,5.000000000000000000e+00,9.000000000000000000e+00
2.417200000000000000e+04,1.600000000000000131e-04,6.999999999999999387e-05,1.000000000000000082e-05,1.300000000000000157e-04,3.699999999999999947e-04,-4.000000000000000327e-05,1.000000000000000082e-05,1.000000000000000082e-05,5.000000000000000000e+00,9.000000000000000000e+00
2.417300000000000000e+04,1.600000000000000131e-04,6.999999999999999387e-05,1.000000000000000082e-05,1.300000000000000157e-04,3.699999999999999947e-04,-4.000000000000000327e-05,1.000000000000000082e-05,1.000000000000000082e-05,5.000000000000000000e+00,9.000000000000000000e+00
2.417400000000000000e+04,1.600000000000000131e-04,6.999999999999999387e-05,1.000000000000000082e-05,1.300000000000000157e-04,3.699999999999999947e-04,-4.000000000000000327e-05,1.000000000000000082e-05,1.000000000000000082e-05,5.000000000000000000e+00,9.000000000000000000e+00
2.417500000000000000e+04,1.600000000000000131e-04,6.999999999999999387e-05,1.000000000000000082e-05,1.300000000000000157e-04,3.699999999999999947e-04,-4.000000000000000327e-05,1.000000000000000082e-05,1.000000000000000082e-05,5.000000000000000000e+00,9.000000000000000000e+00
2.417600000000000000e+04,1.600000000000000131e-04,6.999999999999999387e-05,1.000000000000000082e-05,1.300000000000000157e-04,3.699999999999999947e-04,-4.000000000000000327e-05,1.000000000000000082e-05,1.000000000000000082e-05,5.000000000000000000e+00,9.000000000000000000e+00
2.417700000000000000e+04,1.600000000000000131e-04,6.999999999999999387e-05,1.000000000000000082e-05,1.300000000000000157e-04,3.699999999999999947e-04,-4.000000000000000327e-05,1.000000000000000082e-05,1.000000000000000082e-05,5.000000000000000000e+00,9.000000000000000000e+00
2.417800000000000000e+04,1.600000000000000131e-04,6.999999999999999387e-05,1.000000000000000082e-05,1.300000000000000157e-04,3.699999999999999947e-04,-4.000000000000000327e-05,1.000000000000000082e-05,1.000000000000000082e-05,5.000000000000000000e+00,9.000000000000000000e+00
2.417900000000000000e+04,1.600000000000000131e-04,6.999999999999999387e-05,1.000000000000000082e-05,1.300000000000000157e-04,3.699999999999999947e-04,-4.000000000000000327e-05,1.000000000000000082e-05,1.000000000000000082e-05,5.000000000000000000e+00,9.000000000000000000e+00
2.418000000000000000e+04,1.600000000000000131e-04,6.999999999999999387e-05,1.000000000000000082e-05,1.300000000000000157e-04,3.699999999999999947e-04,-4.000000000000000327e-05,1.000000000000000082e-05,1.000000000000000082e-05,5.000000000000000000e+00,9.000000000000000000e+00
2.418100000000000000e+04,1.600000000000000131e-04,6.999999999999999387e-05,1.000000000000000082e-05,1.300000000000000157e-04,3.699999999999999947e-04,-4.000000000000000327e-05,1.000000000000000082e-05,1.000000000000000082e-05,5.000000000000000000e+00,9.000000000000000000e+00
2.418200000000000000e+04,1.600000000000000131e-04,6.999999999999999387e-05,1.000000000000000082e-05,1.300000000000000157e-04,3.699999999999999947e-04,-4.000000000000000327e-05,1.000000000000000082e-05,1.000000000000000082e-05,5.000000000000000000e+00,9.000000000000000000e+00
2.418300000000000000e+04,1.600000000000000131e-04,6.999999999999999387e-05,1.000000000000000082e-05,1.300000000000000157e-04,3.699999999999999947e-04,-4.000000000000000327e-05,1.000000000000000082e-05,1.000000000000000082e-05,5.000000000000000000e+00,9.000000000000000000e+00
2.418400000000000000e+04,1.600000000000000131e-04,6.999999999999999387e-05,1.000000000000000082e-05,1.300000000000000157e-04,3.699999999999999947e-04,-4.000000000000000327e-05,1.000000000000000082e-05,1.000000000000000082e-05,5.000000000000000000e+00,9.000000000000000000e+00
2.418500000000000000e+04,1.600000000000000131e-04,6.999999999999999387e-05,1.000000000000000082e-05,1.300000000000000157e-04,3.699999999999999947e-04,-4.000000000000000327e-05,1.000000000000000082e-05,1.000000000000000082e-05,5.000000000000000000e+00,9.000000000000000000e+00
2.418600000000000000e+04,1.600000000000000131e-04,6.999999999999999387e-05,1.000000000000000082e-05,1.300000000000000157e-04,3.699999999999999947e-04,-4.000000000000000327e-05,1.000000000000000082e-05,1.000000000000000082e-05,5.000000000000000000e+00,9.000000000000000000e+00
2.418900000000000000e+04,-1.499999999999999869e-04,-1.000000000000000048e-04,-1.499999999999999869e-04,-4.400000000000000157e-04,-6.199999999999999999e-04,-2.500000000000000052e-04,-1.000000000000000048e-04,-8.000000000000000654e-05,5.000000000000000000e+00,9.000000000000000000e+00
2.419000000000000000e+04,9.000000000000000567e-05,4.000000000000000327e-05,1.300000000000000157e-04,4.200000000000000174e-04,5.500000000000000331e-04,1.600000000000000131e-04,1.000000000000000082e-05,-1.000000000000000082e-05,5.000000000000000000e+00,9.000000000000000000e+00
2.419100000000000000e+04,9.000000000000000567e-05,4.000000000000000327e-05,1.300000000000000157e-04,4.200000000000000174e-04,5.500000000000000331e-04,1.600000000000000131e-04,1.000000000000000082e-05,-1.000000000000000082e-05,5.000000000000000000e+00,9.000000000000000000e+00
2.419200000000000000e+04,-1.300000000000000157e-04,-5.999999999999999474e-05,2.999999999999999737e-05,-1.600000000000000131e-04,2.600000000000000314e-04,1.000000000000000048e-04,1.000000000000000082e-05,1.000000000000000082e-05,5.000000000000000000e+00,9.000000000000000000e+00
2.419300000000000000e+04,-1.300000000000000157e-04,-5.999999999999999474e-05,2.999999999999999737e-05,-1.600000000000000131e-04,2.600000000000000314e-04,1.000000000000000048e-04,1.000000000000000082e-05,1.000000000000000082e-05,5.000000000000000000e+00,9.000000000000000000e+00
2.419400000000000000e+04,-1.300000000000000157e-04,-5.999999999999999474e-05,2.999999999999999737e-05,-1.600000000000000131e-04,2.600000000000000314e-04,1.000000000000000048e-04,1.000000000000000082e-05,1.000000000000000082e-05,5.000000000000000000e+00,9.000000000000000000e+00
2.419500000000000000e+04,-1.300000000000000157e-04,-5.999999999999999474e-05,2.999999999999999737e-05,-1.600000000000000131e-04,2.600000000000000314e-04,1.000000000000000048e-04,1.000000000000000082e-05,1.000000000000000082e-05,5.000000000000000000e+00,9.000000000000000000e+00
2.419600000000000000e+04,-1.300000000000000157e-04,-5.999999999999999474e-05,2.999999999999999737e-05,-1.600000000000000131e-04,2.600000000000000314e-04,1.000000000000000048e-04,1.000000000000000082e-05,1.000000000000000082e-05,5.000000000000000000e+00,9.000000000000000000e+00
2.419700000000000000e+04,-1.300000000000000157e-04,-5.999999999999999474e-05,2.999999999999999737e-05,-1.600000000000000131e-04,2.600000000000000314e-04,1.000000000000000048e-04,1.000000000000000082e-05,1.000000000000000082e-05,5.000000000000000000e+00,9.000000000000000000e+00
2.419800000000000000e+04,-1.300000000000000157e-04,-5.999999999999999474e-05,2.999999999999999737e-05,-1.600000000000000131e-04,2.600000000000000314e-04,1.000000000000000048e-04,1.000000000000000082e-05,1.000000000000000082e-05,5.000000000000000000e+00,9.000000000000000000e+00
2.419900000000000000e+04,-1.300000000000000157e-04,-5.999999999999999474e-05,2.999999999999999737e-05,-1.600000000000000131e-04,2.600000000000000314e-04,1.000000000000000048e-04,1.000000000000000082e-05,1.000000000000000082e-05,5.000000000000000000e+00,9.000000000000000000e+00
2.420000000000000000e+04,-1.300000000000000157e-04,-5.999999999999999474e-05,2.999999999999999737e-05,-1.600000000000000131e-04,2.600000000000000314e-04,1.000000000000000048e-04,1.000000000000000082e-05,1.000000000000000082e-05,5.000000000000000000e+00,9.000000000000000000e+00
2.420100000000000000e+04,-1.300000000000000157e-04,-5.999999999999999474e-05,2.999999999999999737e-05,-1.600000000000000131e-04,2.600000000000000314e-04,1.000000000000000048e-04,1.000000000000000082e-05,1.000000000000000082e-05,5.000000000000000000e+00,9.000000000000000000e+00
2.420200000000000000e+04,-1.300000000000000157e-04,-5.999999999999999474e-05,2.999999999999999737e-05,-1.600000000000000131e-04,2.600000000000000314e-04,1.000000000000000048e-04,1.000000000000000082e-05,1.000000000000000082e-05,5.000000000000000000e+00,9.000000000000000000e+00
2.420300000000000000e+04,-1.300000000000000157e-04,-5.999999999999999474e-05,2.999999999999999737e-05,-1.600000000000000131e-04,2.600000000000000314e-04,1.000000000000000048e-04,1.000000000000000082e-05,1.000000000000000082e-05,5.000000000000000000e+00,9.000000000000000000e+00
2.420400000000000000e+04,-1.300000000000000157e-04,-5.999999999999999474e-05,2.999999999999999737e-05,-1.600000000000000131e-04,2.600000000000000314e-04,1.000000000000000048e-04,1.000000000000000082e-05,1.000000000000000082e-05,5.000000000000000000e+00,9.000000000000000000e+00
2.420500000000000000e+04,-1.300000000000000157e-04,-5.999999999999999474e-05,2.999999999999999737e-05,-1.600000000000000131e-04,2.600000000000000314e-04,1.000000000000000048e-04,1.000000000000000082e-05,1.000000000000000082e-05,5.000000000000000000e+00,9.000000000000000000e+00
2.420600000000000000e+04,-1.300000000000000157e-04,-5.999999999999999474e-05,2.999999999999999737e-05,-1.600000000000000131e-04,2.600000000000000314e-04,1.000000000000000048e-04,1.000000000000000082e-05,1.000000000000000082e-05,5.000000000000000000e+00,9.000000000000000000e+00
2.420700000000000000e+04,-1.300000000000000157e-04,-5.999999999999999474e-05,2.999999999999999737e-05,-1.600000000000000131e-04,2.600000000000000314e-04,1.000000000000000048e-04,1.000000000000000082e-05,1.000000000000000082e-05,5.000000000000000000e+00,9.000000000000000000e+00
2.420800000000000000e+04,-1.300000000000000157e-04,-5.999999999999999474e-05,2.999999999999999737e-05,-1.600000000000000131e-04,2.600000000000000314e-04,1.000000000000000048e-04,1.000000000000000082e-05,1.000000000000000082e-05,5.000000000000000000e+00,9.000000000000000000e+00
2.420900000000000000e+04,-1.300000000000000157e-04,-5.999999999999999474e-05,2.999999999999999737e-05,-1.600000000000000131e-04,2.600000000000000314e-04,1.000000000000000048e-04,1.000000000000000082e-05,1.000000000000000082e-05,5.000000000000000000e+00,9.000000000000000000e+00
2.421000000000000000e+04,-1.300000000000000157e-04,-5.999999999999999474e-05,2.999999999999999737e-05,-1.600000000000000131e-04,2.600000000000000314e-04,1.000000000000000048e-04,1.000000000000000082e-05,1.000000000000000082e-05,5.000000000000000000e+00,9.000000000000000000e+00
2.421100000000000000e+04,-1.300000000000000157e-04,-5.999999999999999474e-05,2.999999999999999737e-05,-1.600000000000000131e-04,2.600000000000000314e-04,1.000000000000000048e-04,1.000000000000000082e-05,1.000000000000000082e-05,5.000000000000000000e+00,9.000000000000000000e+00
2.421200000000000000e+04,4.000000000000000327e-05,5.000000000000000240e-05,5.000000000000000240e-05,1.000000000000000082e-05,5.000000000000000240e-05,-1.100000000000000039e-04,-2.000000000000000164e-05,2.999999999999999737e-05,5.000000000000000000e+00,9.000000000000000000e+00
2.421300000000000000e+04,1.000000000000000048e-04,9.000000000000000567e-05,9.000000000000000567e-05,2.399999999999999790e-04,4.000000000000000192e-04,2.000000000000000164e-05,-6.999999999999999387e-05,-2.000000000000000164e-05,5.000000000000000000e+00,9.000000000000000000e+00
2.421400000000000000e+04,1.000000000000000048e-04,9.000000000000000567e-05,9.000000000000000567e-05,2.399999999999999790e-04,4.000000000000000192e-04,2.000000000000000164e-05,-6.999999999999999387e-05,-2.000000000000000164e-05,5.000000000000000000e+00,9.000000000000000000e+00
2.421500000000000000e+04,1.000000000000000048e-04,9.000000000000000567e-05,9.000000000000000567e-05,2.399999999999999790e-04,4.000000000000000192e-04,2.000000000000000164e-05,-6.999999999999999387e-05,-2.000000000000000164e-05,5.000000000000000000e+00,9.000000000000000000e+00
2.421600000000000000e+04,1.000000000000000048e-04,9.000000000000000567e-05,9.000000000000000567e-05,2.399999999999999790e-04,4.000000000000000192e-04,2.000000000000000164e-05,-6.999999999999999387e-05,-2.000000000000000164e-05,5.000000000000000000e+00,9.000000000000000000e+00
2.421700000000000000e+04,1.000000000000000048e-04,9.000000000000000567e-05,9.000000000000000567e-05,2.399999999999999790e-04,4.000000000000000192e-04,2.000000000000000164e-05,-6.999999999999999387e-05,-2.000000000000000164e-05,5.000000000000000000e+00,9.000000000000000000e+00
2.421800000000000000e+04,1.000000000000000048e-04,9.000000000000000567e-05,9.000000000000000567e-05,2.399999999999999790e-04,4.000000000000000192e-04,2.000000000000000164e-05,-6.999999999999999387e-05,-2.000000000000000164e-05,5.000000000000000000e+00,9.000000000000000000e+00
2.421900000000000000e+04,1.000000000000000048e-04,9.000000000000000567e-05,9.000000000000000567e-05,2.399999999999999790e-04,4.000000000000000192e-04,2.000000000000000164e-05,-6.999999999999999387e-05,-2.000000000000000164e-05,5.000000000000000000e+00,9.000000000000000000e+00
2.422000000000000000e+04,1.000000000000000048e-04,9.000000000000000567e-05,9.000000000000000567e-05,2.399999999999999790e-04,4.000000000000000192e-04,2.000000000000000164e-05,-6.999999999999999387e-05,-2.000000000000000164e-05,5.000000000000000000e+00,9.000000000000000000e+00
2.422100000000000000e+04,1.000000000000000048e-04,9.000000000000000567e-05,9.000000000000000567e-05,2.399999999999999790e-04,4.000000000000000192e-04,2.000000000000000164e-05,-6.999999999999999387e-05,-2.000000000000000164e-05,5.000000000000000000e+00,9.000000000000000000e+00
2.422200000000000000e+04,1.000000000000000048e-04,9.000000000000000567e-05,9.000000000000000567e-05,2.399999999999999790e-04,4.000000000000000192e-04,2.000000000000000164e-05,-6.999999999999999387e-05,-2.000000000000000164e-05,5.000000000000000000e+00,9.000000000000000000e+00
2.422300000000000000e+04,1.000000000000000048e-04,9.000000000000000567e-05,9.000000000000000567e-05,2.399999999999999790e-04,4.000000000000000192e-04,2.000000000000000164e-05,-6.999999999999999387e-05,-2.000000000000000164e-05,5.000000000000000000e+00,9.000000000000000000e+00
2.422400000000000000e+04,1.000000000000000048e-04,9.000000000000000567e-05,9.000000000000000567e-05,2.399999999999999790e-04,4.000000000000000192e-04,2.000000000000000164e-05,-6.999999999999999387e-05,-2.000000000000000164e-05,5.000000000000000000e+00,9.000000000000000000e+00
2.422500000000000000e+04,1.000000000000000048e-04,9.000000000000000567e-05,9.000000000000000567e-05,2.399999999999999790e-04,4.000000000000000192e-04,2.000000000000000164e-05,-6.999999999999999387e-05,-2.000000000000000164e-05,5.000000000000000000e+00,9.000000000000000000e+00
2.422600000000000000e+04,4.000000000000000327e-05,-1.000000000000000082e-05,-1.300000000000000157e-04,-4.799999999999999580e-04,-8.000000000000000654e-05,-1.199999999999999895e-04,2.000000000000000164e-05,0.000000000000000000e+00,5.000000000000000000e+00,9.000000000000000000e+00
2.422700000000000000e+04,4.000000000000000327e-05,-1.000000000000000082e-05,-1.300000000000000157e-04,-4.799999999999999580e-04,-8.000000000000000654e-05,-1.199999999999999895e-04,2.000000000000000164e-05,0.000000000000000000e+00,5.000000000000000000e+00,9.000000000000000000e+00
2.422800000000000000e+04,4.000000000000000327e-05,-1.000000000000000082e-05,-1.300000000000000157e-04,-4.799999999999999580e-04,-8.000000000000000654e-05,-1.199999999999999895e-04,2.000000000000000164e-05,0.000000000000000000e+00,5.000000000000000000e+00,9.000000000000000000e+00
2.422900000000000000e+04,4.000000000000000327e-05,-1.000000000000000082e-05,-1.300000000000000157e-04,-4.799999999999999580e-04,-8.000000000000000654e-05,-1.199999999999999895e-04,2.000000000000000164e-05,0.000000000000000000e+00,5.000000000000000000e+00,9.000000000000000000e+00
2.423000000000000000e+04,4.000000000000000327e-05,-1.000000000000000082e-05,-1.300000000000000157e-04,-4.799999999999999580e-04,-8.000000000000000654e-05,-1.199999999999999895e-04,2.000000000000000164e-05,0.000000000000000000e+00,5.000000000000000000e+00,9.000000000000000000e+00
2.423100000000000000e+04,4.000000000000000327e-05,-1.000000000000000082e-05,-1.300000000000000157e-04,-4.799999999999999580e-04,-8.000000000000000654e-05,-1.199999999999999895e-04,2.000000000000000164e-05,0.000000000000000000e+00,5.000000000000000000e+00,9.000000000000000000e+00
2.423200000000000000e+04,4.000000000000000327e-05,-1.000000000000000082e-05,-1.300000000000000157e-04,-4.799999999999999580e-04,-8.000000000000000654e-05,-1.199999999999999895e-04,2.000000000000000164e-05,0.000000000000000000e+00,5.000000000000000000e+00,9.000000000000000000e+00
2.423300000000000000e+04,4.000000000000000327e-05,-1.000000000000000082e-05,-1.300000000000000157e-04,-4.799999999999999580e-04,-8.000000000000000654e-05,-1.199999999999999895e-04,2.000000000000000164e-05,0.000000000000000000e+00,5.000000000000000000e+00,9.000000000000000000e+00
2.423400000000000000e+04,4.000000000000000327e-05,-1.000000000000000082e-05,-1.300000000000000157e-04,-4.799999999999999580e-04,-8.000000000000000654e-05,-1.199999999999999895e-04,2.000000000000000164e-05,0.000000000000000000e+00,5.000000000000000000e+00,9.000000000000000000e+00
2.423500000000000000e+04,4.000000000000000327e-05,-1.000000000000000082e-05,-1.300000000000000157e-04,-4.799999999999999580e-04,-8.000000000000000654e-05,-1.199999999999999895e-04,2.000000000000000164e-05,0.000000000000000000e+00,5.000000000000000000e+00,9.000000000000000000e+00
2.423700000000000000e+04,0.000000000000000000e+00,0.000000000000000000e+00,-8.000000000000000654e-05,-2.799999999999999755e-04,-1.699999999999999851e-04,-1.000000000000000082e-05,-2.000000000000000164e-05,-1.000000000000000082e-05,5.000000000000000000e+00,9.000000000000000000e+00
2.424000000000000000e+04,0.000000000000000000e+00,0.000000000000000000e+00,-8.000000000000000654e-05,-2.799999999999999755e-04,-1.699999999999999851e-04,-1.000000000000000082e-05,-2.000000000000000164e-05,-1.000000000000000082e-05,5.000000000000000000e+00,9.000000000000000000e+00
2.424100000000000000e+04,0.000000000000000000e+00,0.000000000000000000e+00,-8.000000000000000654e-05,-2.799999999999999755e-04,-1.699999999999999851e-04,-1.000000000000000082e-05,-2.000000000000000164e-05,-1.000000000000000082e-05,5.000000000000000000e+00,9.000000000000000000e+00
2.424200000000000000e+04,0.000000000000000000e+00,0.000000000000000000e+00,-8.000000000000000654e-05,-2.799999999999999755e-04,-1.699999999999999851e-04,-1.000000000000000082e-05,-2.000000000000000164e-05,-1.000000000000000082e-05,5.000000000000000000e+00,9.000000000000000000e+00
2.424300000000000000e+04,0.000000000000000000e+00,0.000000000000000000e+00,-8.000000000000000654e-05,-2.799999999999999755e-04,-1.699999999999999851e-04,-1.000000000000000082e-05,-2.000000000000000164e-05,-1.000000000000000082e-05,5.000000000000000000e+00,9.000000000000000000e+00
2.424400000000000000e+04,0.000000000000000000e+00,0.000000000000000000e+00,-8.000000000000000654e-05,-2.799999999999999755e-04,-1.699999999999999851e-04,-1.000000000000000082e-05,-2.000000000000000164e-05,-1.000000000000000082e-05,5.000000000000000000e+00,9.000000000000000000e+00
2.424500000000000000e+04,0.000000000000000000e+00,0.000000000000000000e+00,-8.000000000000000654e-05,-2.799999999999999755e-04,-1.699999999999999851e-04,-1.000000000000000082e-05,-2.000000000000000164e-05,-1.000000000000000082e-05,5.000000000000000000e+00,9.000000000000000000e+00
2.424600000000000000e+04,0.000000000000000000e+00,0.000000000000000000e+00,-8.000000000000000654e-05,-2.799999999999999755e-04,-1.699999999999999851e-04,-1.000000000000000082e-05,-2.000000000000000164e-05,-1.000000000000000082e-05,5.000000000000000000e+00,9.000000000000000000e+00
2.424700000000000000e+04,0.000000000000000000e+00,0.000000000000000000e+00,-8.000000000000000654e-05,-2.799999999999999755e-04,-1.699999999999999851e-04,-1.000000000000000082e-05,-2.000000000000000164e-05,-1.000000000000000082e-05,5.000000000000000000e+00,9.000000000000000000e+00
2.424800000000000000e+04,0.000000000000000000e+00,0.000000000000000000e+00,-8.000000000000000654e-05,-2.799999999999999755e-04,-1.699999999999999851e-04,-1.000000000000000082e-05,-2.000000000000000164e-05,-1.000000000000000082e-05,5.000000000000000000e+00,9.000000000000000000e+00
2.424900000000000000e+04,0.000000000000000000e+00,0.000000000000000000e+00,-8.000000000000000654e-05,-2.799999999999999755e-04,-1.699999999999999851e-04,-1.000000000000000082e-05,-2.000000000000000164e-05,-1.000000000000000082e-05,5.000000000000000000e+00,9.000000000000000000e+00
2.425000000000000000e+04,0.000000000000000000e+00,0.000000000000000000e+00,-8.000000000000000654e-05,-2.799999999999999755e-04,-1.699999999999999851e-04,-1.000000000000000082e-05,-2.000000000000000164e-05,-1.000000000000000082e-05,5.000000000000000000e+00,9.000000000000000000e+00
2.425100000000000000e+04,0.000000000000000000e+00,0.000000000000000000e+00,-8.000000000000000654e-05,-2.799999999999999755e-04,-1.699999999999999851e-04,-1.000000000000000082e-05,-2.000000000000000164e-05,-1.000000000000000082e-05,5.000000000000000000e+00,9.000000000000000000e+00
2.425200000000000000e+04,0.000000000000000000e+00,0.000000000000000000e+00,-8.000000000000000654e-05,-2.799999999999999755e-04,-1.699999999999999851e-04,-1.000000000000000082e-05,-2.000000000000000164e-05,-1.000000000000000082e-05,5.000000000000000000e+00,9.000000000000000000e+00
2.425300000000000000e+04,0.000000000000000000e+00,0.000000000000000000e+00,-8.000000000000000654e-05,-2.799999999999999755e-04,-1.699999999999999851e-04,-1.000000000000000082e-05,-2.000000000000000164e-05,-1.000000000000000082e-05,5.000000000000000000e+00,9.000000000000000000e+00
2.425400000000000000e+04,0.000000000000000000e+00,0.000000000000000000e+00,-8.000000000000000654e-05,-2.799999999999999755e-04,-1.699999999999999851e-04,-1.000000000000000082e-05,-2.000000000000000164e-05,-1.000000000000000082e-05,5.000000000000000000e+00,9.000000000000000000e+00
2.425500000000000000e+04,0.000000000000000000e+00,0.000000000000000000e+00,-8.000000000000000654e-05,-2.799999999999999755e-04,-1.699999999999999851e-04,-1.000000000000000082e-05,-2.000000000000000164e-05,-1.000000000000000082e-05,5.000000000000000000e+00,9.000000000000000000e+00
2.425600000000000000e+04,0.000000000000000000e+00,0.000000000000000000e+00,-8.000000000000000654e-05,-2.799999999999999755e-04,-1.699999999999999851e-04,-1.000000000000000082e-05,-2.000000000000000164e-05,-1.000000000000000082e-05,5.000000000000000000e+00,9.000000000000000000e+00
2.425700000000000000e+04,0.000000000000000000e+00,0.000000000000000000e+00,-8.000000000000000654e-05,-2.799999999999999755e-04,-1.699999999999999851e-04,-1.000000000000000082e-05,-2.000000000000000164e-05,-1.000000000000000082e-05,5.000000000000000000e+00,9.000000000000000000e+00
2.425800000000000000e+04,0.000000000000000000e+00,0.000000000000000000e+00,-8.000000000000000654e-05,-2.799999999999999755e-04,-1.699999999999999851e-04,-1.000000000000000082e-05,-2.000000000000000164e-05,-1.000000000000000082e-05,5.000000000000000000e+00,9.000000000000000000e+00
2.425900000000000000e+04,0.000000000000000000e+00,0.000000000000000000e+00,-8.000000000000000654e-05,-2.799999999999999755e-04,-1.699999999999999851e-04,-1.000000000000000082e-05,-2.000000000000000164e-05,-1.000000000000000082e-05,5.000000000000000000e+00,9.000000000000000000e+00
2.426000000000000000e+04,0.000000000000000000e+00,0.000000000000000000e+00,-8.000000000000000654e-05,-2.799999999999999755e-04,-1.699999999999999851e-04,-1.000000000000000082e-05,-2.000000000000000164e-05,-1.000000000000000082e-05,5.000000000000000000e+00,9.000000000000000000e+00
2.426100000000000000e+04,0.000000000000000000e+00,0.000000000000000000e+00,-8.000000000000000654e-05,-2.799999999999999755e-04,-1.699999999999999851e-04,-1.000000000000000082e-05,-2.000000000000000164e-05,-1.000000000000000082e-05,5.000000000000000000e+00,9.000000000000000000e+00
2.426200000000000000e+04,0.000000000000000000e+00,0.000000000000000000e+00,-8.000000000000000654e-05,-2.799999999999999755e-04,-1.699999999999999851e-04,-1.000000000000000082e-05,-2.000000000000000164e-05,-1.000000000000000082e-05,5.000000000000000000e+00,9.000000000000000000e+00
2.426300000000000000e+04,0.000000000000000000e+00,0.000000000000000000e+00,-8.000000000000000654e-05,-2.799999999999999755e-04,-1.699999999999999851e-04,-1.000000000000000082e-05,-2.000000000000000164e-05,-1.000000000000000082e-05,5.000000000000000000e+00,9.000000000000000000e+00
2.426400000000000000e+04,0.000000000000000000e+00,0.000000000000000000e+00,-8.000000000000000654e-05,-2.799999999999999755e-04,-1.699999999999999851e-04,-1.000000000000000082e-05,-2.000000000000000164e-05,-1.000000000000000082e-05,5.000000000000000000e+00,9.000000000000000000e+00
2.426500000000000000e+04,0.000000000000000000e+00,0.000000000000000000e+00,-8.000000000000000654e-05,-2.799999999999999755e-04,-1.699999999999999851e-04,-1.000000000000000082e-05,-2.000000000000000164e-05,-1.000000000000000082e-05,5.000000000000000000e+00,9.000000000000000000e+00
2.426600000000000000e+04,0.000000000000000000e+00,0.000000000000000000e+00,-8.000000000000000654e-05,-2.799999999999999755e-04,-1.699999999999999851e-04,-1.000000000000000082e-05,-2.000000000000000164e-05,-1.000000000000000082e-05,5.000000000000000000e+00,9.000000000000000000e+00
2.426700000000000000e+04,0.000000000000000000e+00,0.000000000000000000e+00,-8.000000000000000654e-05,-2.799999999999999755e-04,-1.699999999999999851e-04,-1.000000000000000082e-05,-2.000000000000000164e-05,-1.000000000000000082e-05,5.000000000000000000e+00,9.000000000000000000e+00
2.426800000000000000e+04,0.000000000000000000e+00,0.000000000000000000e+00,-8.000000000000000654e-05,-2.799999999999999755e-04,-1.699999999999999851e-04,-1.000000000000000082e-05,-2.000000000000000164e-05,-1.000000000000000082e-05,5.000000000000000000e+00,9.000000000000000000e+00
2.426900000000000000e+04,0.000000000000000000e+00,0.000000000000000000e+00,-8.000000000000000654e-05,-2.799999999999999755e-04,-1.699999999999999851e-04,-1.000000000000000082e-05,-2.000000000000000164e-05,-1.000000000000000082e-05,5.000000000000000000e+00,9.000000000000000000e+00
2.427000000000000000e+04,0.000000000000000000e+00,0.000000000000000000e+00,-8.000000000000000654e-05,-2.799999999999999755e-04,-1.699999999999999851e-04,-1.000000000000000082e-05,-2.000000000000000164e-05,-1.000000000000000082e-05,5.000000000000000000e+00,9.000000000000000000e+00
2.427100000000000000e+04,0.000000000000000000e+00,0.000000000000000000e+00,-8.000000000000000654e-05,-2.799999999999999755e-04,-1.699999999999999851e-04,-1.000000000000000082e-05,-2.000000000000000164e-05,-1.000000000000000082e-05,5.000000000000000000e+00,9.000000000000000000e+00
2.427200000000000000e+04,0.000000000000000000e+00,0.000000000000000000e+00,-8.000000000000000654e-05,-2.799999999999999755e-04,-1.699999999999999851e-04,-1.000000000000000082e-05,-2.000000000000000164e-05,-1.000000000000000082e-05,5.000000000000000000e+00,9.000000000000000000e+00
2.427300000000000000e+04,-1.600000000000000131e-04,-2.000000000000000164e-05,-5.000000000000000240e-05,-8.000000000000000654e-05,-3.699999999999999947e-04,-1.899999999999999834e-04,2.000000000000000164e-05,-5.000000000000000240e-05,5.000000000000000000e+00,9.000000000000000000e+00
2.427400000000000000e+04,-1.600000000000000131e-04,-2.000000000000000164e-05,-5.000000000000000240e-05,-8.000000000000000654e-05,-3.699999999999999947e-04,-1.899999999999999834e-04,2.000000000000000164e-05,-5.000000000000000240e-05,5.000000000000000000e+00,9.000000000000000000e+00
2.427500000000000000e+04,4.000000000000000327e-05,4.000000000000000327e-05,1.199999999999999895e-04,5.999999999999999474e-05,-2.000000000000000164e-05,-5.999999999999999474e-05,5.999999999999999474e-05,4.000000000000000327e-05,5.000000000000000000e+00,9.000000000000000000e+00
2.427600000000000000e+04,4.000000000000000327e-05,4.000000000000000327e-05,1.199999999999999895e-04,5.999999999999999474e-05,-2.000000000000000164e-05,-5.999999999999999474e-05,5.999999999999999474e-05,4.000000000000000327e-05,5.000000000000000000e+00,9.000000000000000000e+00
2.427700000000000000e+04,4.000000000000000327e-05,4.000000000000000327e-05,1.199999999999999895e-04,5.999999999999999474e-05,-2.000000000000000164e-05,-5.999999999999999474e-05,5.999999999999999474e-05,4.000000000000000327e-05,5.000000000000000000e+00,9.000000000000000000e+00
2.427800000000000000e+04,4.000000000000000327e-05,4.000000000000000327e-05,1.199999999999999895e-04,5.999999999999999474e-05,-2.000000000000000164e-05,-5.999999999999999474e-05,5.999999999999999474e-05,4.000000000000000327e-05,5.000000000000000000e+00,9.000000000000000000e+00
2.427900000000000000e+04,4.000000000000000327e-05,4.000000000000000327e-05,1.199999999999999895e-04,5.999999999999999474e-05,-2.000000000000000164e-05,-5.999999999999999474e-05,5.999999999999999474e-05,4.000000000000000327e-05,5.000000000000000000e+00,9.000000000000000000e+00
2.428000000000000000e+04,4.000000000000000327e-05,4.000000000000000327e-05,1.199999999999999895e-04,5.999999999999999474e-05,-2.000000000000000164e-05,-5.999999999999999474e-05,5.999999999999999474e-05,4.000000000000000327e-05,5.000000000000000000e+00,9.000000000000000000e+00
2.428100000000000000e+04,4.000000000000000327e-05,4.000000000000000327e-05,1.199999999999999895e-04,5.999999999999999474e-05,-2.000000000000000164e-05,-5.999999999999999474e-05,5.999999999999999474e-05,4.000000000000000327e-05,5.000000000000000000e+00,9.000000000000000000e+00
2.428200000000000000e+04,4.000000000000000327e-05,4.000000000000000327e-05,1.199999999999999895e-04,5.999999999999999474e-05,-2.000000000000000164e-05,-5.999999999999999474e-05,5.999999999999999474e-05,4.000000000000000327e-05,5.000000000000000000e+00,9.000000000000000000e+00
2.428300000000000000e+04,4.000000000000000327e-05,4.000000000000000327e-05,1.199999999999999895e-04,5.999999999999999474e-05,-2.000000000000000164e-05,-5.999999999999999474e-05,5.999999999999999474e-05,4.000000000000000327e-05,5.000000000000000000e+00,9.000000000000000000e+00
2.428400000000000000e+04,4.000000000000000327e-05,4.000000000000000327e-05,1.199999999999999895e-04,5.999999999999999474e-05,-2.000000000000000164e-05,-5.999999999999999474e-05,5.999999999999999474e-05,4.000000000000000327e-05,5.000000000000000000e+00,9.000000000000000000e+00
2.428500000000000000e+04,4.000000000000000327e-05,4.000000000000000327e-05,1.199999999999999895e-04,5.999999999999999474e-05,-2.000000000000000164e-05,-5.999999999999999474e-05,5.999999999999999474e-05,4.000000000000000327e-05,5.000000000000000000e+00,9.000000000000000000e+00
2.428600000000000000e+04,4.000000000000000327e-05,4.000000000000000327e-05,1.199999999999999895e-04,5.999999999999999474e-05,-2.000000000000000164e-05,-5.999999999999999474e-05,5.999999999999999474e-05,4.000000000000000327e-05,5.000000000000000000e+00,9.000000000000000000e+00
2.428900000000000000e+04,4.000000000000000327e-05,4.000000000000000327e-05,1.199999999999999895e-04,5.999999999999999474e-05,-2.000000000000000164e-05,-5.999999999999999474e-05,5.999999999999999474e-05,4.000000000000000327e-05,5.000000000000000000e+00,9.000000000000000000e+00
2.429000000000000000e+04,4.000000000000000327e-05,4.000000000000000327e-05,1.199999999999999895e-04,5.999999999999999474e-05,-2.000000000000000164e-05,-5.999999999999999474e-05,5.999999999999999474e-05,4.000000000000000327e-05,5.000000000000000000e+00,9.000000000000000000e+00
2.429100000000000000e+04,4.000000000000000327e-05,4.000000000000000327e-05,1.199999999999999895e-04,5.999999999999999474e-05,-2.000000000000000164e-05,-5.999999999999999474e-05,5.999999999999999474e-05,4.000000000000000327e-05,5.000000000000000000e+00,9.000000000000000000e+00
2.429200000000000000e+04,4.000000000000000327e-05,4.000000000000000327e-05,1.199999999999999895e-04,5.999999999999999474e-05,-2.000000000000000164e-05,-5.999999999999999474e-05,5.999999999999999474e-05,4.000000000000000327e-05,5.000000000000000000e+00,9.000000000000000000e+00
2.429300000000000000e+04,4.000000000000000327e-05,4.000000000000000327e-05,1.199999999999999895e-04,5.999999999999999474e-05,-2.000000000000000164e-05,-5.999999999999999474e-05,5.999999999999999474e-05,4.000000000000000327e-05,5.000000000000000000e+00,9.000000000000000000e+00
2.429400000000000000e+04,4.000000000000000327e-05,4.000000000000000327e-05,1.199999999999999895e-04,5.999999999999999474e-05,-2.000000000000000164e-05,-5.999999999999999474e-05,5.999999999999999474e-05,4.000000000000000327e-05,5.000000000000000000e+00,9.000000000000000000e+00
2.429500000000000000e+04,1.199999999999999895e-04,2.999999999999999737e-05,-4.000000000000000327e-05,-2.000000000000000096e-04,-2.900000000000000017e-04,0.000000000000000000e+00,0.000000000000000000e+00,-1.000000000000000082e-05,5.000000000000000000e+00,9.000000000000000000e+00
2.429600000000000000e+04,5.000000000000000240e-05,6.999999999999999387e-05,2.000000000000000164e-05,-2.500000000000000052e-04,-1.399999999999999877e-04,-6.999999999999999387e-05,-2.000000000000000164e-05,0.000000000000000000e+00,5.000000000000000000e+00,9.000000000000000000e+00
2.429700000000000000e+04,5.000000000000000240e-05,6.999999999999999387e-05,2.000000000000000164e-05,-2.500000000000000052e-04,-1.399999999999999877e-04,-6.999999999999999387e-05,-2.000000000000000164e-05,0.000000000000000000e+00,5.000000000000000000e+00,9.000000000000000000e+00
2.429800000000000000e+04,5.999999999999999474e-05,-2.000000000000000164e-05,-9.000000000000000567e-05,6.999999999999999387e-05,-9.000000000000000567e-05,-5.000000000000000240e-05,5.000000000000000240e-05,4.000000000000000327e-05,5.000000000000000000e+00,9.000000000000000000e+00
2.429900000000000000e+04,5.999999999999999474e-05,-2.000000000000000164e-05,-9.000000000000000567e-05,6.999999999999999387e-05,-9.000000000000000567e-05,-5.000000000000000240e-05,5.000000000000000240e-05,4.000000000000000327e-05,5.000000000000000000e+00,9.000000000000000000e+00
2.430000000000000000e+04,5.999999999999999474e-05,-2.000000000000000164e-05,-9.000000000000000567e-05,6.999999999999999387e-05,-9.000000000000000567e-05,-5.000000000000000240e-05,5.000000000000000240e-05,4.000000000000000327e-05,5.000000000000000000e+00,9.000000000000000000e+00
2.430100000000000000e+04,5.999999999999999474e-05,-2.000000000000000164e-05,-9.000000000000000567e-05,6.999999999999999387e-05,-9.000000000000000567e-05,-5.000000000000000240e-05,5.000000000000000240e-05,4.000000000000000327e-05,5.000000000000000000e+00,9.000000000000000000e+00
2.430200000000000000e+04,5.999999999999999474e-05,-2.000000000000000164e-05,-9.000000000000000567e-05,6.999999999999999387e-05,-9.000000000000000567e-05,-5.000000000000000240e-05,5.000000000000000240e-05,4.000000000000000327e-05,5.000000000000000000e+00,9.000000000000000000e+00
2.430300000000000000e+04,5.999999999999999474e-05,-2.000000000000000164e-05,-9.000000000000000567e-05,6.999999999999999387e-05,-9.000000000000000567e-05,-5.000000000000000240e-05,5.000000000000000240e-05,4.000000000000000327e-05,5.000000000000000000e+00,9.000000000000000000e+00
2.430400000000000000e+04,5.999999999999999474e-05,-2.000000000000000164e-05,-9.000000000000000567e-05,6.999999999999999387e-05,-9.000000000000000567e-05,-5.000000000000000240e-05,5.000000000000000240e-05,4.000000000000000327e-05,5.000000000000000000e+00,9.000000000000000000e+00
2.430500000000000000e+04,5.999999999999999474e-05,-2.000000000000000164e-05,-9.000000000000000567e-05,6.999999999999999387e-05,-9.000000000000000567e-05,-5.000000000000000240e-05,5.000000000000000240e-05,4.000000000000000327e-05,5.000000000000000000e+00,9.000000000000000000e+00
2.430600000000000000e+04,5.999999999999999474e-05,-2.000000000000000164e-05,-9.000000000000000567e-05,6.999999999999999387e-05,-9.000000000000000567e-05,-5.000000000000000240e-05,5.000000000000000240e-05,4.000000000000000327e-05,5.000000000000000000e+00,9.000000000000000000e+00
2.430700000000000000e+04,5.999999999999999474e-05,-2.000000000000000164e-05,-9.000000000000000567e-05,6.999999999999999387e-05,-9.000000000000000567e-05,-5.000000000000000240e-05,5.000000000000000240e-05,4.000000000000000327e-05,5.000000000000000000e+00,9.000000000000000000e+00
2.430800000000000000e+04,5.999999999999999474e-05,-2.000000000000000164e-05,-9.000000000000000567e-05,6.999999999999999387e-05,-9.000000000000000567e-05,-5.000000000000000240e-05,5.000000000000000240e-05,4.000000000000000327e-05,5.000000000000000000e+00,9.000000000000000000e+00
2.430900000000000000e+04,5.999999999999999474e-05,-2.000000000000000164e-05,-9.000000000000000567e-05,6.999999999999999387e-05,-9.000000000000000567e-05,-5.000000000000000240e-05,5.000000000000000240e-05,4.000000000000000327e-05,5.000000000000000000e+00,9.000000000000000000e+00
2.431000000000000000e+04,5.999999999999999474e-05,-2.000000000000000164e-05,-9.000000000000000567e-05,6.999999999999999387e-05,-9.000000000000000567e-05,-5.000000000000000240e-05,5.000000000000000240e-05,4.000000000000000327e-05,5.000000000000000000e+00,9.000000000000000000e+00
2.431100000000000000e+04,5.999999999999999474e-05,-2.000000000000000164e-05,-9.000000000000000567e-05,6.999999999999999387e-05,-9.000000000000000567e-05,-5.000000000000000240e-05,5.000000000000000240e-05,4.000000000000000327e-05,5.000000000000000000e+00,9.000000000000000000e+00
2.431200000000000000e+04,5.999999999999999474e-05,-2.000000000000000164e-05,-9.000000000000000567e-05,6.999999999999999387e-05,-9.000000000000000567e-05,-5.000000000000000240e-05,5.000000000000000240e-05,4.000000000000000327e-05,5.000000000000000000e+00,9.000000000000000000e+00
2.431300000000000000e+04,5.999999999999999474e-05,-2.000000000000000164e-05,-9.000000000000000567e-05,6.999999999999999387e-05,-9.000000000000000567e-05,-5.000000000000000240e-05,5.000000000000000240e-05,4.000000000000000327e-05,5.000000000000000000e+00,9.000000000000000000e+00
2.431400000000000000e+04,5.999999999999999474e-05,-2.000000000000000164e-05,-9.000000000000000567e-05,6.999999999999999387e-05,-9.000000000000000567e-05,-5.000000000000000240e-05,5.000000000000000240e-05,4.000000000000000327e-05,5.000000000000000000e+00,9.000000000000000000e+00
2.431500000000000000e+04,5.999999999999999474e-05,-2.000000000000000164e-05,-9.000000000000000567e-05,6.999999999999999387e-05,-9.000000000000000567e-05,-5.000000000000000240e-05,5.000000000000000240e-05,4.000000000000000327e-05,5.000000000000000000e+00,9.000000000000000000e+00
2.431600000000000000e+04,5.999999999999999474e-05,-2.000000000000000164e-05,-9.000000000000000567e-05,6.999999999999999387e-05,-9.000000000000000567e-05,-5.000000000000000240e-05,5.000000000000000240e-05,4.000000000000000327e-05,5.000000000000000000e+00,9.000000000000000000e+00
2.431700000000000000e+04,5.999999999999999474e-05,-2.000000000000000164e-05,-9.000000000000000567e-05,6.999999999999999387e-05,-9.000000000000000567e-05,-5.000000000000000240e-05,5.000000000000000240e-05,4.000000000000000327e-05,5.000000000000000000e+00,9.000000000000000000e+00
2.431800000000000000e+04,4.000000000000000327e-05,-6.999999999999999387e-05,-9.000000000000000567e-05,-9.000000000000000567e-05,1.800000000000000113e-04,9.000000000000000567e-05,-2.000000000000000164e-05,2.000000000000000164e-05,5.000000000000000000e+00,9.000000000000000000e+00
2.431900000000000000e+04,4.000000000000000327e-05,-6.999999999999999387e-05,-9.000000000000000567e-05,-9.000000000000000567e-05,1.800000000000000113e-04,9.000000000000000567e-05,-2.000000000000000164e-05,2.000000000000000164e-05,5.000000000000000000e+00,9.000000000000000000e+00
2.432000000000000000e+04,-1.699999999999999851e-04,-1.399999999999999877e-04,-1.100000000000000039e-04,-2.000000000000000164e-05,5.599999999999999509e-04,0.000000000000000000e+00,-4.000000000000000327e-05,-6.999999999999999387e-05,5.000000000000000000e+00,9.000000000000000000e+00
2.432100000000000000e+04,-1.699999999999999851e-04,-9.000000000000000567e-05,4.000000000000000327e-05,3.799999999999999667e-04,1.800000000000000113e-04,6.999999999999999387e-05,-9.000000000000000567e-05,-1.000000000000000048e-04,5.000000000000000000e+00,9.000000000000000000e+00
2.432200000000000000e+04,-1.699999999999999851e-04,-9.000000000000000567e-05,4.000000000000000327e-05,3.799999999999999667e-04,1.800000000000000113e-04,6.999999999999999387e-05,-9.000000000000000567e-05,-1.000000000000000048e-04,5.000000000000000000e+00,9.000000000000000000e+00
2.432300000000000000e+04,-1.699999999999999851e-04,-9.000000000000000567e-05,4.000000000000000327e-05,3.799999999999999667e-04,1.800000000000000113e-04,6.999999999999999387e-05,-9.000000000000000567e-05,-1.000000000000000048e-04,5.000000000000000000e+00,9.000000000000000000e+00
2.432400000000000000e+04,-1.699999999999999851e-04,-9.000000000000000567e-05,4.000000000000000327e-05,3.799999999999999667e-04,1.800000000000000113e-04,6.999999999999999387e-05,-9.000000000000000567e-05,-1.000000000000000048e-04,5.000000000000000000e+00,9.000000000000000000e+00
2.432500000000000000e+04,-1.699999999999999851e-04,-9.000000000000000567e-05,4.000000000000000327e-05,3.799999999999999667e-04,1.800000000000000113e-04,6.999999999999999387e-05,-9.000000000000000567e-05,-1.000000000000000048e-04,5.000000000000000000e+00,9.000000000000000000e+00
2.432600000000000000e+04,-1.699999999999999851e-04,-9.000000000000000567e-05,4.000000000000000327e-05,3.799999999999999667e-04,1.800000000000000113e-04,6.999999999999999387e-05,-9.000000000000000567e-05,-1.000000000000000048e-04,5.000000000000000000e+00,9.000000000000000000e+00
2.432700000000000000e+04,-1.699999999999999851e-04,-9.000000000000000567e-05,4.000000000000000327e-05,3.799999999999999667e-04,1.800000000000000113e-04,6.999999999999999387e-05,-9.000000000000000567e-05,-1.000000000000000048e-04,5.000000000000000000e+00,9.000000000000000000e+00
2.432800000000000000e+04,-1.699999999999999851e-04,-9.000000000000000567e-05,4.000000000000000327e-05,3.799999999999999667e-04,1.800000000000000113e-04,6.999999999999999387e-05,-9.000000000000000567e-05,-1.000000000000000048e-04,5.000000000000000000e+00,9.000000000000000000e+00
2.432900000000000000e+04,-1.699999999999999851e-04,-9.000000000000000567e-05,4.000000000000000327e-05,3.799999999999999667e-04,1.800000000000000113e-04,6.999999999999999387e-05,-9.000000000000000567e-05,-1.000000000000000048e-04,5.000000000000000000e+00,9.000000000000000000e+00
2.433000000000000000e+04,-1.699999999999999851e-04,-9.000000000000000567e-05,4.000000000000000327e-05,3.799999999999999667e-04,1.800000000000000113e-04,6.999999999999999387e-05,-9.000000000000000567e-05,-1.000000000000000048e-04,5.000000000000000000e+00,9.000000000000000000e+00
2.433100000000000000e+04,-1.699999999999999851e-04,-9.000000000000000567e-05,4.000000000000000327e-05,3.799999999999999667e-04,1.800000000000000113e-04,6.999999999999999387e-05,-9.000000000000000567e-05,-1.000000000000000048e-04,5.000000000000000000e+00,9.000000000000000000e+00
2.433200000000000000e+04,1.199999999999999895e-04,0.000000000000000000e+00,4.000000000000000327e-05,-9.000000000000000567e-05,-2.299999999999999799e-04,-2.000000000000000164e-05,2.000000000000000164e-05,0.000000000000000000e+00,5.000000000000000000e+00,9.000000000000000000e+00
2.433300000000000000e+04,1.199999999999999895e-04,0.000000000000000000e+00,4.000000000000000327e-05,-9.000000000000000567e-05,-2.299999999999999799e-04,-2.000000000000000164e-05,2.000000000000000164e-05,0.000000000000000000e+00,5.000000000000000000e+00,9.000000000000000000e+00
2.433400000000000000e+04,1.199999999999999895e-04,0.000000000000000000e+00,4.000000000000000327e-05,-9.000000000000000567e-05,-2.299999999999999799e-04,-2.000000000000000164e-05,2.000000000000000164e-05,0.000000000000000000e+00,5.000000000000000000e+00,9.000000000000000000e+00
2.433500000000000000e+04,1.199999999999999895e-04,0.000000000000000000e+00,4.000000000000000327e-05,-9.000000000000000567e-05,-2.299999999999999799e-04,-2.000000000000000164e-05,2.000000000000000164e-05,0.000000000000000000e+00,5.000000000000000000e+00,9.000000000000000000e+00
2.433600000000000000e+04,1.199999999999999895e-04,0.000000000000000000e+00,4.000000000000000327e-05,-9.000000000000000567e-05,-2.299999999999999799e-04,-2.000000000000000164e-05,2.000000000000000164e-05,0.000000000000000000e+00,5.000000000000000000e+00,9.000000000000000000e+00
2.433900000000000000e+04,1.199999999999999895e-04,0.000000000000000000e+00,4.000000000000000327e-05,-9.000000000000000567e-05,-2.299999999999999799e-04,-2.000000000000000164e-05,2.000000000000000164e-05,0.000000000000000000e+00,5.000000000000000000e+00,9.000000000000000000e+00
2.434000000000000000e+04,1.000000000000000082e-05,1.800000000000000113e-04,8.000000000000000654e-05,-4.000000000000000327e-05,-1.199999999999999895e-04,1.499999999999999869e-04,-1.000000000000000082e-05,5.999999999999999474e-05,5.000000000000000000e+00,9.000000000000000000e+00
2.434100000000000000e+04,-2.100000000000000087e-04,-1.199999999999999895e-04,-5.999999999999999474e-05,-3.200000000000000262e-04,1.399999999999999877e-04,-4.000000000000000327e-05,-5.999999999999999474e-05,-2.999999999999999737e-05,5.000000000000000000e+00,9.000000000000000000e+00
2.434200000000000000e+04,-2.100000000000000087e-04,-1.199999999999999895e-04,-5.999999999999999474e-05,-3.200000000000000262e-04,1.399999999999999877e-04,-4.000000000000000327e-05,-5.999999999999999474e-05,-2.999999999999999737e-05,5.000000000000000000e+00,9.000000000000000000e+00
2.434300000000000000e+04,-2.100000000000000087e-04,-1.199999999999999895e-04,-5.999999999999999474e-05,-3.200000000000000262e-04,1.399999999999999877e-04,-4.000000000000000327e-05,-5.999999999999999474e-05,-2.999999999999999737e-05,5.000000000000000000e+00,9.000000000000000000e+00
2.434400000000000000e+04,-2.100000000000000087e-04,-1.199999999999999895e-04,-5.999999999999999474e-05,-3.200000000000000262e-04,1.399999999999999877e-04,-4.000000000000000327e-05,-5.999999999999999474e-05,-2.999999999999999737e-05,5.000000000000000000e+00,9.000000000000000000e+00
2.434500000000000000e+04,-2.100000000000000087e-04,-1.199999999999999895e-04,-5.999999999999999474e-05,-3.200000000000000262e-04,1.399999999999999877e-04,-4.000000000000000327e-05,-5.999999999999999474e-05,-2.999999999999999737e-05,5.000000000000000000e+00,9.000000000000000000e+00
2.434600000000000000e+04,-2.100000000000000087e-04,-1.199999999999999895e-04,-5.999999999999999474e-05,-3.200000000000000262e-04,1.399999999999999877e-04,-4.000000000000000327e-05,-5.999999999999999474e-05,-2.999999999999999737e-05,5.000000000000000000e+00,9.000000000000000000e+00
2.434700000000000000e+04,-2.100000000000000087e-04,-1.199999999999999895e-04,-5.999999999999999474e-05,-3.200000000000000262e-04,1.399999999999999877e-04,-4.000000000000000327e-05,-5.999999999999999474e-05,-2.999999999999999737e-05,5.000000000000000000e+00,9.000000000000000000e+00
2.434800000000000000e+04,-2.100000000000000087e-04,-1.199999999999999895e-04,-5.999999999999999474e-05,-3.200000000000000262e-04,1.399999999999999877e-04,-4.000000000000000327e-05,-5.999999999999999474e-05,-2.999999999999999737e-05,5.000000000000000000e+00,9.000000000000000000e+00
2.434900000000000000e+04,-2.100000000000000087e-04,-1.199999999999999895e-04,-5.999999999999999474e-05,-3.200000000000000262e-04,1.399999999999999877e-04,-4.000000000000000327e-05,-5.999999999999999474e-05,-2.999999999999999737e-05,5.000000000000000000e+00,9.000000000000000000e+00
2.435000000000000000e+04,-2.100000000000000087e-04,-1.199999999999999895e-04,-5.999999999999999474e-05,-3.200000000000000262e-04,1.399999999999999877e-04,-4.000000000000000327e-05,-5.999999999999999474e-05,-2.999999999999999737e-05,5.000000000000000000e+00,9.000000000000000000e+00
2.435100000000000000e+04,-2.100000000000000087e-04,-1.199999999999999895e-04,-5.999999999999999474e-05,-3.200000000000000262e-04,1.399999999999999877e-04,-4.000000000000000327e-05,-5.999999999999999474e-05,-2.999999999999999737e-05,5.000000000000000000e+00,9.000000000000000000e+00
2.435200000000000000e+04,-2.100000000000000087e-04,-1.199999999999999895e-04,-5.999999999999999474e-05,-3.200000000000000262e-04,1.399999999999999877e-04,-4.000000000000000327e-05,-5.999999999999999474e-05,-2.999999999999999737e-05,5.000000000000000000e+00,9.000000000000000000e+00
2.435300000000000000e+04,1.499999999999999869e-04,9.000000000000000567e-05,1.000000000000000082e-05,-1.600000000000000131e-04,-8.000000000000000654e-05,-2.000000000000000164e-05,-1.000000000000000082e-05,2.000000000000000164e-05,5.000000000000000000e+00,9.000000000000000000e+00
2.435400000000000000e+04,-2.999999999999999737e-05,2.999999999999999737e-05,2.999999999999999737e-05,2.100000000000000087e-04,3.499999999999999964e-04,0.000000000000000000e+00,-2.999999999999999737e-05,-4.000000000000000327e-05,5.000000000000000000e+00,9.000000000000000000e+00
2.435500000000000000e+04,-2.999999999999999737e-05,2.999999999999999737e-05,2.999999999999999737e-05,2.100000000000000087e-04,3.499999999999999964e-04,0.000000000000000000e+00,-2.999999999999999737e-05,-4.000000000000000327e-05,5.000000000000000000e+00,9.000000000000000000e+00
2.435600000000000000e+04,-2.999999999999999737e-05,2.999999999999999737e-05,2.999999999999999737e-05,2.100000000000000087e-04,3.499999999999999964e-04,0.000000000000000000e+00,-2.999999999999999737e-05,-4.000000000000000327e-05,5.000000000000000000e+00,9.000000000000000000e+00
2.435700000000000000e+04,-2.999999999999999737e-05,2.999999999999999737e-05,2.999999999999999737e-05,2.100000000000000087e-04,3.499999999999999964e-04,0.000000000000000000e+00,-2.999999999999999737e-05,-4.000000000000000327e-05,5.000000000000000000e+00,9.000000000000000000e+00
2.435800000000000000e+04,-2.999999999999999737e-05,2.999999999999999737e-05,2.999999999999999737e-05,2.100000000000000087e-04,3.499999999999999964e-04,0.000000000000000000e+00,-2.999999999999999737e-05,-4.000000000000000327e-05,5.000000000000000000e+00,9.000000000000000000e+00
2.435900000000000000e+04,-2.999999999999999737e-05,2.999999999999999737e-05,2.999999999999999737e-05,2.100000000000000087e-04,3.499999999999999964e-04,0.000000000000000000e+00,-2.999999999999999737e-05,-4.000000000000000327e-05,5.000000000000000000e+00,9.000000000000000000e+00
2.436000000000000000e+04,-2.999999999999999737e-05,2.999999999999999737e-05,2.999999999999999737e-05,2.100000000000000087e-04,3.499999999999999964e-04,0.000000000000000000e+00,-2.999999999999999737e-05,-4.000000000000000327e-05,5.000000000000000000e+00,9.000000000000000000e+00
2.436100000000000000e+04,-2.999999999999999737e-05,2.999999999999999737e-05,2.999999999999999737e-05,2.100000000000000087e-04,3.499999999999999964e-04,0.000000000000000000e+00,-2.999999999999999737e-05,-4.000000000000000327e-05,5.000000000000000000e+00,9.000000000000000000e+00
2.436200000000000000e+04,-2.999999999999999737e-05,2.999999999999999737e-05,2.999999999999999737e-05,2.100000000000000087e-04,3.499999999999999964e-04,0.000000000000000000e+00,-2.999999999999999737e-05,-4.000000000000000327e-05,5.000000000000000000e+00,9.000000000000000000e+00
2.436300000000000000e+04,-2.999999999999999737e-05,2.999999999999999737e-05,2.999999999999999737e-05,2.100000000000000087e-04,3.499999999999999964e-04,0.000000000000000000e+00,-2.999999999999999737e-05,-4.000000000000000327e-05,5.000000000000000000e+00,9.000000000000000000e+00
2.436400000000000000e+04,-2.999999999999999737e-05,2.999999999999999737e-05,2.999999999999999737e-05,2.100000000000000087e-04,3.499999999999999964e-04,0.000000000000000000e+00,-2.999999999999999737e-05,-4.000000000000000327e-05,5.000000000000000000e+00,9.000000000000000000e+00
2.436500000000000000e+04,-2.999999999999999737e-05,2.999999999999999737e-05,2.999999999999999737e-05,2.100000000000000087e-04,3.499999999999999964e-04,0.000000000000000000e+00,-2.999999999999999737e-05,-4.000000000000000327e-05,5.000000000000000000e+00,9.000000000000000000e+00
2.436600000000000000e+04,-2.999999999999999737e-05,2.999999999999999737e-05,2.999999999999999737e-05,2.100000000000000087e-04,3.499999999999999964e-04,0.000000000000000000e+00,-2.999999999999999737e-05,-4.000000000000000327e-05,5.000000000000000000e+00,9.000000000000000000e+00
2.436700000000000000e+04,-2.999999999999999737e-05,2.999999999999999737e-05,2.999999999999999737e-05,2.100000000000000087e-04,3.499999999999999964e-04,0.000000000000000000e+00,-2.999999999999999737e-05,-4.000000000000000327e-05,5.000000000000000000e+00,9.000000000000000000e+00
2.436800000000000000e+04,-2.999999999999999737e-05,2.999999999999999737e-05,2.999999999999999737e-05,2.100000000000000087e-04,3.499999999999999964e-04,0.000000000000000000e+00,-2.999999999999999737e-05,-4.000000000000000327e-05,5.000000000000000000e+00,9.000000000000000000e+00
2.436900000000000000e+04,-2.999999999999999737e-05,2.999999999999999737e-05,2.999999999999999737e-05,2.100000000000000087e-04,3.499999999999999964e-04,0.000000000000000000e+00,-2.999999999999999737e-05,-4.000000000000000327e-05,5.000000000000000000e+00,9.000000000000000000e+00
2.437000000000000000e+04,-2.999999999999999737e-05,2.999999999999999737e-05,2.999999999999999737e-05,2.100000000000000087e-04,3.499999999999999964e-04,0.000000000000000000e+00,-2.999999999999999737e-05,-4.000000000000000327e-05,5.000000000000000000e+00,9.000000000000000000e+00
2.437100000000000000e+04,-2.999999999999999737e-05,2.999999999999999737e-05,2.999999999999999737e-05,2.100000000000000087e-04,3.499999999999999964e-04,0.000000000000000000e+00,-2.999999999999999737e-05,-4.000000000000000327e-05,5.000000000000000000e+00,9.000000000000000000e+00
2.437200000000000000e+04,-2.999999999999999737e-05,2.999999999999999737e-05,2.999999999999999737e-05,2.100000000000000087e-04,3.499999999999999964e-04,0.000000000000000000e+00,-2.999999999999999737e-05,-4.000000000000000327e-05,5.000000000000000000e+00,9.000000000000000000e+00
2.437300000000000000e+04,-2.999999999999999737e-05,2.999999999999999737e-05,2.999999999999999737e-05,2.100000000000000087e-04,3.499999999999999964e-04,0.000000000000000000e+00,-2.999999999999999737e-05,-4.000000000000000327e-05,5.000000000000000000e+00,9.000000000000000000e+00
2.437400000000000000e+04,-2.999999999999999737e-05,2.999999999999999737e-05,2.999999999999999737e-05,2.100000000000000087e-04,3.499999999999999964e-04,0.000000000000000000e+00,-2.999999999999999737e-05,-4.000000000000000327e-05,5.000000000000000000e+00,9.000000000000000000e+00
2.437500000000000000e+04,-2.999999999999999737e-05,2.999999999999999737e-05,2.999999999999999737e-05,2.100000000000000087e-04,3.499999999999999964e-04,0.000000000000000000e+00,-2.999999999999999737e-05,-4.000000000000000327e-05,5.000000000000000000e+00,9.000000000000000000e+00
2.437600000000000000e+04,-2.999999999999999737e-05,2.999999999999999737e-05,2.999999999999999737e-05,2.100000000000000087e-04,3.499999999999999964e-04,0.000000000000000000e+00,-2.999999999999999737e-05,-4.000000000000000327e-05,5.000000000000000000e+00,9.000000000000000000e+00
2.437700000000000000e+04,-2.999999999999999737e-05,2.999999999999999737e-05,2.999999999999999737e-05,2.100000000000000087e-04,3.499999999999999964e-04,0.000000000000000000e+00,-2.999999999999999737e-05,-4.000000000000000327e-05,5.000000000000000000e+00,9.000000000000000000e+00
2.437800000000000000e+04,-9.000000000000000567e-05,-1.000000000000000082e-05,2.000000000000000164e-05,-1.000000000000000082e-05,2.900000000000000017e-04,2.000000000000000164e-05,-2.999999999999999737e-05,-2.000000000000000164e-05,5.000000000000000000e+00,9.000000000000000000e+00
2.437900000000000000e+04,1.399999999999999877e-04,-1.000000000000000082e-05,-5.999999999999999474e-05,1.000000000000000082e-05,2.299999999999999799e-04,1.100000000000000039e-04,-1.000000000000000082e-05,4.000000000000000327e-05,5.000000000000000000e+00,9.000000000000000000e+00
2.438000000000000000e+04,1.300000000000000157e-04,1.199999999999999895e-04,9.000000000000000567e-05,1.199999999999999895e-04,-1.699999999999999851e-04,4.000000000000000327e-05,2.000000000000000164e-05,4.000000000000000327e-05,5.000000000000000000e+00,9.000000000000000000e+00
2.438100000000000000e+04,1.300000000000000157e-04,1.199999999999999895e-04,9.000000000000000567e-05,1.199999999999999895e-04,-1.699999999999999851e-04,4.000000000000000327e-05,2.000000000000000164e-05,4.000000000000000327e-05,5.000000000000000000e+00,9.000000000000000000e+00
2.438200000000000000e+04,1.300000000000000157e-04,1.199999999999999895e-04,9.000000000000000567e-05,1.199999999999999895e-04,-1.699999999999999851e-04,4.000000000000000327e-05,2.000000000000000164e-05,4.000000000000000327e-05,5.000000000000000000e+00,9.000000000000000000e+00
2.438300000000000000e+04,1.300000000000000157e-04,1.199999999999999895e-04,9.000000000000000567e-05,1.199999999999999895e-04,-1.699999999999999851e-04,4.000000000000000327e-05,2.000000000000000164e-05,4.000000000000000327e-05,5.000000000000000000e+00,9.000000000000000000e+00
2.438400000000000000e+04,1.300000000000000157e-04,1.199999999999999895e-04,9.000000000000000567e-05,1.199999999999999895e-04,-1.699999999999999851e-04,4.000000000000000327e-05,2.000000000000000164e-05,4.000000000000000327e-05,5.000000000000000000e+00,9.000000000000000000e+00
2.438500000000000000e+04,1.300000000000000157e-04,1.199999999999999895e-04,9.000000000000000567e-05,1.199999999999999895e-04,-1.699999999999999851e-04,4.000000000000000327e-05,2.000000000000000164e-05,4.000000000000000327e-05,5.000000000000000000e+00,9.000000000000000000e+00
2.438600000000000000e+04,1.300000000000000157e-04,1.199999999999999895e-04,9.000000000000000567e-05,1.199999999999999895e-04,-1.699999999999999851e-04,4.000000000000000327e-05,2.000000000000000164e-05,4.000000000000000327e-05,5.000000000000000000e+00,9.000000000000000000e+00
2.438900000000000000e+04,1.300000000000000157e-04,1.199999999999999895e-04,9.000000000000000567e-05,1.199999999999999895e-04,-1.699999999999999851e-04,4.000000000000000327e-05,2.000000000000000164e-05,4.000000000000000327e-05,5.000000000000000000e+00,9.000000000000000000e+00
2.439000000000000000e+04,1.300000000000000157e-04,1.199999999999999895e-04,9.000000000000000567e-05,1.199999999999999895e-04,-1.699999999999999851e-04,4.000000000000000327e-05,2.000000000000000164e-05,4.000000000000000327e-05,5.000000000000000000e+00,9.000000000000000000e+00
2.439100000000000000e+04,1.300000000000000157e-04,1.199999999999999895e-04,9.000000000000000567e-05,1.199999999999999895e-04,-1.699999999999999851e-04,4.000000000000000327e-05,2.000000000000000164e-05,4.000000000000000327e-05,5.000000000000000000e+00,9.000000000000000000e+00
2.439200000000000000e+04,1.300000000000000157e-04,1.199999999999999895e-04,9.000000000000000567e-05,1.199999999999999895e-04,-1.699999999999999851e-04,4.000000000000000327e-05,2.000000000000000164e-05,4.000000000000000327e-05,5.000000000000000000e+00,9.000000000000000000e+00
2.439300000000000000e+04,1.300000000000000157e-04,1.199999999999999895e-04,9.000000000000000567e-05,1.199999999999999895e-04,-1.699999999999999851e-04,4.000000000000000327e-05,2.000000000000000164e-05,4.000000000000000327e-05,5.000000000000000000e+00,9.000000000000000000e+00
2.439400000000000000e+04,1.300000000000000157e-04,1.199999999999999895e-04,9.000000000000000567e-05,1.199999999999999895e-04,-1.699999999999999851e-04,4.000000000000000327e-05,2.000000000000000164e-05,4.000000000000000327e-05,5.000000000000000000e+00,9.000000000000000000e+00
2.439500000000000000e+04,1.300000000000000157e-04,1.199999999999999895e-04,9.000000000000000567e-05,1.199999999999999895e-04,-1.699999999999999851e-04,4.000000000000000327e-05,2.000000000000000164e-05,4.000000000000000327e-05,5.000000000000000000e+00,9.000000000000000000e+00
2.439600000000000000e+04,1.300000000000000157e-04,1.199999999999999895e-04,9.000000000000000567e-05,1.199999999999999895e-04,-1.699999999999999851e-04,4.000000000000000327e-05,2.000000000000000164e-05,4.000000000000000327e-05,5.000000000000000000e+00,9.000000000000000000e+00
2.439700000000000000e+04,1.300000000000000157e-04,1.199999999999999895e-04,9.000000000000000567e-05,1.199999999999999895e-04,-1.699999999999999851e-04,4.000000000000000327e-05,2.000000000000000164e-05,4.000000000000000327e-05,5.000000000000000000e+00,9.000000000000000000e+00
2.439800000000000000e+04,1.300000000000000157e-04,1.199999999999999895e-04,9.000000000000000567e-05,1.199999999999999895e-04,-1.699999999999999851e-04,4.000000000000000327e-05,2.000000000000000164e-05,4.000000000000000327e-05,5.000000000000000000e+00,9.000000000000000000e+00
2.439900000000000000e+04,1.300000000000000157e-04,1.199999999999999895e-04,9.000000000000000567e-05,1.199999999999999895e-04,-1.699999999999999851e-04,4.000000000000000327e-05,2.000000000000000164e-05,4.000000000000000327e-05,5.000000000000000000e+00,9.000000000000000000e+00
2.440000000000000000e+04,-1.300000000000000157e-04,-5.000000000000000240e-05,1.000000000000000082e-05,2.999999999999999737e-05,2.799999999999999755e-04,-1.000000000000000082e-05,-1.000000000000000082e-05,-2.000000000000000164e-05,5.000000000000000000e+00,9.000000000000000000e+00
2.440100000000000000e+04,-1.899999999999999834e-04,-1.000000000000000082e-05,2.000000000000000164e-05,1.600000000000000131e-04,3.399999999999999702e-04,-5.000000000000000240e-05,0.000000000000000000e+00,2.000000000000000164e-05,5.000000000000000000e+00,9.000000000000000000e+00
2.440200000000000000e+04,-1.800000000000000113e-04,-5.999999999999999474e-05,2.999999999999999737e-05,2.000000000000000164e-05,-1.699999999999999851e-04,-1.300000000000000157e-04,-1.000000000000000082e-05,5.000000000000000240e-05,5.000000000000000000e+00,9.000000000000000000e+00
2.440300000000000000e+04,-1.800000000000000113e-04,-5.999999999999999474e-05,2.999999999999999737e-05,2.000000000000000164e-05,-1.699999999999999851e-04,-1.300000000000000157e-04,-1.000000000000000082e-05,5.000000000000000240e-05,5.000000000000000000e+00,9.000000000000000000e+00
2.440400000000000000e+04,-1.800000000000000113e-04,-5.999999999999999474e-05,2.999999999999999737e-05,2.000000000000000164e-05,-1.699999999999999851e-04,-1.300000000000000157e-04,-1.000000000000000082e-05,5.000000000000000240e-05,5.000000000000000000e+00,9.000000000000000000e+00
2.440500000000000000e+04,-1.800000000000000113e-04,-5.999999999999999474e-05,2.999999999999999737e-05,2.000000000000000164e-05,-1.699999999999999851e-04,-1.300000000000000157e-04,-1.000000000000000082e-05,5.000000000000000240e-05,5.000000000000000000e+00,9.000000000000000000e+00
2.440600000000000000e+04,-1.800000000000000113e-04,-5.999999999999999474e-05,2.999999999999999737e-05,2.000000000000000164e-05,-1.699999999999999851e-04,-1.300000000000000157e-04,-1.000000000000000082e-05,5.000000000000000240e-05,5.000000000000000000e+00,9.000000000000000000e+00
2.440700000000000000e+04,-1.800000000000000113e-04,-5.999999999999999474e-05,2.999999999999999737e-05,2.000000000000000164e-05,-1.699999999999999851e-04,-1.300000000000000157e-04,-1.000000000000000082e-05,5.000000000000000240e-05,5.000000000000000000e+00,9.000000000000000000e+00
2.440800000000000000e+04,-1.800000000000000113e-04,-5.999999999999999474e-05,2.999999999999999737e-05,2.000000000000000164e-05,-1.699999999999999851e-04,-1.300000000000000157e-04,-1.000000000000000082e-05,5.000000000000000240e-05,5.000000000000000000e+00,9.000000000000000000e+00
2.440900000000000000e+04,-1.800000000000000113e-04,-5.999999999999999474e-05,2.999999999999999737e-05,2.000000000000000164e-05,-1.699999999999999851e-04,-1.300000000000000157e-04,-1.000000000000000082e-05,5.000000000000000240e-05,5.000000000000000000e+00,9.000000000000000000e+00
2.441000000000000000e+04,-1.800000000000000113e-04,-5.999999999999999474e-05,2.999999999999999737e-05,2.000000000000000164e-05,-1.699999999999999851e-04,-1.300000000000000157e-04,-1.000000000000000082e-05,5.000000000000000240e-05,5.000000000000000000e+00,9.000000000000000000e+00
2.441100000000000000e+04,-1.800000000000000113e-04,-5.999999999999999474e-05,2.999999999999999737e-05,2.000000000000000164e-05,-1.699999999999999851e-04,-1.300000000000000157e-04,-1.000000000000000082e-05,5.000000000000000240e-05,5.000000000000000000e+00,9.000000000000000000e+00
2.441200000000000000e+04,-1.800000000000000113e-04,-5.999999999999999474e-05,2.999999999999999737e-05,2.000000000000000164e-05,-1.699999999999999851e-04,-1.300000000000000157e-04,-1.000000000000000082e-05,5.000000000000000240e-05,5.000000000000000000e+00,9.000000000000000000e+00
2.441300000000000000e+04,-1.800000000000000113e-04,-5.999999999999999474e-05,2.999999999999999737e-05,2.000000000000000164e-05,-1.699999999999999851e-04,-1.300000000000000157e-04,-1.000000000000000082e-05,5.000000000000000240e-05,5.000000000000000000e+00,9.000000000000000000e+00
2.441400000000000000e+04,-1.800000000000000113e-04,-5.999999999999999474e-05,2.999999999999999737e-05,2.000000000000000164e-05,-1.699999999999999851e-04,-1.300000000000000157e-04,-1.000000000000000082e-05,5.000000000000000240e-05,5.000000000000000000e+00,9.000000000000000000e+00
2.441500000000000000e+04,-1.800000000000000113e-04,-5.999999999999999474e-05,2.999999999999999737e-05,2.000000000000000164e-05,-1.699999999999999851e-04,-1.300000000000000157e-04,-1.000000000000000082e-05,5.000000000000000240e-05,5.000000000000000000e+00,9.000000000000000000e+00
2.441600000000000000e+04,-1.800000000000000113e-04,-5.999999999999999474e-05,2.999999999999999737e-05,2.000000000000000164e-05,-1.699999999999999851e-04,-1.300000000000000157e-04,-1.000000000000000082e-05,5.000000000000000240e-05,5.000000000000000000e+00,9.000000000000000000e+00
2.441700000000000000e+04,-1.800000000000000113e-04,-5.999999999999999474e-05,2.999999999999999737e-05,2.000000000000000164e-05,-1.699999999999999851e-04,-1.300000000000000157e-04,-1.000000000000000082e-05,5.000000000000000240e-05,5.000000000000000000e+00,9.000000000000000000e+00
2.441800000000000000e+04,-1.800000000000000113e-04,-5.999999999999999474e-05,2.999999999999999737e-05,2.000000000000000164e-05,-1.699999999999999851e-04,-1.300000000000000157e-04,-1.000000000000000082e-05,5.000000000000000240e-05,5.000000000000000000e+00,9.000000000000000000e+00
2.441900000000000000e+04,-1.800000000000000113e-04,-5.999999999999999474e-05,2.999999999999999737e-05,2.000000000000000164e-05,-1.699999999999999851e-04,-1.300000000000000157e-04,-1.000000000000000082e-05,5.000000000000000240e-05,5.000000000000000000e+00,9.000000000000000000e+00
2.442000000000000000e+04,-1.800000000000000113e-04,-5.999999999999999474e-05,2.999999999999999737e-05,2.000000000000000164e-05,-1.699999999999999851e-04,-1.300000000000000157e-04,-1.000000000000000082e-05,5.000000000000000240e-05,5.000000000000000000e+00,9.000000000000000000e+00
2.442100000000000000e+04,-1.800000000000000113e-04,-5.999999999999999474e-05,2.999999999999999737e-05,2.000000000000000164e-05,-1.699999999999999851e-04,-1.300000000000000157e-04,-1.000000000000000082e-05,5.000000000000000240e-05,5.000000000000000000e+00,9.000000000000000000e+00
2.442200000000000000e+04,-2.000000000000000164e-05,1.000000000000000082e-05,-1.000000000000000082e-05,-1.399999999999999877e-04,2.000000000000000164e-05,8.000000000000000654e-05,-5.999999999999999474e-05,-5.000000000000000240e-05,5.000000000000000000e+00,9.000000000000000000e+00
2.442300000000000000e+04,2.200000000000000078e-04,6.999999999999999387e-05,2.999999999999999737e-05,6.999999999999999387e-05,-6.799999999999999404e-04,-1.499999999999999869e-04,5.000000000000000240e-05,5.999999999999999474e-05,5.000000000000000000e+00,9.000000000000000000e+00
2.442400000000000000e+04,-1.100000000000000039e-04,-1.000000000000000082e-05,8.000000000000000654e-05,2.299999999999999799e-04,2.600000000000000314e-04,-1.000000000000000082e-05,2.000000000000000164e-05,-1.000000000000000082e-05,5.000000000000000000e+00,9.000000000000000000e+00
2.442500000000000000e+04,-1.100000000000000039e-04,-1.000000000000000082e-05,8.000000000000000654e-05,2.299999999999999799e-04,2.600000000000000314e-04,-1.000000000000000082e-05,2.000000000000000164e-05,-1.000000000000000082e-05,5.000000000000000000e+00,9.000000000000000000e+00
2.442600000000000000e+04,-1.100000000000000039e-04,-1.000000000000000082e-05,8.000000000000000654e-05,2.299999999999999799e-04,2.600000000000000314e-04,-1.000000000000000082e-05,2.000000000000000164e-05,-1.000000000000000082e-05,5.000000000000000000e+00,9.000000000000000000e+00
2.442700000000000000e+04,-1.100000000000000039e-04,-1.000000000000000082e-05,8.000000000000000654e-05,2.299999999999999799e-04,2.600000000000000314e-04,-1.000000000000000082e-05,2.000000000000000164e-05,-1.000000000000000082e-05,5.000000000000000000e+00,9.000000000000000000e+00
2.442800000000000000e+04,-1.100000000000000039e-04,-1.000000000000000082e-05,8.000000000000000654e-05,2.299999999999999799e-04,2.600000000000000314e-04,-1.000000000000000082e-05,2.000000000000000164e-05,-1.000000000000000082e-05,5.000000000000000000e+00,9.000000000000000000e+00
2.442900000000000000e+04,-1.100000000000000039e-04,-1.000000000000000082e-05,8.000000000000000654e-05,2.299999999999999799e-04,2.600000000000000314e-04,-1.000000000000000082e-05,2.000000000000000164e-05,-1.000000000000000082e-05,5.000000000000000000e+00,9.000000000000000000e+00
2.443000000000000000e+04,-1.100000000000000039e-04,-1.000000000000000082e-05,8.000000000000000654e-05,2.299999999999999799e-04,2.600000000000000314e-04,-1.000000000000000082e-05,2.000000000000000164e-05,-1.000000000000000082e-05,5.000000000000000000e+00,9.000000000000000000e+00
2.443100000000000000e+04,-1.100000000000000039e-04,-1.000000000000000082e-05,8.000000000000000654e-05,2.299999999999999799e-04,2.600000000000000314e-04,-1.000000000000000082e-05,2.000000000000000164e-05,-1.000000000000000082e-05,5.000000000000000000e+00,9.000000000000000000e+00
2.443200000000000000e+04,-1.100000000000000039e-04,-1.000000000000000082e-05,8.000000000000000654e-05,2.299999999999999799e-04,2.600000000000000314e-04,-1.000000000000000082e-05,2.000000000000000164e-05,-1.000000000000000082e-05,5.000000000000000000e+00,9.000000000000000000e+00
2.443300000000000000e+04,-1.100000000000000039e-04,-1.000000000000000082e-05,8.000000000000000654e-05,2.299999999999999799e-04,2.600000000000000314e-04,-1.000000000000000082e-05,2.000000000000000164e-05,-1.000000000000000082e-05,5.000000000000000000e+00,9.000000000000000000e+00
2.443400000000000000e+04,-1.100000000000000039e-04,-1.000000000000000082e-05,8.000000000000000654e-05,2.299999999999999799e-04,2.600000000000000314e-04,-1.000000000000000082e-05,2.000000000000000164e-05,-1.000000000000000082e-05,5.000000000000000000e+00,9.000000000000000000e+00
2.443500000000000000e+04,-1.100000000000000039e-04,-1.000000000000000082e-05,8.000000000000000654e-05,2.299999999999999799e-04,2.600000000000000314e-04,-1.000000000000000082e-05,2.000000000000000164e-05,-1.000000000000000082e-05,5.000000000000000000e+00,9.000000000000000000e+00
2.443600000000000000e+04,-1.100000000000000039e-04,-1.000000000000000082e-05,8.000000000000000654e-05,2.299999999999999799e-04,2.600000000000000314e-04,-1.000000000000000082e-05,2.000000000000000164e-05,-1.000000000000000082e-05,5.000000000000000000e+00,9.000000000000000000e+00
2.443900000000000000e+04,-6.999999999999999387e-05,-2.000000000000000164e-05,2.000000000000000164e-05,-1.100000000000000039e-04,9.000000000000000567e-05,-4.000000000000000327e-05,-6.999999999999999387e-05,-9.000000000000000567e-05,5.000000000000000000e+00,9.000000000000000000e+00
2.444000000000000000e+04,9.000000000000000567e-05,1.399999999999999877e-04,1.499999999999999869e-04,4.499999999999999877e-04,3.499999999999999964e-04,2.999999999999999737e-04,9.000000000000000567e-05,8.000000000000000654e-05,5.000000000000000000e+00,9.000000000000000000e+00
2.444100000000000000e+04,9.000000000000000567e-05,1.399999999999999877e-04,1.499999999999999869e-04,4.499999999999999877e-04,3.499999999999999964e-04,2.999999999999999737e-04,9.000000000000000567e-05,8.000000000000000654e-05,5.000000000000000000e+00,9.000000000000000000e+00
2.444200000000000000e+04,9.000000000000000567e-05,1.399999999999999877e-04,1.499999999999999869e-04,4.499999999999999877e-04,3.499999999999999964e-04,2.999999999999999737e-04,9.000000000000000567e-05,8.000000000000000654e-05,5.000000000000000000e+00,9.000000000000000000e+00
2.444300000000000000e+04,9.000000000000000567e-05,1.399999999999999877e-04,1.499999999999999869e-04,4.499999999999999877e-04,3.499999999999999964e-04,2.999999999999999737e-04,9.000000000000000567e-05,8.000000000000000654e-05,5.000000000000000000e+00,9.000000000000000000e+00
2.444400000000000000e+04,9.000000000000000567e-05,1.399999999999999877e-04,1.499999999999999869e-04,4.499999999999999877e-04,3.499999999999999964e-04,2.999999999999999737e-04,9.000000000000000567e-05,8.000000000000000654e-05,5.000000000000000000e+00,9.000000000000000000e+00
2.444500000000000000e+04,9.000000000000000567e-05,1.399999999999999877e-04,1.499999999999999869e-04,4.499999999999999877e-04,3.499999999999999964e-04,2.999999999999999737e-04,9.000000000000000567e-05,8.000000000000000654e-05,5.000000000000000000e+00,9.000000000000000000e+00
2.444600000000000000e+04,9.000000000000000567e-05,1.399999999999999877e-04,1.499999999999999869e-04,4.499999999999999877e-04,3.499999999999999964e-04,2.999999999999999737e-04,9.000000000000000567e-05,8.000000000000000654e-05,5.000000000000000000e+00,9.000000000000000000e+00
2.444700000000000000e+04,9.000000000000000567e-05,1.399999999999999877e-04,1.499999999999999869e-04,4.499999999999999877e-04,3.499999999999999964e-04,2.999999999999999737e-04,9.000000000000000567e-05,8.000000000000000654e-05,5.000000000000000000e+00,9.000000000000000000e+00
2.444800000000000000e+04,9.000000000000000567e-05,1.399999999999999877e-04,1.499999999999999869e-04,4.499999999999999877e-04,3.499999999999999964e-04,2.999999999999999737e-04,9.000000000000000567e-05,8.000000000000000654e-05,5.000000000000000000e+00,9.000000000000000000e+00
2.444900000000000000e+04,9.000000000000000567e-05,1.399999999999999877e-04,1.499999999999999869e-04,4.499999999999999877e-04,3.499999999999999964e-04,2.999999999999999737e-04,9.000000000000000567e-05,8.000000000000000654e-05,5.000000000000000000e+00,9.000000000000000000e+00
2.445000000000000000e+04,9.000000000000000567e-05,1.399999999999999877e-04,1.499999999999999869e-04,4.499999999999999877e-04,3.499999999999999964e-04,2.999999999999999737e-04,9.000000000000000567e-05,8.000000000000000654e-05,5.000000000000000000e+00,9.000000000000000000e+00
2.445100000000000000e+04,9.000000000000000567e-05,1.399999999999999877e-04,1.499999999999999869e-04,4.499999999999999877e-04,3.499999999999999964e-04,2.999999999999999737e-04,9.000000000000000567e-05,8.000000000000000654e-05,5.000000000000000000e+00,9.000000000000000000e+00
2.445200000000000000e+04,9.000000000000000567e-05,1.399999999999999877e-04,1.499999999999999869e-04,4.499999999999999877e-04,3.499999999999999964e-04,2.999999999999999737e-04,9.000000000000000567e-05,8.000000000000000654e-05,5.000000000000000000e+00,9.000000000000000000e+00
2.445300000000000000e+04,9.000000000000000567e-05,1.399999999999999877e-04,1.499999999999999869e-04,4.499999999999999877e-04,3.499999999999999964e-04,2.999999999999999737e-04,9.000000000000000567e-05,8.000000000000000654e-05,5.000000000000000000e+00,9.000000000000000000e+00
2.445400000000000000e+04,9.000000000000000567e-05,1.399999999999999877e-04,1.499999999999999869e-04,4.499999999999999877e-04,3.499999999999999964e-04,2.999999999999999737e-04,9.000000000000000567e-05,8.000000000000000654e-05,5.000000000000000000e+00,9.000000000000000000e+00
2.445500000000000000e+04,9.000000000000000567e-05,1.399999999999999877e-04,1.499999999999999869e-04,4.499999999999999877e-04,3.499999999999999964e-04,2.999999999999999737e-04,9.000000000000000567e-05,8.000000000000000654e-05,5.000000000000000000e+00,9.000000000000000000e+00
2.445600000000000000e+04,9.000000000000000567e-05,1.399999999999999877e-04,1.499999999999999869e-04,4.499999999999999877e-04,3.499999999999999964e-04,2.999999999999999737e-04,9.000000000000000567e-05,8.000000000000000654e-05,5.000000000000000000e+00,9.000000000000000000e+00
2.445700000000000000e+04,9.000000000000000567e-05,1.399999999999999877e-04,1.499999999999999869e-04,4.499999999999999877e-04,3.499999999999999964e-04,2.999999999999999737e-04,9.000000000000000567e-05,8.000000000000000654e-05,5.000000000000000000e+00,9.000000000000000000e+00
2.445800000000000000e+04,9.000000000000000567e-05,1.399999999999999877e-04,1.499999999999999869e-04,4.499999999999999877e-04,3.499999999999999964e-04,2.999999999999999737e-04,9.000000000000000567e-05,8.000000000000000654e-05,5.000000000000000000e+00,9.000000000000000000e+00
2.445900000000000000e+04,9.000000000000000567e-05,1.399999999999999877e-04,1.499999999999999869e-04,4.499999999999999877e-04,3.499999999999999964e-04,2.999999999999999737e-04,9.000000000000000567e-05,8.000000000000000654e-05,5.000000000000000000e+00,9.000000000000000000e+00
2.446000000000000000e+04,2.000000000000000164e-05,0.000000000000000000e+00,-5.999999999999999474e-05,3.200000000000000262e-04,3.899999999999999929e-04,1.100000000000000039e-04,1.000000000000000048e-04,2.000000000000000164e-05,5.000000000000000000e+00,9.000000000000000000e+00
2.446100000000000000e+04,-2.999999999999999737e-04,-2.500000000000000052e-04,-1.399999999999999877e-04,-2.999999999999999737e-04,-5.299999999999999807e-04,-1.699999999999999851e-04,-4.000000000000000327e-05,-4.000000000000000327e-05,5.000000000000000000e+00,9.000000000000000000e+00
2.446200000000000000e+04,-2.999999999999999737e-04,-2.500000000000000052e-04,-1.399999999999999877e-04,-2.999999999999999737e-04,-5.299999999999999807e-04,-1.699999999999999851e-04,-4.000000000000000327e-05,-4.000000000000000327e-05,5.000000000000000000e+00,9.000000000000000000e+00
2.446300000000000000e+04,-2.999999999999999737e-04,-2.500000000000000052e-04,-1.399999999999999877e-04,-2.999999999999999737e-04,-5.299999999999999807e-04,-1.699999999999999851e-04,-4.000000000000000327e-05,-4.000000000000000327e-05,5.000000000000000000e+00,9.000000000000000000e+00
2.446400000000000000e+04,-2.999999999999999737e-04,-2.500000000000000052e-04,-1.399999999999999877e-04,-2.999999999999999737e-04,-5.299999999999999807e-04,-1.699999999999999851e-04,-4.000000000000000327e-05,-4.000000000000000327e-05,5.000000000000000000e+00,9.000000000000000000e+00
2.446500000000000000e+04,-2.999999999999999737e-04,-2.500000000000000052e-04,-1.399999999999999877e-04,-2.999999999999999737e-04,-5.299999999999999807e-04,-1.699999999999999851e-04,-4.000000000000000327e-05,-4.000000000000000327e-05,5.000000000000000000e+00,9.000000000000000000e+00
2.446600000000000000e+04,-2.999999999999999737e-04,-2.500000000000000052e-04,-1.399999999999999877e-04,-2.999999999999999737e-04,-5.299999999999999807e-04,-1.699999999999999851e-04,-4.000000000000000327e-05,-4.000000000000000327e-05,5.000000000000000000e+00,9.000000000000000000e+00
2.446700000000000000e+04,-2.999999999999999737e-04,-2.500000000000000052e-04,-1.399999999999999877e-04,-2.999999999999999737e-04,-5.299999999999999807e-04,-1.699999999999999851e-04,-4.000000000000000327e-05,-4.000000000000000327e-05,5.000000000000000000e+00,9.000000000000000000e+00
2.446800000000000000e+04,-2.999999999999999737e-04,-2.500000000000000052e-04,-1.399999999999999877e-04,-2.999999999999999737e-04,-5.299999999999999807e-04,-1.699999999999999851e-04,-4.000000000000000327e-05,-4.000000000000000327e-05,5.000000000000000000e+00,9.000000000000000000e+00
2.446900000000000000e+04,-2.999999999999999737e-04,-2.500000000000000052e-04,-1.399999999999999877e-04,-2.999999999999999737e-04,-5.299999999999999807e-04,-1.699999999999999851e-04,-4.000000000000000327e-05,-4.000000000000000327e-05,5.000000000000000000e+00,9.000000000000000000e+00
2.447000000000000000e+04,-2.999999999999999737e-04,-2.500000000000000052e-04,-1.399999999999999877e-04,-2.999999999999999737e-04,-5.299999999999999807e-04,-1.699999999999999851e-04,-4.000000000000000327e-05,-4.000000000000000327e-05,5.000000000000000000e+00,9.000000000000000000e+00
2.447100000000000000e+04,-2.999999999999999737e-04,-2.500000000000000052e-04,-1.399999999999999877e-04,-2.999999999999999737e-04,-5.299999999999999807e-04,-1.699999999999999851e-04,-4.000000000000000327e-05,-4.000000000000000327e-05,5.000000000000000000e+00,9.000000000000000000e+00
2.447200000000000000e+04,-2.999999999999999737e-04,-2.500000000000000052e-04,-1.399999999999999877e-04,-2.999999999999999737e-04,-5.299999999999999807e-04,-1.699999999999999851e-04,-4.000000000000000327e-05,-4.000000000000000327e-05,5.000000000000000000e+00,9.000000000000000000e+00
2.447300000000000000e+04,1.100000000000000039e-04,2.000000000000000164e-05,4.000000000000000327e-05,1.499999999999999869e-04,-5.000000000000000240e-05,-1.000000000000000082e-05,-1.000000000000000082e-05,-4.000000000000000327e-05,5.000000000000000000e+00,9.000000000000000000e+00
2.447400000000000000e+04,-6.999999999999999387e-05,-8.000000000000000654e-05,-9.000000000000000567e-05,-2.299999999999999799e-04,1.899999999999999834e-04,6.999999999999999387e-05,-2.999999999999999737e-05,0.000000000000000000e+00,5.000000000000000000e+00,9.000000000000000000e+00
2.447600000000000000e+04,-6.999999999999999387e-05,-8.000000000000000654e-05,-9.000000000000000567e-05,-2.299999999999999799e-04,1.899999999999999834e-04,6.999999999999999387e-05,-2.999999999999999737e-05,0.000000000000000000e+00,5.000000000000000000e+00,9.000000000000000000e+00
2.447700000000000000e+04,-6.999999999999999387e-05,-8.000000000000000654e-05,-9.000000000000000567e-05,-2.299999999999999799e-04,1.899999999999999834e-04,6.999999999999999387e-05,-2.999999999999999737e-05,0.000000000000000000e+00,5.000000000000000000e+00,9.000000000000000000e+00
2.447800000000000000e+04,-6.999999999999999387e-05,-8.000000000000000654e-05,-9.000000000000000567e-05,-2.299999999999999799e-04,1.899999999999999834e-04,6.999999999999999387e-05,-2.999999999999999737e-05,0.000000000000000000e+00,5.000000000000000000e+00,9.000000000000000000e+00
2.447900000000000000e+04,-6.999999999999999387e-05,-8.000000000000000654e-05,-9.000000000000000567e-05,-2.299999999999999799e-04,1.899999999999999834e-04,6.999999999999999387e-05,-2.999999999999999737e-05,0.000000000000000000e+00,5.000000000000000000e+00,9.000000000000000000e+00
2.448000000000000000e+04,5.000000000000000240e-05,5.999999999999999474e-05,6.999999999999999387e-05,5.999999999999999474e-05,-2.000000000000000164e-05,2.000000000000000164e-05,-6.999999999999999387e-05,-6.999999999999999387e-05,5.000000000000000000e+00,9.000000000000000000e+00
2.448100000000000000e+04,5.000000000000000240e-05,5.999999999999999474e-05,6.999999999999999387e-05,5.999999999999999474e-05,-2.000000000000000164e-05,2.000000000000000164e-05,-6.999999999999999387e-05,-6.999999999999999387e-05,5.000000000000000000e+00,9.000000000000000000e+00
2.448200000000000000e+04,5.000000000000000240e-05,5.999999999999999474e-05,6.999999999999999387e-05,5.999999999999999474e-05,-2.000000000000000164e-05,2.000000000000000164e-05,-6.999999999999999387e-05,-6.999999999999999387e-05,5.000000000000000000e+00,9.000000000000000000e+00
2.448300000000000000e+04,5.000000000000000240e-05,5.999999999999999474e-05,6.999999999999999387e-05,5.999999999999999474e-05,-2.000000000000000164e-05,2.000000000000000164e-05,-6.999999999999999387e-05,-6.999999999999999387e-05,5.000000000000000000e+00,9.000000000000000000e+00
2.448400000000000000e+04,5.000000000000000240e-05,5.999999999999999474e-05,6.999999999999999387e-05,5.999999999999999474e-05,-2.000000000000000164e-05,2.000000000000000164e-05,-6.999999999999999387e-05,-6.999999999999999387e-05,5.000000000000000000e+00,9.000000000000000000e+00
2.448500000000000000e+04,5.000000000000000240e-05,5.999999999999999474e-05,6.999999999999999387e-05,5.999999999999999474e-05,-2.000000000000000164e-05,2.000000000000000164e-05,-6.999999999999999387e-05,-6.999999999999999387e-05,5.000000000000000000e+00,9.000000000000000000e+00
2.448600000000000000e+04,5.000000000000000240e-05,5.999999999999999474e-05,6.999999999999999387e-05,5.999999999999999474e-05,-2.000000000000000164e-05,2.000000000000000164e-05,-6.999999999999999387e-05,-6.999999999999999387e-05,5.000000000000000000e+00,9.000000000000000000e+00
2.448900000000000000e+04,5.000000000000000240e-05,5.999999999999999474e-05,6.999999999999999387e-05,5.999999999999999474e-05,-2.000000000000000164e-05,2.000000000000000164e-05,-6.999999999999999387e-05,-6.999999999999999387e-05,5.000000000000000000e+00,9.000000000000000000e+00
2.449000000000000000e+04,5.000000000000000240e-05,5.999999999999999474e-05,6.999999999999999387e-05,5.999999999999999474e-05,-2.000000000000000164e-05,2.000000000000000164e-05,-6.999999999999999387e-05,-6.999999999999999387e-05,5.000000000000000000e+00,9.000000000000000000e+00
2.449100000000000000e+04,5.000000000000000240e-05,5.999999999999999474e-05,6.999999999999999387e-05,5.999999999999999474e-05,-2.000000000000000164e-05,2.000000000000000164e-05,-6.999999999999999387e-05,-6.999999999999999387e-05,5.000000000000000000e+00,9.000000000000000000e+00
2.449200000000000000e+04,5.000000000000000240e-05,5.999999999999999474e-05,6.999999999999999387e-05,5.999999999999999474e-05,-2.000000000000000164e-05,2.000000000000000164e-05,-6.999999999999999387e-05,-6.999999999999999387e-05,5.000000000000000000e+00,9.000000000000000000e+00
2.449300000000000000e+04,5.000000000000000240e-05,5.999999999999999474e-05,6.999999999999999387e-05,5.999999999999999474e-05,-2.000000000000000164e-05,2.000000000000000164e-05,-6.999999999999999387e-05,-6.999999999999999387e-05,5.000000000000000000e+00,9.000000000000000000e+00
2.449400000000000000e+04,5.000000000000000240e-05,5.999999999999999474e-05,6.999999999999999387e-05,5.999999999999999474e-05,-2.000000000000000164e-05,2.000000000000000164e-05,-6.999999999999999387e-05,-6.999999999999999387e-05,5.000000000000000000e+00,9.000000000000000000e+00
2.449500000000000000e+04,5.000000000000000240e-05,5.999999999999999474e-05,6.999999999999999387e-05,5.999999999999999474e-05,-2.000000000000000164e-05,2.000000000000000164e-05,-6.999999999999999387e-05,-6.999999999999999387e-05,5.000000000000000000e+00,9.000000000000000000e+00
2.449600000000000000e+04,5.000000000000000240e-05,5.999999999999999474e-05,6.999999999999999387e-05,5.999999999999999474e-05,-2.000000000000000164e-05,2.000000000000000164e-05,-6.999999999999999387e-05,-6.999999999999999387e-05,5.000000000000000000e+00,9.000000000000000000e+00
2.449700000000000000e+04,-1.800000000000000113e-04,-1.100000000000000039e-04,-4.000000000000000327e-05,-2.600000000000000314e-04,-5.000000000000000104e-04,-2.100000000000000087e-04,1.000000000000000082e-05,-5.999999999999999474e-05,5.000000000000000000e+00,9.000000000000000000e+00
2.449800000000000000e+04,-2.000000000000000164e-05,4.000000000000000327e-05,6.999999999999999387e-05,1.399999999999999877e-04,1.199999999999999895e-04,1.199999999999999895e-04,2.000000000000000164e-05,-1.000000000000000082e-05,5.000000000000000000e+00,9.000000000000000000e+00
2.449900000000000000e+04,-2.000000000000000164e-05,4.000000000000000327e-05,6.999999999999999387e-05,1.399999999999999877e-04,1.199999999999999895e-04,1.199999999999999895e-04,2.000000000000000164e-05,-1.000000000000000082e-05,5.000000000000000000e+00,9.000000000000000000e+00
2.450000000000000000e+04,-2.000000000000000164e-05,4.000000000000000327e-05,6.999999999999999387e-05,1.399999999999999877e-04,1.199999999999999895e-04,1.199999999999999895e-04,2.000000000000000164e-05,-1.000000000000000082e-05,5.000000000000000000e+00,9.000000000000000000e+00
2.450100000000000000e+04,-2.000000000000000164e-05,4.000000000000000327e-05,6.999999999999999387e-05,1.399999999999999877e-04,1.199999999999999895e-04,1.199999999999999895e-04,2.000000000000000164e-05,-1.000000000000000082e-05,5.000000000000000000e+00,9.000000000000000000e+00
2.450200000000000000e+04,-2.000000000000000164e-05,4.000000000000000327e-05,6.999999999999999387e-05,1.399999999999999877e-04,1.199999999999999895e-04,1.199999999999999895e-04,2.000000000000000164e-05,-1.000000000000000082e-05,5.000000000000000000e+00,9.000000000000000000e+00
2.450300000000000000e+04,-2.000000000000000164e-05,4.000000000000000327e-05,6.999999999999999387e-05,1.399999999999999877e-04,1.199999999999999895e-04,1.199999999999999895e-04,2.000000000000000164e-05,-1.000000000000000082e-05,5.000000000000000000e+00,9.000000000000000000e+00
2.450400000000000000e+04,-2.000000000000000164e-05,4.000000000000000327e-05,6.999999999999999387e-05,1.399999999999999877e-04,1.199999999999999895e-04,1.199999999999999895e-04,2.000000000000000164e-05,-1.000000000000000082e-05,5.000000000000000000e+00,9.000000000000000000e+00
2.450500000000000000e+04,-2.000000000000000164e-05,4.000000000000000327e-05,6.999999999999999387e-05,1.399999999999999877e-04,1.199999999999999895e-04,1.199999999999999895e-04,2.000000000000000164e-05,-1.000000000000000082e-05,5.000000000000000000e+00,9.000000000000000000e+00
2.450600000000000000e+04,-2.000000000000000164e-05,4.000000000000000327e-05,6.999999999999999387e-05,1.399999999999999877e-04,1.199999999999999895e-04,1.199999999999999895e-04,2.000000000000000164e-05,-1.000000000000000082e-05,5.000000000000000000e+00,9.000000000000000000e+00
2.450700000000000000e+04,-2.000000000000000164e-05,4.000000000000000327e-05,6.999999999999999387e-05,1.399999999999999877e-04,1.199999999999999895e-04,1.199999999999999895e-04,2.000000000000000164e-05,-1.000000000000000082e-05,5.000000000000000000e+00,9.000000000000000000e+00
2.450800000000000000e+04,-2.000000000000000164e-05,4.000000000000000327e-05,6.999999999999999387e-05,1.399999999999999877e-04,1.199999999999999895e-04,1.199999999999999895e-04,2.000000000000000164e-05,-1.000000000000000082e-05,5.000000000000000000e+00,9.000000000000000000e+00
2.450900000000000000e+04,-2.000000000000000164e-05,4.000000000000000327e-05,6.999999999999999387e-05,1.399999999999999877e-04,1.199999999999999895e-04,1.199999999999999895e-04,2.000000000000000164e-05,-1.000000000000000082e-05,5.000000000000000000e+00,9.000000000000000000e+00
2.451000000000000000e+04,-2.000000000000000164e-05,4.000000000000000327e-05,6.999999999999999387e-05,1.399999999999999877e-04,1.199999999999999895e-04,1.199999999999999895e-04,2.000000000000000164e-05,-1.000000000000000082e-05,5.000000000000000000e+00,9.000000000000000000e+00
2.451100000000000000e+04,-2.000000000000000164e-05,4.000000000000000327e-05,6.999999999999999387e-05,1.399999999999999877e-04,1.199999999999999895e-04,1.199999999999999895e-04,2.000000000000000164e-05,-1.000000000000000082e-05,5.000000000000000000e+00,9.000000000000000000e+00
2.451200000000000000e+04,-2.000000000000000164e-05,4.000000000000000327e-05,6.999999999999999387e-05,1.399999999999999877e-04,1.199999999999999895e-04,1.199999999999999895e-04,2.000000000000000164e-05,-1.000000000000000082e-05,5.000000000000000000e+00,9.000000000000000000e+00
2.451300000000000000e+04,-2.000000000000000164e-05,4.000000000000000327e-05,6.999999999999999387e-05,1.399999999999999877e-04,1.199999999999999895e-04,1.199999999999999895e-04,2.000000000000000164e-05,-1.000000000000000082e-05,5.000000000000000000e+00,9.000000000000000000e+00
2.451400000000000000e+04,-2.000000000000000164e-05,4.000000000000000327e-05,6.999999999999999387e-05,1.399999999999999877e-04,1.199999999999999895e-04,1.199999999999999895e-04,2.000000000000000164e-05,-1.000000000000000082e-05,5.000000000000000000e+00,9.000000000000000000e+00
2.451500000000000000e+04,-2.000000000000000164e-05,4.000000000000000327e-05,6.999999999999999387e-05,1.399999999999999877e-04,1.199999999999999895e-04,1.199999999999999895e-04,2.000000000000000164e-05,-1.000000000000000082e-05,5.000000000000000000e+00,9.000000000000000000e+00
2.451600000000000000e+04,-2.000000000000000164e-05,4.000000000000000327e-05,6.999999999999999387e-05,1.399999999999999877e-04,1.199999999999999895e-04,1.199999999999999895e-04,2.000000000000000164e-05,-1.000000000000000082e-05,5.000000000000000000e+00,9.000000000000000000e+00
2.451700000000000000e+04,-2.000000000000000164e-05,4.000000000000000327e-05,6.999999999999999387e-05,1.399999999999999877e-04,1.199999999999999895e-04,1.199999999999999895e-04,2.000000000000000164e-05,-1.000000000000000082e-05,5.000000000000000000e+00,9.000000000000000000e+00
2.451800000000000000e+04,-2.000000000000000164e-05,4.000000000000000327e-05,6.999999999999999387e-05,1.399999999999999877e-04,1.199999999999999895e-04,1.199999999999999895e-04,2.000000000000000164e-05,-1.000000000000000082e-05,5.000000000000000000e+00,9.000000000000000000e+00
2.451900000000000000e+04,-2.000000000000000164e-05,4.000000000000000327e-05,6.999999999999999387e-05,1.399999999999999877e-04,1.199999999999999895e-04,1.199999999999999895e-04,2.000000000000000164e-05,-1.000000000000000082e-05,5.000000000000000000e+00,9.000000000000000000e+00
2.452000000000000000e+04,-2.000000000000000164e-05,4.000000000000000327e-05,6.999999999999999387e-05,1.399999999999999877e-04,1.199999999999999895e-04,1.199999999999999895e-04,2.000000000000000164e-05,-1.000000000000000082e-05,5.000000000000000000e+00,9.000000000000000000e+00
2.452100000000000000e+04,-2.000000000000000164e-05,4.000000000000000327e-05,6.999999999999999387e-05,1.399999999999999877e-04,1.199999999999999895e-04,1.199999999999999895e-04,2.000000000000000164e-05,-1.000000000000000082e-05,5.000000000000000000e+00,9.000000000000000000e+00
2.452200000000000000e+04,-2.000000000000000164e-05,4.000000000000000327e-05,6.999999999999999387e-05,1.399999999999999877e-04,1.199999999999999895e-04,1.199999999999999895e-04,2.000000000000000164e-05,-1.000000000000000082e-05,5.000000000000000000e+00,9.000000000000000000e+00
2.452300000000000000e+04,-2.000000000000000164e-05,4.000000000000000327e-05,6.999999999999999387e-05,1.399999999999999877e-04,1.199999999999999895e-04,1.199999999999999895e-04,2.000000000000000164e-05,-1.000000000000000082e-05,5.000000000000000000e+00,9.000000000000000000e+00
2.452400000000000000e+04,-2.000000000000000164e-05,4.000000000000000327e-05,6.999999999999999387e-05,1.399999999999999877e-04,1.199999999999999895e-04,1.199999999999999895e-04,2.000000000000000164e-05,-1.000000000000000082e-05,5.000000000000000000e+00,9.000000000000000000e+00
2.452500000000000000e+04,-2.000000000000000164e-05,4.000000000000000327e-05,6.999999999999999387e-05,1.399999999999999877e-04,1.199999999999999895e-04,1.199999999999999895e-04,2.000000000000000164e-05,-1.000000000000000082e-05,5.000000000000000000e+00,9.000000000000000000e+00
2.452600000000000000e+04,-2.000000000000000164e-05,4.000000000000000327e-05,6.999999999999999387e-05,1.399999999999999877e-04,1.199999999999999895e-04,1.199999999999999895e-04,2.000000000000000164e-05,-1.000000000000000082e-05,5.000000000000000000e+00,9.000000000000000000e+00
2.452700000000000000e+04,-8.000000000000000654e-05,-1.000000000000000082e-05,1.300000000000000157e-04,1.000000000000000048e-04,1.600000000000000131e-04,8.000000000000000654e-05,-2.000000000000000164e-05,-2.000000000000000164e-05,5.000000000000000000e+00,9.000000000000000000e+00
2.452800000000000000e+04,5.999999999999999474e-05,-2.000000000000000164e-05,-1.000000000000000048e-04,-2.000000000000000164e-05,2.200000000000000078e-04,-1.000000000000000082e-05,0.000000000000000000e+00,-1.000000000000000082e-05,5.000000000000000000e+00,9.000000000000000000e+00
2.452900000000000000e+04,5.999999999999999474e-05,-2.000000000000000164e-05,-1.000000000000000048e-04,-2.000000000000000164e-05,2.200000000000000078e-04,-1.000000000000000082e-05,0.000000000000000000e+00,-1.000000000000000082e-05,5.000000000000000000e+00,9.000000000000000000e+00
2.453000000000000000e+04,5.999999999999999474e-05,-2.000000000000000164e-05,-1.000000000000000048e-04,-2.000000000000000164e-05,2.200000000000000078e-04,-1.000000000000000082e-05,0.000000000000000000e+00,-1.000000000000000082e-05,5.000000000000000000e+00,9.000000000000000000e+00
2.453100000000000000e+04,5.999999999999999474e-05,-2.000000000000000164e-05,-1.000000000000000048e-04,-2.000000000000000164e-05,2.200000000000000078e-04,-1.000000000000000082e-05,0.000000000000000000e+00,-1.000000000000000082e-05,5.000000000000000000e+00,9.000000000000000000e+00
2.453200000000000000e+04,5.999999999999999474e-05,-2.000000000000000164e-05,-1.000000000000000048e-04,-2.000000000000000164e-05,2.200000000000000078e-04,-1.000000000000000082e-05,0.000000000000000000e+00,-1.000000000000000082e-05,5.000000000000000000e+00,9.000000000000000000e+00
2.453300000000000000e+04,1.600000000000000131e-04,1.199999999999999895e-04,1.600000000000000131e-04,-1.199999999999999895e-04,1.399999999999999877e-04,3.099999999999999999e-04,1.300000000000000157e-04,5.000000000000000240e-05,5.000000000000000000e+00,9.000000000000000000e+00
2.453400000000000000e+04,1.600000000000000131e-04,1.199999999999999895e-04,1.600000000000000131e-04,-1.199999999999999895e-04,1.399999999999999877e-04,3.099999999999999999e-04,1.300000000000000157e-04,5.000000000000000240e-05,5.000000000000000000e+00,9.000000000000000000e+00
2.453500000000000000e+04,1.600000000000000131e-04,1.199999999999999895e-04,1.600000000000000131e-04,-1.199999999999999895e-04,1.399999999999999877e-04,3.099999999999999999e-04,1.300000000000000157e-04,5.000000000000000240e-05,5.000000000000000000e+00,9.000000000000000000e+00
2.453600000000000000e+04,1.600000000000000131e-04,1.199999999999999895e-04,1.600000000000000131e-04,-1.199999999999999895e-04,1.399999999999999877e-04,3.099999999999999999e-04,1.300000000000000157e-04,5.000000000000000240e-05,5.000000000000000000e+00,9.000000000000000000e+00
2.453900000000000000e+04,1.600000000000000131e-04,1.199999999999999895e-04,1.600000000000000131e-04,-1.199999999999999895e-04,1.399999999999999877e-04,3.099999999999999999e-04,1.300000000000000157e-04,5.000000000000000240e-05,5.000000000000000000e+00,9.000000000000000000e+00
2.454000000000000000e+04,1.600000000000000131e-04,1.199999999999999895e-04,1.600000000000000131e-04,-1.199999999999999895e-04,1.399999999999999877e-04,3.099999999999999999e-04,1.300000000000000157e-04,5.000000000000000240e-05,5.000000000000000000e+00,9.000000000000000000e+00
2.454100000000000000e+04,1.600000000000000131e-04,1.199999999999999895e-04,1.600000000000000131e-04,-1.199999999999999895e-04,1.399999999999999877e-04,3.099999999999999999e-04,1.300000000000000157e-04,5.000000000000000240e-05,5.000000000000000000e+00,9.000000000000000000e+00
2.454200000000000000e+04,1.600000000000000131e-04,1.199999999999999895e-04,1.600000000000000131e-04,-1.199999999999999895e-04,1.399999999999999877e-04,3.099999999999999999e-04,1.300000000000000157e-04,5.000000000000000240e-05,5.000000000000000000e+00,9.000000000000000000e+00
2.454300000000000000e+04,1.600000000000000131e-04,1.199999999999999895e-04,1.600000000000000131e-04,-1.199999999999999895e-04,1.399999999999999877e-04,3.099999999999999999e-04,1.300000000000000157e-04,5.000000000000000240e-05,5.000000000000000000e+00,9.000000000000000000e+00
2.454400000000000000e+04,1.600000000000000131e-04,1.199999999999999895e-04,1.600000000000000131e-04,-1.199999999999999895e-04,1.399999999999999877e-04,3.099999999999999999e-04,1.300000000000000157e-04,5.000000000000000240e-05,5.000000000000000000e+00,9.000000000000000000e+00
2.454500000000000000e+04,1.600000000000000131e-04,1.199999999999999895e-04,1.600000000000000131e-04,-1.199999999999999895e-04,1.399999999999999877e-04,3.099999999999999999e-04,1.300000000000000157e-04,5.000000000000000240e-05,5.000000000000000000e+00,9.000000000000000000e+00
2.454600000000000000e+04,1.600000000000000131e-04,1.199999999999999895e-04,1.600000000000000131e-04,-1.199999999999999895e-04,1.399999999999999877e-04,3.099999999999999999e-04,1.300000000000000157e-04,5.000000000000000240e-05,5.000000000000000000e+00,9.000000000000000000e+00
2.454700000000000000e+04,1.600000000000000131e-04,1.199999999999999895e-04,1.600000000000000131e-04,-1.199999999999999895e-04,1.399999999999999877e-04,3.099999999999999999e-04,1.300000000000000157e-04,5.000000000000000240e-05,5.000000000000000000e+00,9.000000000000000000e+00
2.454800000000000000e+04,-1.899999999999999834e-04,-1.199999999999999895e-04,-1.000000000000000048e-04,-1.499999999999999869e-04,-1.600000000000000131e-04,-8.000000000000000654e-05,-8.000000000000000654e-05,-2.000000000000000164e-05,5.000000000000000000e+00,9.000000000000000000e+00
2.454900000000000000e+04,0.000000000000000000e+00,4.000000000000000327e-05,8.000000000000000654e-05,-1.199999999999999895e-04,-4.099999999999999912e-04,-5.999999999999999474e-05,-1.000000000000000082e-05,1.000000000000000082e-05,5.000000000000000000e+00,9.000000000000000000e+00
2.455100000000000000e+04,0.000000000000000000e+00,4.000000000000000327e-05,8.000000000000000654e-05,-1.199999999999999895e-04,-4.099999999999999912e-04,-5.999999999999999474e-05,-1.000000000000000082e-05,1.000000000000000082e-05,5.000000000000000000e+00,9.000000000000000000e+00
2.455200000000000000e+04,0.000000000000000000e+00,4.000000000000000327e-05,8.000000000000000654e-05,-1.199999999999999895e-04,-4.099999999999999912e-04,-5.999999999999999474e-05,-1.000000000000000082e-05,1.000000000000000082e-05,5.000000000000000000e+00,9.000000000000000000e+00
2.455300000000000000e+04,0.000000000000000000e+00,4.000000000000000327e-05,8.000000000000000654e-05,-1.199999999999999895e-04,-4.099999999999999912e-04,-5.999999999999999474e-05,-1.000000000000000082e-05,1.000000000000000082e-05,5.000000000000000000e+00,9.000000000000000000e+00
2.455400000000000000e+04,0.000000000000000000e+00,4.000000000000000327e-05,8.000000000000000654e-05,-1.199999999999999895e-04,-4.099999999999999912e-04,-5.999999999999999474e-05,-1.000000000000000082e-05,1.000000000000000082e-05,5.000000000000000000e+00,9.000000000000000000e+00
2.455500000000000000e+04,0.000000000000000000e+00,4.000000000000000327e-05,8.000000000000000654e-05,-1.199999999999999895e-04,-4.099999999999999912e-04,-5.999999999999999474e-05,-1.000000000000000082e-05,1.000000000000000082e-05,5.000000000000000000e+00,9.000000000000000000e+00
2.455600000000000000e+04,-1.000000000000000048e-04,-1.199999999999999895e-04,-1.100000000000000039e-04,-4.099999999999999912e-04,-2.299999999999999799e-04,-9.000000000000000567e-05,-6.999999999999999387e-05,-5.000000000000000240e-05,5.000000000000000000e+00,9.000000000000000000e+00
2.455700000000000000e+04,-1.000000000000000048e-04,-1.199999999999999895e-04,-1.100000000000000039e-04,-4.099999999999999912e-04,-2.299999999999999799e-04,-9.000000000000000567e-05,-6.999999999999999387e-05,-5.000000000000000240e-05,5.000000000000000000e+00,9.000000000000000000e+00
2.455800000000000000e+04,-1.000000000000000048e-04,-1.199999999999999895e-04,-1.100000000000000039e-04,-4.099999999999999912e-04,-2.299999999999999799e-04,-9.000000000000000567e-05,-6.999999999999999387e-05,-5.000000000000000240e-05,5.000000000000000000e+00,9.000000000000000000e+00
2.455900000000000000e+04,-1.000000000000000048e-04,-1.199999999999999895e-04,-1.100000000000000039e-04,-4.099999999999999912e-04,-2.299999999999999799e-04,-9.000000000000000567e-05,-6.999999999999999387e-05,-5.000000000000000240e-05,5.000000000000000000e+00,9.000000000000000000e+00
2.456000000000000000e+04,-1.000000000000000048e-04,-1.199999999999999895e-04,-1.100000000000000039e-04,-4.099999999999999912e-04,-2.299999999999999799e-04,-9.000000000000000567e-05,-6.999999999999999387e-05,-5.000000000000000240e-05,5.000000000000000000e+00,9.000000000000000000e+00
2.456100000000000000e+04,-1.000000000000000048e-04,-1.199999999999999895e-04,-1.100000000000000039e-04,-4.099999999999999912e-04,-2.299999999999999799e-04,-9.000000000000000567e-05,-6.999999999999999387e-05,-5.000000000000000240e-05,5.000000000000000000e+00,9.000000000000000000e+00
2.456200000000000000e+04,-1.000000000000000048e-04,-1.199999999999999895e-04,-1.100000000000000039e-04,-4.099999999999999912e-04,-2.299999999999999799e-04,-9.000000000000000567e-05,-6.999999999999999387e-05,-5.000000000000000240e-05,5.000000000000000000e+00,9.000000000000000000e+00
2.456300000000000000e+04,1.499999999999999869e-04,1.300000000000000157e-04,2.999999999999999737e-05,2.799999999999999755e-04,3.699999999999999947e-04,1.000000000000000082e-05,-2.999999999999999737e-05,0.000000000000000000e+00,5.000000000000000000e+00,9.000000000000000000e+00
2.456400000000000000e+04,1.399999999999999877e-04,2.000000000000000164e-05,6.999999999999999387e-05,0.000000000000000000e+00,3.299999999999999982e-04,8.000000000000000654e-05,6.999999999999999387e-05,2.999999999999999737e-05,5.000000000000000000e+00,9.000000000000000000e+00
2.456500000000000000e+04,1.399999999999999877e-04,2.000000000000000164e-05,6.999999999999999387e-05,0.000000000000000000e+00,3.299999999999999982e-04,8.000000000000000654e-05,6.999999999999999387e-05,2.999999999999999737e-05,5.000000000000000000e+00,9.000000000000000000e+00
2.456600000000000000e+04,1.399999999999999877e-04,2.000000000000000164e-05,6.999999999999999387e-05,0.000000000000000000e+00,3.299999999999999982e-04,8.000000000000000654e-05,6.999999999999999387e-05,2.999999999999999737e-05,5.000000000000000000e+00,9.000000000000000000e+00
2.456700000000000000e+04,1.399999999999999877e-04,2.000000000000000164e-05,6.999999999999999387e-05,0.000000000000000000e+00,3.299999999999999982e-04,8.000000000000000654e-05,6.999999999999999387e-05,2.999999999999999737e-05,5.000000000000000000e+00,9.000000000000000000e+00
2.456800000000000000e+04,1.399999999999999877e-04,2.000000000000000164e-05,6.999999999999999387e-05,0.000000000000000000e+00,3.299999999999999982e-04,8.000000000000000654e-05,6.999999999999999387e-05,2.999999999999999737e-05,5.000000000000000000e+00,9.000000000000000000e+00
2.456900000000000000e+04,1.399999999999999877e-04,2.000000000000000164e-05,6.999999999999999387e-05,0.000000000000000000e+00,3.299999999999999982e-04,8.000000000000000654e-05,6.999999999999999387e-05,2.999999999999999737e-05,5.000000000000000000e+00,9.000000000000000000e+00
2.457000000000000000e+04,1.399999999999999877e-04,2.000000000000000164e-05,6.999999999999999387e-05,0.000000000000000000e+00,3.299999999999999982e-04,8.000000000000000654e-05,6.999999999999999387e-05,2.999999999999999737e-05,5.000000000000000000e+00,9.000000000000000000e+00
2.457100000000000000e+04,1.399999999999999877e-04,2.000000000000000164e-05,6.999999999999999387e-05,0.000000000000000000e+00,3.299999999999999982e-04,8.000000000000000654e-05,6.999999999999999387e-05,2.999999999999999737e-05,5.000000000000000000e+00,9.000000000000000000e+00
2.457200000000000000e+04,1.399999999999999877e-04,2.000000000000000164e-05,6.999999999999999387e-05,0.000000000000000000e+00,3.299999999999999982e-04,8.000000000000000654e-05,6.999999999999999387e-05,2.999999999999999737e-05,5.000000000000000000e+00,9.000000000000000000e+00
2.457300000000000000e+04,1.399999999999999877e-04,2.000000000000000164e-05,6.999999999999999387e-05,0.000000000000000000e+00,3.299999999999999982e-04,8.000000000000000654e-05,6.999999999999999387e-05,2.999999999999999737e-05,5.000000000000000000e+00,9.000000000000000000e+00
2.457400000000000000e+04,1.399999999999999877e-04,2.000000000000000164e-05,6.999999999999999387e-05,0.000000000000000000e+00,3.299999999999999982e-04,8.000000000000000654e-05,6.999999999999999387e-05,2.999999999999999737e-05,5.000000000000000000e+00,9.000000000000000000e+00
2.457500000000000000e+04,1.399999999999999877e-04,2.000000000000000164e-05,6.999999999999999387e-05,0.000000000000000000e+00,3.299999999999999982e-04,8.000000000000000654e-05,6.999999999999999387e-05,2.999999999999999737e-05,5.000000000000000000e+00,9.000000000000000000e+00
2.457600000000000000e+04,1.399999999999999877e-04,2.000000000000000164e-05,6.999999999999999387e-05,0.000000000000000000e+00,3.299999999999999982e-04,8.000000000000000654e-05,6.999999999999999387e-05,2.999999999999999737e-05,5.000000000000000000e+00,9.000000000000000000e+00
2.457700000000000000e+04,1.399999999999999877e-04,2.000000000000000164e-05,6.999999999999999387e-05,0.000000000000000000e+00,3.299999999999999982e-04,8.000000000000000654e-05,6.999999999999999387e-05,2.999999999999999737e-05,5.000000000000000000e+00,9.000000000000000000e+00
2.457800000000000000e+04,1.399999999999999877e-04,2.000000000000000164e-05,6.999999999999999387e-05,0.000000000000000000e+00,3.299999999999999982e-04,8.000000000000000654e-05,6.999999999999999387e-05,2.999999999999999737e-05,5.000000000000000000e+00,9.000000000000000000e+00
2.457900000000000000e+04,1.399999999999999877e-04,2.000000000000000164e-05,6.999999999999999387e-05,0.000000000000000000e+00,3.299999999999999982e-04,8.000000000000000654e-05,6.999999999999999387e-05,2.999999999999999737e-05,5.000000000000000000e+00,9.000000000000000000e+00
2.458000000000000000e+04,1.399999999999999877e-04,2.000000000000000164e-05,6.999999999999999387e-05,0.000000000000000000e+00,3.299999999999999982e-04,8.000000000000000654e-05,6.999999999999999387e-05,2.999999999999999737e-05,5.000000000000000000e+00,9.000000000000000000e+00
2.458100000000000000e+04,1.399999999999999877e-04,2.000000000000000164e-05,6.999999999999999387e-05,0.000000000000000000e+00,3.299999999999999982e-04,8.000000000000000654e-05,6.999999999999999387e-05,2.999999999999999737e-05,5.000000000000000000e+00,9.000000000000000000e+00
2.458200000000000000e+04,1.399999999999999877e-04,2.000000000000000164e-05,6.999999999999999387e-05,0.000000000000000000e+00,3.299999999999999982e-04,8.000000000000000654e-05,6.999999999999999387e-05,2.999999999999999737e-05,5.000000000000000000e+00,9.000000000000000000e+00
2.458300000000000000e+04,1.399999999999999877e-04,2.000000000000000164e-05,6.999999999999999387e-05,0.000000000000000000e+00,3.299999999999999982e-04,8.000000000000000654e-05,6.999999999999999387e-05,2.999999999999999737e-05,5.000000000000000000e+00,9.000000000000000000e+00
2.458400000000000000e+04,1.399999999999999877e-04,2.000000000000000164e-05,6.999999999999999387e-05,0.000000000000000000e+00,3.299999999999999982e-04,8.000000000000000654e-05,6.999999999999999387e-05,2.999999999999999737e-05,5.000000000000000000e+00,9.000000000000000000e+00
2.458500000000000000e+04,1.399999999999999877e-04,2.000000000000000164e-05,6.999999999999999387e-05,0.000000000000000000e+00,3.299999999999999982e-04,8.000000000000000654e-05,6.999999999999999387e-05,2.999999999999999737e-05,5.000000000000000000e+00,9.000000000000000000e+00
2.458700000000000000e+04,5.000000000000000240e-05,2.000000000000000164e-05,-8.000000000000000654e-05,-1.499999999999999869e-04,2.000000000000000164e-05,1.300000000000000157e-04,2.999999999999999737e-05,1.000000000000000082e-05,5.000000000000000000e+00,9.000000000000000000e+00
2.459000000000000000e+04,5.999999999999999474e-05,1.000000000000000082e-05,-2.999999999999999737e-05,2.100000000000000087e-04,1.199999999999999895e-04,0.000000000000000000e+00,2.000000000000000164e-05,2.000000000000000164e-05,5.000000000000000000e+00,9.000000000000000000e+00
2.459100000000000000e+04,5.999999999999999474e-05,1.000000000000000082e-05,-2.999999999999999737e-05,2.100000000000000087e-04,1.199999999999999895e-04,0.000000000000000000e+00,2.000000000000000164e-05,2.000000000000000164e-05,5.000000000000000000e+00,9.000000000000000000e+00
2.459200000000000000e+04,5.999999999999999474e-05,1.000000000000000082e-05,-2.999999999999999737e-05,2.100000000000000087e-04,1.199999999999999895e-04,0.000000000000000000e+00,2.000000000000000164e-05,2.000000000000000164e-05,5.000000000000000000e+00,9.000000000000000000e+00
2.459300000000000000e+04,-4.000000000000000327e-05,0.000000000000000000e+00,-6.999999999999999387e-05,-9.000000000000000567e-05,1.600000000000000131e-04,-1.000000000000000082e-05,-5.999999999999999474e-05,-2.999999999999999737e-05,5.000000000000000000e+00,9.000000000000000000e+00
2.459400000000000000e+04,-4.000000000000000327e-05,0.000000000000000000e+00,-6.999999999999999387e-05,-9.000000000000000567e-05,1.600000000000000131e-04,-1.000000000000000082e-05,-5.999999999999999474e-05,-2.999999999999999737e-05,5.000000000000000000e+00,9.000000000000000000e+00
2.459500000000000000e+04,-4.000000000000000327e-05,0.000000000000000000e+00,-6.999999999999999387e-05,-9.000000000000000567e-05,1.600000000000000131e-04,-1.000000000000000082e-05,-5.999999999999999474e-05,-2.999999999999999737e-05,5.000000000000000000e+00,9.000000000000000000e+00
2.459600000000000000e+04,-4.000000000000000327e-05,0.000000000000000000e+00,-6.999999999999999387e-05,-9.000000000000000567e-05,1.600000000000000131e-04,-1.000000000000000082e-05,-5.999999999999999474e-05,-2.999999999999999737e-05,5.000000000000000000e+00,9.000000000000000000e+00
2.459700000000000000e+04,-4.000000000000000327e-05,0.000000000000000000e+00,-6.999999999999999387e-05,-9.000000000000000567e-05,1.600000000000000131e-04,-1.000000000000000082e-05,-5.999999999999999474e-05,-2.999999999999999737e-05,5.000000000000000000e+00,9.000000000000000000e+00
2.459800000000000000e+04,-4.000000000000000327e-05,0.000000000000000000e+00,-6.999999999999999387e-05,-9.000000000000000567e-05,1.600000000000000131e-04,-1.000000000000000082e-05,-5.999999999999999474e-05,-2.999999999999999737e-05,5.000000000000000000e+00,9.000000000000000000e+00
2.459900000000000000e+04,-4.000000000000000327e-05,0.000000000000000000e+00,-6.999999999999999387e-05,-9.000000000000000567e-05,1.600000000000000131e-04,-1.000000000000000082e-05,-5.999999999999999474e-05,-2.999999999999999737e-05,5.000000000000000000e+00,9.000000000000000000e+00
2.460000000000000000e+04,-4.000000000000000327e-05,0.000000000000000000e+00,-6.999999999999999387e-05,-9.000000000000000567e-05,1.600000000000000131e-04,-1.000000000000000082e-05,-5.999999999999999474e-05,-2.999999999999999737e-05,5.000000000000000000e+00,9.000000000000000000e+00
2.460100000000000000e+04,-4.000000000000000327e-05,0.000000000000000000e+00,-6.999999999999999387e-05,-9.000000000000000567e-05,1.600000000000000131e-04,-1.000000000000000082e-05,-5.999999999999999474e-05,-2.999999999999999737e-05,5.000000000000000000e+00,9.000000000000000000e+00
2.460200000000000000e+04,-4.000000000000000327e-05,0.000000000000000000e+00,-6.999999999999999387e-05,-9.000000000000000567e-05,1.600000000000000131e-04,-1.000000000000000082e-05,-5.999999999999999474e-05,-2.999999999999999737e-05,5.000000000000000000e+00,9.000000000000000000e+00
2.460300000000000000e+04,-4.000000000000000327e-05,0.000000000000000000e+00,-6.999999999999999387e-05,-9.000000000000000567e-05,1.600000000000000131e-04,-1.000000000000000082e-05,-5.999999999999999474e-05,-2.999999999999999737e-05,5.000000000000000000e+00,9.000000000000000000e+00
2.460400000000000000e+04,-4.000000000000000327e-05,0.000000000000000000e+00,-6.999999999999999387e-05,-9.000000000000000567e-05,1.600000000000000131e-04,-1.000000000000000082e-05,-5.999999999999999474e-05,-2.999999999999999737e-05,5.000000000000000000e+00,9.000000000000000000e+00
2.460500000000000000e+04,-4.000000000000000327e-05,0.000000000000000000e+00,-6.999999999999999387e-05,-9.000000000000000567e-05,1.600000000000000131e-04,-1.000000000000000082e-05,-5.999999999999999474e-05,-2.999999999999999737e-05,5.000000000000000000e+00,9.000000000000000000e+00
2.460600000000000000e+04,-4.000000000000000327e-05,0.000000000000000000e+00,-6.999999999999999387e-05,-9.000000000000000567e-05,1.600000000000000131e-04,-1.000000000000000082e-05,-5.999999999999999474e-05,-2.999999999999999737e-05,5.000000000000000000e+00,9.000000000000000000e+00
2.460700000000000000e+04,-4.000000000000000327e-05,0.000000000000000000e+00,-6.999999999999999387e-05,-9.000000000000000567e-05,1.600000000000000131e-04,-1.000000000000000082e-05,-5.999999999999999474e-05,-2.999999999999999737e-05,5.000000000000000000e+00,9.000000000000000000e+00
2.460800000000000000e+04,-1.199999999999999895e-04,-9.000000000000000567e-05,-1.499999999999999869e-04,-4.000000000000000327e-05,-1.600000000000000131e-04,-1.100000000000000039e-04,-9.000000000000000567e-05,-9.000000000000000567e-05,5.000000000000000000e+00,9.000000000000000000e+00
2.460900000000000000e+04,-1.199999999999999895e-04,-9.000000000000000567e-05,-1.499999999999999869e-04,-4.000000000000000327e-05,-1.600000000000000131e-04,-1.100000000000000039e-04,-9.000000000000000567e-05,-9.000000000000000567e-05,5.000000000000000000e+00,9.000000000000000000e+00
2.461000000000000000e+04,-1.199999999999999895e-04,-9.000000000000000567e-05,-1.499999999999999869e-04,-4.000000000000000327e-05,-1.600000000000000131e-04,-1.100000000000000039e-04,-9.000000000000000567e-05,-9.000000000000000567e-05,5.000000000000000000e+00,9.000000000000000000e+00
2.461100000000000000e+04,-1.199999999999999895e-04,-9.000000000000000567e-05,-1.499999999999999869e-04,-4.000000000000000327e-05,-1.600000000000000131e-04,-1.100000000000000039e-04,-9.000000000000000567e-05,-9.000000000000000567e-05,5.000000000000000000e+00,9.000000000000000000e+00
2.461200000000000000e+04,-1.199999999999999895e-04,-9.000000000000000567e-05,-1.499999999999999869e-04,-4.000000000000000327e-05,-1.600000000000000131e-04,-1.100000000000000039e-04,-9.000000000000000567e-05,-9.000000000000000567e-05,5.000000000000000000e+00,9.000000000000000000e+00
2.461300000000000000e+04,-1.199999999999999895e-04,-9.000000000000000567e-05,-1.499999999999999869e-04,-4.000000000000000327e-05,-1.600000000000000131e-04,-1.100000000000000039e-04,-9.000000000000000567e-05,-9.000000000000000567e-05,5.000000000000000000e+00,9.000000000000000000e+00
2.461400000000000000e+04,-1.199999999999999895e-04,-9.000000000000000567e-05,-1.499999999999999869e-04,-4.000000000000000327e-05,-1.600000000000000131e-04,-1.100000000000000039e-04,-9.000000000000000567e-05,-9.000000000000000567e-05,5.000000000000000000e+00,9.000000000000000000e+00
2.461500000000000000e+04,-1.199999999999999895e-04,-9.000000000000000567e-05,-1.499999999999999869e-04,-4.000000000000000327e-05,-1.600000000000000131e-04,-1.100000000000000039e-04,-9.000000000000000567e-05,-9.000000000000000567e-05,5.000000000000000000e+00,9.000000000000000000e+00
2.461600000000000000e+04,-2.000000000000000164e-05,-4.000000000000000327e-05,-5.000000000000000240e-05,-3.399999999999999702e-04,-1.300000000000000157e-04,-1.000000000000000082e-05,-4.000000000000000327e-05,-4.000000000000000327e-05,5.000000000000000000e+00,9.000000000000000000e+00
2.461700000000000000e+04,-5.999999999999999474e-05,-5.999999999999999474e-05,-9.000000000000000567e-05,1.000000000000000082e-05,-1.699999999999999851e-04,-9.000000000000000567e-05,-2.000000000000000164e-05,-2.000000000000000164e-05,5.000000000000000000e+00,9.000000000000000000e+00
2.461800000000000000e+04,-5.999999999999999474e-05,-5.999999999999999474e-05,-9.000000000000000567e-05,1.000000000000000082e-05,-1.699999999999999851e-04,-9.000000000000000567e-05,-2.000000000000000164e-05,-2.000000000000000164e-05,5.000000000000000000e+00,9.000000000000000000e+00
2.461900000000000000e+04,-5.999999999999999474e-05,-5.999999999999999474e-05,-9.000000000000000567e-05,1.000000000000000082e-05,-1.699999999999999851e-04,-9.000000000000000567e-05,-2.000000000000000164e-05,-2.000000000000000164e-05,5.000000000000000000e+00,9.000000000000000000e+00
