6.698400000000000000e+04,2.399999999999999790e-04,-1.000000000000000082e-05,-2.000000000000000164e-05,-1.000000000000000048e-04,1.699999999999999851e-04,-3.399999999999999702e-04,-4.000000000000000192e-04,1.269999999999999862e-03,6.000000000000000000e+00,2.500000000000000000e+01
6.698500000000000000e+04,2.399999999999999790e-04,-1.000000000000000082e-05,-2.000000000000000164e-05,-1.000000000000000048e-04,1.699999999999999851e-04,-3.399999999999999702e-04,-4.000000000000000192e-04,1.269999999999999862e-03,6.000000000000000000e+00,2.500000000000000000e+01
6.698600000000000000e+04,2.399999999999999790e-04,-1.000000000000000082e-05,-2.000000000000000164e-05,-1.000000000000000048e-04,1.699999999999999851e-04,-3.399999999999999702e-04,-4.000000000000000192e-04,1.269999999999999862e-03,6.000000000000000000e+00,2.500000000000000000e+01
6.698800000000000000e+04,2.399999999999999790e-04,-1.000000000000000082e-05,-2.000000000000000164e-05,-1.000000000000000048e-04,1.699999999999999851e-04,-3.399999999999999702e-04,-4.000000000000000192e-04,1.269999999999999862e-03,6.000000000000000000e+00,2.500000000000000000e+01
6.698900000000000000e+04,2.399999999999999790e-04,-1.000000000000000082e-05,-2.000000000000000164e-05,-1.000000000000000048e-04,1.699999999999999851e-04,-3.399999999999999702e-04,-4.000000000000000192e-04,1.269999999999999862e-03,6.000000000000000000e+00,2.500000000000000000e+01
6.699000000000000000e+04,2.399999999999999790e-04,-1.000000000000000082e-05,-2.000000000000000164e-05,-1.000000000000000048e-04,1.699999999999999851e-04,-3.399999999999999702e-04,-4.000000000000000192e-04,1.269999999999999862e-03,6.000000000000000000e+00,2.500000000000000000e+01
6.699100000000000000e+04,2.399999999999999790e-04,-1.000000000000000082e-05,-2.000000000000000164e-05,-1.000000000000000048e-04,1.699999999999999851e-04,-3.399999999999999702e-04,-4.000000000000000192e-04,1.269999999999999862e-03,6.000000000000000000e+00,2.500000000000000000e+01
6.699200000000000000e+04,2.399999999999999790e-04,-1.000000000000000082e-05,-2.000000000000000164e-05,-1.000000000000000048e-04,1.699999999999999851e-04,-3.399999999999999702e-04,-4.000000000000000192e-04,1.269999999999999862e-03,6.000000000000000000e+00,2.500000000000000000e+01
6.699300000000000000e+04,2.399999999999999790e-04,-1.000000000000000082e-05,-2.000000000000000164e-05,-1.000000000000000048e-04,1.699999999999999851e-04,-3.399999999999999702e-04,-4.000000000000000192e-04,1.269999999999999862e-03,6.000000000000000000e+00,2.500000000000000000e+01
6.699400000000000000e+04,2.399999999999999790e-04,-1.000000000000000082e-05,-2.000000000000000164e-05,-1.000000000000000048e-04,1.699999999999999851e-04,-3.399999999999999702e-04,-4.000000000000000192e-04,1.269999999999999862e-03,6.000000000000000000e+00,2.500000000000000000e+01
6.699500000000000000e+04,2.399999999999999790e-04,-1.000000000000000082e-05,-2.000000000000000164e-05,-1.000000000000000048e-04,1.699999999999999851e-04,-3.399999999999999702e-04,-4.000000000000000192e-04,1.269999999999999862e-03,6.000000000000000000e+00,2.500000000000000000e+01
6.699600000000000000e+04,2.399999999999999790e-04,-1.000000000000000082e-05,-2.000000000000000164e-05,-1.000000000000000048e-04,1.699999999999999851e-04,-3.399999999999999702e-04,-4.000000000000000192e-04,1.269999999999999862e-03,6.000000000000000000e+00,2.500000000000000000e+01
6.699700000000000000e+04,2.399999999999999790e-04,-1.000000000000000082e-05,-2.000000000000000164e-05,-1.000000000000000048e-04,1.699999999999999851e-04,-3.399999999999999702e-04,-4.000000000000000192e-04,1.269999999999999862e-03,6.000000000000000000e+00,2.500000000000000000e+01
6.699800000000000000e+04,-2.999999999999999737e-04,0.000000000000000000e+00,1.000000000000000082e-05,-9.000000000000000567e-05,-1.100000000000000039e-04,1.100000000000000039e-04,-9.000000000000000567e-05,-8.000000000000000654e-05,6.000000000000000000e+00,2.500000000000000000e+01
6.699900000000000000e+04,-2.999999999999999737e-04,0.000000000000000000e+00,1.000000000000000082e-05,-9.000000000000000567e-05,-1.100000000000000039e-04,1.100000000000000039e-04,-9.000000000000000567e-05,-8.000000000000000654e-05,6.000000000000000000e+00,2.500000000000000000e+01
6.700000000000000000e+04,-1.600000000000000131e-04,1.000000000000000082e-05,2.000000000000000164e-05,1.699999999999999851e-04,1.199999999999999895e-04,2.000000000000000164e-05,1.899999999999999834e-04,-5.200000000000000629e-04,6.000000000000000000e+00,2.500000000000000000e+01
6.700100000000000000e+04,-1.600000000000000131e-04,1.000000000000000082e-05,2.000000000000000164e-05,1.699999999999999851e-04,1.199999999999999895e-04,2.000000000000000164e-05,1.899999999999999834e-04,-5.200000000000000629e-04,6.000000000000000000e+00,2.500000000000000000e+01
6.700200000000000000e+04,-1.600000000000000131e-04,1.000000000000000082e-05,2.000000000000000164e-05,1.699999999999999851e-04,1.199999999999999895e-04,2.000000000000000164e-05,1.899999999999999834e-04,-5.200000000000000629e-04,6.000000000000000000e+00,2.500000000000000000e+01
6.700300000000000000e+04,-1.600000000000000131e-04,1.000000000000000082e-05,2.000000000000000164e-05,1.699999999999999851e-04,1.199999999999999895e-04,2.000000000000000164e-05,1.899999999999999834e-04,-5.200000000000000629e-04,6.000000000000000000e+00,2.500000000000000000e+01
6.700400000000000000e+04,-1.600000000000000131e-04,1.000000000000000082e-05,2.000000000000000164e-05,1.699999999999999851e-04,1.199999999999999895e-04,2.000000000000000164e-05,1.899999999999999834e-04,-5.200000000000000629e-04,6.000000000000000000e+00,2.500000000000000000e+01
6.700500000000000000e+04,-1.600000000000000131e-04,1.000000000000000082e-05,2.000000000000000164e-05,1.699999999999999851e-04,1.199999999999999895e-04,2.000000000000000164e-05,1.899999999999999834e-04,-5.200000000000000629e-04,6.000000000000000000e+00,2.500000000000000000e+01
6.700600000000000000e+04,-1.600000000000000131e-04,1.000000000000000082e-05,2.000000000000000164e-05,1.699999999999999851e-04,1.199999999999999895e-04,2.000000000000000164e-05,1.899999999999999834e-04,-5.200000000000000629e-04,6.000000000000000000e+00,2.500000000000000000e+01
6.700700000000000000e+04,-1.600000000000000131e-04,1.000000000000000082e-05,2.000000000000000164e-05,1.699999999999999851e-04,1.199999999999999895e-04,2.000000000000000164e-05,1.899999999999999834e-04,-5.200000000000000629e-04,6.000000000000000000e+00,2.500000000000000000e+01
6.700800000000000000e+04,-1.600000000000000131e-04,1.000000000000000082e-05,2.000000000000000164e-05,1.699999999999999851e-04,1.199999999999999895e-04,2.000000000000000164e-05,1.899999999999999834e-04,-5.200000000000000629e-04,6.000000000000000000e+00,2.500000000000000000e+01
6.700900000000000000e+04,-1.600000000000000131e-04,1.000000000000000082e-05,2.000000000000000164e-05,1.699999999999999851e-04,1.199999999999999895e-04,2.000000000000000164e-05,1.899999999999999834e-04,-5.200000000000000629e-04,6.000000000000000000e+00,2.500000000000000000e+01
6.701000000000000000e+04,-1.600000000000000131e-04,1.000000000000000082e-05,2.000000000000000164e-05,1.699999999999999851e-04,1.199999999999999895e-04,2.000000000000000164e-05,1.899999999999999834e-04,-5.200000000000000629e-04,6.000000000000000000e+00,2.500000000000000000e+01
6.701100000000000000e+04,-1.600000000000000131e-04,1.000000000000000082e-05,2.000000000000000164e-05,1.699999999999999851e-04,1.199999999999999895e-04,2.000000000000000164e-05,1.899999999999999834e-04,-5.200000000000000629e-04,6.000000000000000000e+00,2.500000000000000000e+01
6.701200000000000000e+04,-1.600000000000000131e-04,1.000000000000000082e-05,2.000000000000000164e-05,1.699999999999999851e-04,1.199999999999999895e-04,2.000000000000000164e-05,1.899999999999999834e-04,-5.200000000000000629e-04,6.000000000000000000e+00,2.500000000000000000e+01
6.701300000000000000e+04,-1.600000000000000131e-04,1.000000000000000082e-05,2.000000000000000164e-05,1.699999999999999851e-04,1.199999999999999895e-04,2.000000000000000164e-05,1.899999999999999834e-04,-5.200000000000000629e-04,6.000000000000000000e+00,2.500000000000000000e+01
6.701400000000000000e+04,-1.600000000000000131e-04,1.000000000000000082e-05,2.000000000000000164e-05,1.699999999999999851e-04,1.199999999999999895e-04,2.000000000000000164e-05,1.899999999999999834e-04,-5.200000000000000629e-04,6.000000000000000000e+00,2.500000000000000000e+01
6.701500000000000000e+04,-1.600000000000000131e-04,1.000000000000000082e-05,2.000000000000000164e-05,1.699999999999999851e-04,1.199999999999999895e-04,2.000000000000000164e-05,1.899999999999999834e-04,-5.200000000000000629e-04,6.000000000000000000e+00,2.500000000000000000e+01
6.701600000000000000e+04,-1.600000000000000131e-04,1.000000000000000082e-05,2.000000000000000164e-05,1.699999999999999851e-04,1.199999999999999895e-04,2.000000000000000164e-05,1.899999999999999834e-04,-5.200000000000000629e-04,6.000000000000000000e+00,2.500000000000000000e+01
6.701700000000000000e+04,-1.600000000000000131e-04,1.000000000000000082e-05,2.000000000000000164e-05,1.699999999999999851e-04,1.199999999999999895e-04,2.000000000000000164e-05,1.899999999999999834e-04,-5.200000000000000629e-04,6.000000000000000000e+00,2.500000000000000000e+01
6.701800000000000000e+04,-1.600000000000000131e-04,1.000000000000000082e-05,2.000000000000000164e-05,1.699999999999999851e-04,1.199999999999999895e-04,2.000000000000000164e-05,1.899999999999999834e-04,-5.200000000000000629e-04,6.000000000000000000e+00,2.500000000000000000e+01
6.701900000000000000e+04,-1.600000000000000131e-04,1.000000000000000082e-05,2.000000000000000164e-05,1.699999999999999851e-04,1.199999999999999895e-04,2.000000000000000164e-05,1.899999999999999834e-04,-5.200000000000000629e-04,6.000000000000000000e+00,2.500000000000000000e+01
6.702000000000000000e+04,-1.600000000000000131e-04,1.000000000000000082e-05,2.000000000000000164e-05,1.699999999999999851e-04,1.199999999999999895e-04,2.000000000000000164e-05,1.899999999999999834e-04,-5.200000000000000629e-04,6.000000000000000000e+00,2.500000000000000000e+01
6.702100000000000000e+04,1.000000000000000048e-04,1.000000000000000048e-04,9.000000000000000567e-05,2.500000000000000052e-04,4.799999999999999580e-04,2.999999999999999737e-05,7.599999999999999334e-04,-3.299999999999999982e-04,6.000000000000000000e+00,2.500000000000000000e+01
6.702200000000000000e+04,-1.899999999999999834e-04,-1.000000000000000048e-04,-1.300000000000000157e-04,-2.799999999999999755e-04,2.500000000000000052e-04,-5.900000000000000296e-04,-5.999999999999999474e-04,-1.899999999999999834e-04,6.000000000000000000e+00,2.500000000000000000e+01
6.702400000000000000e+04,-1.899999999999999834e-04,-1.000000000000000048e-04,-1.300000000000000157e-04,-2.799999999999999755e-04,2.500000000000000052e-04,-5.900000000000000296e-04,-5.999999999999999474e-04,-1.899999999999999834e-04,6.000000000000000000e+00,2.500000000000000000e+01
6.702500000000000000e+04,-1.899999999999999834e-04,-1.000000000000000048e-04,-1.300000000000000157e-04,-2.799999999999999755e-04,2.500000000000000052e-04,-5.900000000000000296e-04,-5.999999999999999474e-04,-1.899999999999999834e-04,6.000000000000000000e+00,2.500000000000000000e+01
6.702600000000000000e+04,-1.899999999999999834e-04,-1.000000000000000048e-04,-1.300000000000000157e-04,-2.799999999999999755e-04,2.500000000000000052e-04,-5.900000000000000296e-04,-5.999999999999999474e-04,-1.899999999999999834e-04,6.000000000000000000e+00,2.500000000000000000e+01
6.702700000000000000e+04,-1.899999999999999834e-04,-1.000000000000000048e-04,-1.300000000000000157e-04,-2.799999999999999755e-04,2.500000000000000052e-04,-5.900000000000000296e-04,-5.999999999999999474e-04,-1.899999999999999834e-04,6.000000000000000000e+00,2.500000000000000000e+01
6.702800000000000000e+04,-1.899999999999999834e-04,-1.000000000000000048e-04,-1.300000000000000157e-04,-2.799999999999999755e-04,2.500000000000000052e-04,-5.900000000000000296e-04,-5.999999999999999474e-04,-1.899999999999999834e-04,6.000000000000000000e+00,2.500000000000000000e+01
6.702900000000000000e+04,-1.899999999999999834e-04,-1.000000000000000048e-04,-1.300000000000000157e-04,-2.799999999999999755e-04,2.500000000000000052e-04,-5.900000000000000296e-04,-5.999999999999999474e-04,-1.899999999999999834e-04,6.000000000000000000e+00,2.500000000000000000e+01
6.703000000000000000e+04,-1.899999999999999834e-04,-1.000000000000000048e-04,-1.300000000000000157e-04,-2.799999999999999755e-04,2.500000000000000052e-04,-5.900000000000000296e-04,-5.999999999999999474e-04,-1.899999999999999834e-04,6.000000000000000000e+00,2.500000000000000000e+01
6.703200000000000000e+04,-1.899999999999999834e-04,-1.000000000000000048e-04,-1.300000000000000157e-04,-2.799999999999999755e-04,2.500000000000000052e-04,-5.900000000000000296e-04,-5.999999999999999474e-04,-1.899999999999999834e-04,6.000000000000000000e+00,2.500000000000000000e+01
6.703300000000000000e+04,-1.899999999999999834e-04,-1.000000000000000048e-04,-1.300000000000000157e-04,-2.799999999999999755e-04,2.500000000000000052e-04,-5.900000000000000296e-04,-5.999999999999999474e-04,-1.899999999999999834e-04,6.000000000000000000e+00,2.500000000000000000e+01
6.703400000000000000e+04,-1.899999999999999834e-04,-1.000000000000000048e-04,-1.300000000000000157e-04,-2.799999999999999755e-04,2.500000000000000052e-04,-5.900000000000000296e-04,-5.999999999999999474e-04,-1.899999999999999834e-04,6.000000000000000000e+00,2.500000000000000000e+01
6.703500000000000000e+04,-1.499999999999999869e-04,-6.999999999999999387e-05,-1.000000000000000048e-04,-1.300000000000000157e-04,2.900000000000000017e-04,-1.280000000000000105e-03,-6.199999999999999999e-04,-1.280000000000000105e-03,6.000000000000000000e+00,2.500000000000000000e+01
6.703600000000000000e+04,-1.499999999999999869e-04,-6.999999999999999387e-05,-1.000000000000000048e-04,-1.300000000000000157e-04,2.900000000000000017e-04,-1.280000000000000105e-03,-6.199999999999999999e-04,-1.280000000000000105e-03,6.000000000000000000e+00,2.500000000000000000e+01
6.703800000000000000e+04,-1.499999999999999869e-04,-6.999999999999999387e-05,-1.000000000000000048e-04,-1.300000000000000157e-04,2.900000000000000017e-04,-1.280000000000000105e-03,-6.199999999999999999e-04,-1.280000000000000105e-03,6.000000000000000000e+00,2.500000000000000000e+01
6.703900000000000000e+04,-1.499999999999999869e-04,-6.999999999999999387e-05,-1.000000000000000048e-04,-1.300000000000000157e-04,2.900000000000000017e-04,-1.280000000000000105e-03,-6.199999999999999999e-04,-1.280000000000000105e-03,6.000000000000000000e+00,2.500000000000000000e+01
6.704000000000000000e+04,-1.499999999999999869e-04,-6.999999999999999387e-05,-1.000000000000000048e-04,-1.300000000000000157e-04,2.900000000000000017e-04,-1.280000000000000105e-03,-6.199999999999999999e-04,-1.280000000000000105e-03,6.000000000000000000e+00,2.500000000000000000e+01
6.704100000000000000e+04,-1.499999999999999869e-04,-6.999999999999999387e-05,-1.000000000000000048e-04,-1.300000000000000157e-04,2.900000000000000017e-04,-1.280000000000000105e-03,-6.199999999999999999e-04,-1.280000000000000105e-03,6.000000000000000000e+00,2.500000000000000000e+01
6.704200000000000000e+04,5.999999999999999474e-05,-2.000000000000000164e-05,-5.999999999999999474e-05,2.000000000000000164e-05,3.499999999999999964e-04,4.599999999999999597e-04,1.499999999999999869e-04,-1.149999999999999981e-03,6.000000000000000000e+00,2.500000000000000000e+01
6.704300000000000000e+04,5.999999999999999474e-05,-2.000000000000000164e-05,-5.999999999999999474e-05,2.000000000000000164e-05,3.499999999999999964e-04,4.599999999999999597e-04,1.499999999999999869e-04,-1.149999999999999981e-03,6.000000000000000000e+00,2.500000000000000000e+01
6.704400000000000000e+04,5.999999999999999474e-05,-2.000000000000000164e-05,-5.999999999999999474e-05,2.000000000000000164e-05,3.499999999999999964e-04,4.599999999999999597e-04,1.499999999999999869e-04,-1.149999999999999981e-03,6.000000000000000000e+00,2.500000000000000000e+01
6.704500000000000000e+04,5.999999999999999474e-05,-2.000000000000000164e-05,-5.999999999999999474e-05,2.000000000000000164e-05,3.499999999999999964e-04,4.599999999999999597e-04,1.499999999999999869e-04,-1.149999999999999981e-03,6.000000000000000000e+00,2.500000000000000000e+01
6.704600000000000000e+04,5.999999999999999474e-05,-2.000000000000000164e-05,-5.999999999999999474e-05,2.000000000000000164e-05,3.499999999999999964e-04,4.599999999999999597e-04,1.499999999999999869e-04,-1.149999999999999981e-03,6.000000000000000000e+00,2.500000000000000000e+01
6.704700000000000000e+04,5.999999999999999474e-05,-2.000000000000000164e-05,-5.999999999999999474e-05,2.000000000000000164e-05,3.499999999999999964e-04,4.599999999999999597e-04,1.499999999999999869e-04,-1.149999999999999981e-03,6.000000000000000000e+00,2.500000000000000000e+01
6.704800000000000000e+04,5.999999999999999474e-05,-2.000000000000000164e-05,-5.999999999999999474e-05,2.000000000000000164e-05,3.499999999999999964e-04,4.599999999999999597e-04,1.499999999999999869e-04,-1.149999999999999981e-03,6.000000000000000000e+00,2.500000000000000000e+01
6.704900000000000000e+04,5.999999999999999474e-05,-2.000000000000000164e-05,-5.999999999999999474e-05,2.000000000000000164e-05,3.499999999999999964e-04,4.599999999999999597e-04,1.499999999999999869e-04,-1.149999999999999981e-03,6.000000000000000000e+00,2.500000000000000000e+01
6.705000000000000000e+04,5.999999999999999474e-05,-2.000000000000000164e-05,-5.999999999999999474e-05,2.000000000000000164e-05,3.499999999999999964e-04,4.599999999999999597e-04,1.499999999999999869e-04,-1.149999999999999981e-03,6.000000000000000000e+00,2.500000000000000000e+01
6.705100000000000000e+04,5.999999999999999474e-05,-2.000000000000000164e-05,-5.999999999999999474e-05,2.000000000000000164e-05,3.499999999999999964e-04,4.599999999999999597e-04,1.499999999999999869e-04,-1.149999999999999981e-03,6.000000000000000000e+00,2.500000000000000000e+01
6.705200000000000000e+04,5.999999999999999474e-05,-2.000000000000000164e-05,-5.999999999999999474e-05,2.000000000000000164e-05,3.499999999999999964e-04,4.599999999999999597e-04,1.499999999999999869e-04,-1.149999999999999981e-03,6.000000000000000000e+00,2.500000000000000000e+01
6.705300000000000000e+04,5.999999999999999474e-05,-2.000000000000000164e-05,-5.999999999999999474e-05,2.000000000000000164e-05,3.499999999999999964e-04,4.599999999999999597e-04,1.499999999999999869e-04,-1.149999999999999981e-03,6.000000000000000000e+00,2.500000000000000000e+01
6.705400000000000000e+04,5.999999999999999474e-05,-2.000000000000000164e-05,-5.999999999999999474e-05,2.000000000000000164e-05,3.499999999999999964e-04,4.599999999999999597e-04,1.499999999999999869e-04,-1.149999999999999981e-03,6.000000000000000000e+00,2.500000000000000000e+01
6.705500000000000000e+04,5.999999999999999474e-05,-2.000000000000000164e-05,-5.999999999999999474e-05,2.000000000000000164e-05,3.499999999999999964e-04,4.599999999999999597e-04,1.499999999999999869e-04,-1.149999999999999981e-03,6.000000000000000000e+00,2.500000000000000000e+01
6.705600000000000000e+04,5.999999999999999474e-05,-2.000000000000000164e-05,-5.999999999999999474e-05,2.000000000000000164e-05,3.499999999999999964e-04,4.599999999999999597e-04,1.499999999999999869e-04,-1.149999999999999981e-03,6.000000000000000000e+00,2.500000000000000000e+01
6.705700000000000000e+04,5.999999999999999474e-05,-2.000000000000000164e-05,-5.999999999999999474e-05,2.000000000000000164e-05,3.499999999999999964e-04,4.599999999999999597e-04,1.499999999999999869e-04,-1.149999999999999981e-03,6.000000000000000000e+00,2.500000000000000000e+01
6.705800000000000000e+04,-2.000000000000000164e-05,-1.100000000000000039e-04,-1.499999999999999869e-04,-1.399999999999999877e-04,3.200000000000000262e-04,3.499999999999999964e-04,-1.199999999999999895e-04,-4.400000000000000157e-04,6.000000000000000000e+00,2.500000000000000000e+01
6.705900000000000000e+04,-2.000000000000000164e-05,-1.100000000000000039e-04,-1.499999999999999869e-04,-1.399999999999999877e-04,3.200000000000000262e-04,3.499999999999999964e-04,-1.199999999999999895e-04,-4.400000000000000157e-04,6.000000000000000000e+00,2.500000000000000000e+01
6.706000000000000000e+04,-2.600000000000000314e-04,-1.699999999999999851e-04,-2.000000000000000096e-04,-3.099999999999999999e-04,-6.499999999999999702e-04,-1.090000000000000040e-03,-6.300000000000000261e-04,-7.200000000000000453e-04,6.000000000000000000e+00,2.500000000000000000e+01
6.706100000000000000e+04,-2.600000000000000314e-04,-1.699999999999999851e-04,-2.000000000000000096e-04,-3.099999999999999999e-04,-6.499999999999999702e-04,-1.090000000000000040e-03,-6.300000000000000261e-04,-7.200000000000000453e-04,6.000000000000000000e+00,2.500000000000000000e+01
6.706200000000000000e+04,-2.600000000000000314e-04,-1.699999999999999851e-04,-2.000000000000000096e-04,-3.099999999999999999e-04,-6.499999999999999702e-04,-1.090000000000000040e-03,-6.300000000000000261e-04,-7.200000000000000453e-04,6.000000000000000000e+00,2.500000000000000000e+01
6.706300000000000000e+04,-2.600000000000000314e-04,-1.699999999999999851e-04,-2.000000000000000096e-04,-3.099999999999999999e-04,-6.499999999999999702e-04,-1.090000000000000040e-03,-6.300000000000000261e-04,-7.200000000000000453e-04,6.000000000000000000e+00,2.500000000000000000e+01
6.706400000000000000e+04,-2.600000000000000314e-04,-1.699999999999999851e-04,-2.000000000000000096e-04,-3.099999999999999999e-04,-6.499999999999999702e-04,-1.090000000000000040e-03,-6.300000000000000261e-04,-7.200000000000000453e-04,6.000000000000000000e+00,2.500000000000000000e+01
6.706500000000000000e+04,-2.600000000000000314e-04,-1.699999999999999851e-04,-2.000000000000000096e-04,-3.099999999999999999e-04,-6.499999999999999702e-04,-1.090000000000000040e-03,-6.300000000000000261e-04,-7.200000000000000453e-04,6.000000000000000000e+00,2.500000000000000000e+01
6.706600000000000000e+04,-2.600000000000000314e-04,-1.699999999999999851e-04,-2.000000000000000096e-04,-3.099999999999999999e-04,-6.499999999999999702e-04,-1.090000000000000040e-03,-6.300000000000000261e-04,-7.200000000000000453e-04,6.000000000000000000e+00,2.500000000000000000e+01
6.706700000000000000e+04,-2.600000000000000314e-04,-1.699999999999999851e-04,-2.000000000000000096e-04,-3.099999999999999999e-04,-6.499999999999999702e-04,-1.090000000000000040e-03,-6.300000000000000261e-04,-7.200000000000000453e-04,6.000000000000000000e+00,2.500000000000000000e+01
6.706800000000000000e+04,-2.600000000000000314e-04,-1.699999999999999851e-04,-2.000000000000000096e-04,-3.099999999999999999e-04,-6.499999999999999702e-04,-1.090000000000000040e-03,-6.300000000000000261e-04,-7.200000000000000453e-04,6.000000000000000000e+00,2.500000000000000000e+01
6.706900000000000000e+04,-2.600000000000000314e-04,-1.699999999999999851e-04,-2.000000000000000096e-04,-3.099999999999999999e-04,-6.499999999999999702e-04,-1.090000000000000040e-03,-6.300000000000000261e-04,-7.200000000000000453e-04,6.000000000000000000e+00,2.500000000000000000e+01
6.707000000000000000e+04,-2.600000000000000314e-04,-1.699999999999999851e-04,-2.000000000000000096e-04,-3.099999999999999999e-04,-6.499999999999999702e-04,-1.090000000000000040e-03,-6.300000000000000261e-04,-7.200000000000000453e-04,6.000000000000000000e+00,2.500000000000000000e+01
6.707100000000000000e+04,-2.600000000000000314e-04,-1.699999999999999851e-04,-2.000000000000000096e-04,-3.099999999999999999e-04,-6.499999999999999702e-04,-1.090000000000000040e-03,-6.300000000000000261e-04,-7.200000000000000453e-04,6.000000000000000000e+00,2.500000000000000000e+01
6.707200000000000000e+04,-2.600000000000000314e-04,-1.699999999999999851e-04,-2.000000000000000096e-04,-3.099999999999999999e-04,-6.499999999999999702e-04,-1.090000000000000040e-03,-6.300000000000000261e-04,-7.200000000000000453e-04,6.000000000000000000e+00,2.500000000000000000e+01
6.707300000000000000e+04,-2.600000000000000314e-04,-1.699999999999999851e-04,-2.000000000000000096e-04,-3.099999999999999999e-04,-6.499999999999999702e-04,-1.090000000000000040e-03,-6.300000000000000261e-04,-7.200000000000000453e-04,6.000000000000000000e+00,2.500000000000000000e+01
6.707400000000000000e+04,-2.600000000000000314e-04,-1.699999999999999851e-04,-2.000000000000000096e-04,-3.099999999999999999e-04,-6.499999999999999702e-04,-1.090000000000000040e-03,-6.300000000000000261e-04,-7.200000000000000453e-04,6.000000000000000000e+00,2.500000000000000000e+01
6.707500000000000000e+04,-2.600000000000000314e-04,-1.699999999999999851e-04,-2.000000000000000096e-04,-3.099999999999999999e-04,-6.499999999999999702e-04,-1.090000000000000040e-03,-6.300000000000000261e-04,-7.200000000000000453e-04,6.000000000000000000e+00,2.500000000000000000e+01
6.707600000000000000e+04,-2.600000000000000314e-04,-1.699999999999999851e-04,-2.000000000000000096e-04,-3.099999999999999999e-04,-6.499999999999999702e-04,-1.090000000000000040e-03,-6.300000000000000261e-04,-7.200000000000000453e-04,6.000000000000000000e+00,2.500000000000000000e+01
6.707700000000000000e+04,-2.600000000000000314e-04,-1.699999999999999851e-04,-2.000000000000000096e-04,-3.099999999999999999e-04,-6.499999999999999702e-04,-1.090000000000000040e-03,-6.300000000000000261e-04,-7.200000000000000453e-04,6.000000000000000000e+00,2.500000000000000000e+01
6.707800000000000000e+04,-2.600000000000000314e-04,-1.699999999999999851e-04,-2.000000000000000096e-04,-3.099999999999999999e-04,-6.499999999999999702e-04,-1.090000000000000040e-03,-6.300000000000000261e-04,-7.200000000000000453e-04,6.000000000000000000e+00,2.500000000000000000e+01
6.707900000000000000e+04,-2.600000000000000314e-04,-1.699999999999999851e-04,-2.000000000000000096e-04,-3.099999999999999999e-04,-6.499999999999999702e-04,-1.090000000000000040e-03,-6.300000000000000261e-04,-7.200000000000000453e-04,6.000000000000000000e+00,2.500000000000000000e+01
6.708000000000000000e+04,-2.600000000000000314e-04,-1.699999999999999851e-04,-2.000000000000000096e-04,-3.099999999999999999e-04,-6.499999999999999702e-04,-1.090000000000000040e-03,-6.300000000000000261e-04,-7.200000000000000453e-04,6.000000000000000000e+00,2.500000000000000000e+01
6.708100000000000000e+04,6.999999999999999387e-05,4.000000000000000327e-05,4.000000000000000327e-05,-9.000000000000000567e-05,-8.300000000000001170e-04,-7.200000000000000453e-04,2.500000000000000052e-04,-1.399999999999999877e-04,6.000000000000000000e+00,2.500000000000000000e+01
6.708200000000000000e+04,1.199999999999999895e-04,4.000000000000000327e-05,2.999999999999999737e-05,1.600000000000000131e-04,-1.100000000000000039e-04,1.699999999999999851e-04,3.799999999999999667e-04,7.900000000000000121e-04,6.000000000000000000e+00,2.500000000000000000e+01
6.708400000000000000e+04,1.199999999999999895e-04,4.000000000000000327e-05,2.999999999999999737e-05,1.600000000000000131e-04,-1.100000000000000039e-04,1.699999999999999851e-04,3.799999999999999667e-04,7.900000000000000121e-04,6.000000000000000000e+00,2.500000000000000000e+01
6.708500000000000000e+04,1.199999999999999895e-04,4.000000000000000327e-05,2.999999999999999737e-05,1.600000000000000131e-04,-1.100000000000000039e-04,1.699999999999999851e-04,3.799999999999999667e-04,7.900000000000000121e-04,6.000000000000000000e+00,2.500000000000000000e+01
6.708600000000000000e+04,1.199999999999999895e-04,4.000000000000000327e-05,2.999999999999999737e-05,1.600000000000000131e-04,-1.100000000000000039e-04,1.699999999999999851e-04,3.799999999999999667e-04,7.900000000000000121e-04,6.000000000000000000e+00,2.500000000000000000e+01
6.708800000000000000e+04,1.199999999999999895e-04,4.000000000000000327e-05,2.999999999999999737e-05,1.600000000000000131e-04,-1.100000000000000039e-04,1.699999999999999851e-04,3.799999999999999667e-04,7.900000000000000121e-04,6.000000000000000000e+00,2.500000000000000000e+01
6.708900000000000000e+04,1.199999999999999895e-04,4.000000000000000327e-05,2.999999999999999737e-05,1.600000000000000131e-04,-1.100000000000000039e-04,1.699999999999999851e-04,3.799999999999999667e-04,7.900000000000000121e-04,6.000000000000000000e+00,2.500000000000000000e+01
6.709000000000000000e+04,1.199999999999999895e-04,4.000000000000000327e-05,2.999999999999999737e-05,1.600000000000000131e-04,-1.100000000000000039e-04,1.699999999999999851e-04,3.799999999999999667e-04,7.900000000000000121e-04,6.000000000000000000e+00,2.500000000000000000e+01
6.709100000000000000e+04,1.199999999999999895e-04,4.000000000000000327e-05,2.999999999999999737e-05,1.600000000000000131e-04,-1.100000000000000039e-04,1.699999999999999851e-04,3.799999999999999667e-04,7.900000000000000121e-04,6.000000000000000000e+00,2.500000000000000000e+01
6.709200000000000000e+04,1.199999999999999895e-04,4.000000000000000327e-05,2.999999999999999737e-05,1.600000000000000131e-04,-1.100000000000000039e-04,1.699999999999999851e-04,3.799999999999999667e-04,7.900000000000000121e-04,6.000000000000000000e+00,2.500000000000000000e+01
6.709300000000000000e+04,1.199999999999999895e-04,4.000000000000000327e-05,2.999999999999999737e-05,1.600000000000000131e-04,-1.100000000000000039e-04,1.699999999999999851e-04,3.799999999999999667e-04,7.900000000000000121e-04,6.000000000000000000e+00,2.500000000000000000e+01
6.709400000000000000e+04,9.000000000000000567e-05,-1.000000000000000082e-05,-2.000000000000000164e-05,-5.000000000000000240e-05,-1.000000000000000048e-04,-6.599999999999999964e-04,-1.699999999999999851e-04,1.000000000000000082e-05,6.000000000000000000e+00,2.500000000000000000e+01
6.709500000000000000e+04,9.000000000000000567e-05,-1.000000000000000082e-05,-2.000000000000000164e-05,-5.000000000000000240e-05,-1.000000000000000048e-04,-6.599999999999999964e-04,-1.699999999999999851e-04,1.000000000000000082e-05,6.000000000000000000e+00,2.500000000000000000e+01
6.709600000000000000e+04,9.000000000000000567e-05,-1.000000000000000082e-05,-2.000000000000000164e-05,-5.000000000000000240e-05,-1.000000000000000048e-04,-6.599999999999999964e-04,-1.699999999999999851e-04,1.000000000000000082e-05,6.000000000000000000e+00,2.500000000000000000e+01
6.709700000000000000e+04,9.000000000000000567e-05,-1.000000000000000082e-05,-2.000000000000000164e-05,-5.000000000000000240e-05,-1.000000000000000048e-04,-6.599999999999999964e-04,-1.699999999999999851e-04,1.000000000000000082e-05,6.000000000000000000e+00,2.500000000000000000e+01
6.709800000000000000e+04,9.000000000000000567e-05,-1.000000000000000082e-05,-2.000000000000000164e-05,-5.000000000000000240e-05,-1.000000000000000048e-04,-6.599999999999999964e-04,-1.699999999999999851e-04,1.000000000000000082e-05,6.000000000000000000e+00,2.500000000000000000e+01
6.709900000000000000e+04,9.000000000000000567e-05,-1.000000000000000082e-05,-2.000000000000000164e-05,-5.000000000000000240e-05,-1.000000000000000048e-04,-6.599999999999999964e-04,-1.699999999999999851e-04,1.000000000000000082e-05,6.000000000000000000e+00,2.500000000000000000e+01
6.710000000000000000e+04,9.000000000000000567e-05,-1.000000000000000082e-05,-2.000000000000000164e-05,-5.000000000000000240e-05,-1.000000000000000048e-04,-6.599999999999999964e-04,-1.699999999999999851e-04,1.000000000000000082e-05,6.000000000000000000e+00,2.500000000000000000e+01
6.710100000000000000e+04,9.000000000000000567e-05,-1.000000000000000082e-05,-2.000000000000000164e-05,-5.000000000000000240e-05,-1.000000000000000048e-04,-6.599999999999999964e-04,-1.699999999999999851e-04,1.000000000000000082e-05,6.000000000000000000e+00,2.500000000000000000e+01
6.710200000000000000e+04,9.000000000000000567e-05,-1.000000000000000082e-05,-2.000000000000000164e-05,-5.000000000000000240e-05,-1.000000000000000048e-04,-6.599999999999999964e-04,-1.699999999999999851e-04,1.000000000000000082e-05,6.000000000000000000e+00,2.500000000000000000e+01
6.710300000000000000e+04,-8.000000000000000654e-05,-9.000000000000000567e-05,-8.000000000000000654e-05,-1.600000000000000131e-04,6.999999999999999387e-05,-4.700000000000000401e-04,5.999999999999999474e-05,-9.100000000000000016e-04,6.000000000000000000e+00,2.500000000000000000e+01
6.710400000000000000e+04,-1.699999999999999851e-04,-2.000000000000000164e-05,1.000000000000000082e-05,-5.999999999999999474e-05,-7.700000000000000681e-04,-7.200000000000000453e-04,-4.000000000000000192e-04,5.400000000000000069e-04,6.000000000000000000e+00,2.500000000000000000e+01
6.710500000000000000e+04,-1.699999999999999851e-04,-2.000000000000000164e-05,1.000000000000000082e-05,-5.999999999999999474e-05,-7.700000000000000681e-04,-7.200000000000000453e-04,-4.000000000000000192e-04,5.400000000000000069e-04,6.000000000000000000e+00,2.500000000000000000e+01
6.710600000000000000e+04,-1.699999999999999851e-04,-2.000000000000000164e-05,1.000000000000000082e-05,-5.999999999999999474e-05,-7.700000000000000681e-04,-7.200000000000000453e-04,-4.000000000000000192e-04,5.400000000000000069e-04,6.000000000000000000e+00,2.500000000000000000e+01
6.710700000000000000e+04,-1.699999999999999851e-04,-2.000000000000000164e-05,1.000000000000000082e-05,-5.999999999999999474e-05,-7.700000000000000681e-04,-7.200000000000000453e-04,-4.000000000000000192e-04,5.400000000000000069e-04,6.000000000000000000e+00,2.500000000000000000e+01
6.710800000000000000e+04,-1.699999999999999851e-04,-2.000000000000000164e-05,1.000000000000000082e-05,-5.999999999999999474e-05,-7.700000000000000681e-04,-7.200000000000000453e-04,-4.000000000000000192e-04,5.400000000000000069e-04,6.000000000000000000e+00,2.500000000000000000e+01
6.710900000000000000e+04,-1.699999999999999851e-04,-2.000000000000000164e-05,1.000000000000000082e-05,-5.999999999999999474e-05,-7.700000000000000681e-04,-7.200000000000000453e-04,-4.000000000000000192e-04,5.400000000000000069e-04,6.000000000000000000e+00,2.500000000000000000e+01
6.711000000000000000e+04,-1.699999999999999851e-04,-2.000000000000000164e-05,1.000000000000000082e-05,-5.999999999999999474e-05,-7.700000000000000681e-04,-7.200000000000000453e-04,-4.000000000000000192e-04,5.400000000000000069e-04,6.000000000000000000e+00,2.500000000000000000e+01
6.711100000000000000e+04,-1.699999999999999851e-04,-2.000000000000000164e-05,1.000000000000000082e-05,-5.999999999999999474e-05,-7.700000000000000681e-04,-7.200000000000000453e-04,-4.000000000000000192e-04,5.400000000000000069e-04,6.000000000000000000e+00,2.500000000000000000e+01
6.711200000000000000e+04,-1.699999999999999851e-04,-2.000000000000000164e-05,1.000000000000000082e-05,-5.999999999999999474e-05,-7.700000000000000681e-04,-7.200000000000000453e-04,-4.000000000000000192e-04,5.400000000000000069e-04,6.000000000000000000e+00,2.500000000000000000e+01
6.711300000000000000e+04,-1.699999999999999851e-04,-2.000000000000000164e-05,1.000000000000000082e-05,-5.999999999999999474e-05,-7.700000000000000681e-04,-7.200000000000000453e-04,-4.000000000000000192e-04,5.400000000000000069e-04,6.000000000000000000e+00,2.500000000000000000e+01
6.711400000000000000e+04,-1.699999999999999851e-04,-2.000000000000000164e-05,1.000000000000000082e-05,-5.999999999999999474e-05,-7.700000000000000681e-04,-7.200000000000000453e-04,-4.000000000000000192e-04,5.400000000000000069e-04,6.000000000000000000e+00,2.500000000000000000e+01
6.711500000000000000e+04,-1.699999999999999851e-04,-2.000000000000000164e-05,1.000000000000000082e-05,-5.999999999999999474e-05,-7.700000000000000681e-04,-7.200000000000000453e-04,-4.000000000000000192e-04,5.400000000000000069e-04,6.000000000000000000e+00,2.500000000000000000e+01
6.711600000000000000e+04,-1.699999999999999851e-04,-2.000000000000000164e-05,1.000000000000000082e-05,-5.999999999999999474e-05,-7.700000000000000681e-04,-7.200000000000000453e-04,-4.000000000000000192e-04,5.400000000000000069e-04,6.000000000000000000e+00,2.500000000000000000e+01
6.711700000000000000e+04,-1.699999999999999851e-04,-2.000000000000000164e-05,1.000000000000000082e-05,-5.999999999999999474e-05,-7.700000000000000681e-04,-7.200000000000000453e-04,-4.000000000000000192e-04,5.400000000000000069e-04,6.000000000000000000e+00,2.500000000000000000e+01
6.711800000000000000e+04,6.999999999999999387e-05,-5.999999999999999474e-05,-4.000000000000000327e-05,2.999999999999999737e-05,5.099999999999999282e-04,-8.999999999999999754e-04,-1.600000000000000131e-04,-1.899999999999999834e-04,6.000000000000000000e+00,2.500000000000000000e+01
6.711900000000000000e+04,6.999999999999999387e-05,-5.999999999999999474e-05,-4.000000000000000327e-05,2.999999999999999737e-05,5.099999999999999282e-04,-8.999999999999999754e-04,-1.600000000000000131e-04,-1.899999999999999834e-04,6.000000000000000000e+00,2.500000000000000000e+01
6.712000000000000000e+04,-2.999999999999999737e-05,4.000000000000000327e-05,5.999999999999999474e-05,1.199999999999999895e-04,-9.000000000000000567e-05,7.200000000000000453e-04,1.899999999999999834e-04,-5.500000000000000331e-04,6.000000000000000000e+00,2.500000000000000000e+01
6.712100000000000000e+04,-2.999999999999999737e-05,4.000000000000000327e-05,5.999999999999999474e-05,1.199999999999999895e-04,-9.000000000000000567e-05,7.200000000000000453e-04,1.899999999999999834e-04,-5.500000000000000331e-04,6.000000000000000000e+00,2.500000000000000000e+01
6.712200000000000000e+04,-2.999999999999999737e-05,4.000000000000000327e-05,5.999999999999999474e-05,1.199999999999999895e-04,-9.000000000000000567e-05,7.200000000000000453e-04,1.899999999999999834e-04,-5.500000000000000331e-04,6.000000000000000000e+00,2.500000000000000000e+01
6.712300000000000000e+04,-2.999999999999999737e-05,4.000000000000000327e-05,5.999999999999999474e-05,1.199999999999999895e-04,-9.000000000000000567e-05,7.200000000000000453e-04,1.899999999999999834e-04,-5.500000000000000331e-04,6.000000000000000000e+00,2.500000000000000000e+01
6.712400000000000000e+04,-2.999999999999999737e-05,4.000000000000000327e-05,5.999999999999999474e-05,1.199999999999999895e-04,-9.000000000000000567e-05,7.200000000000000453e-04,1.899999999999999834e-04,-5.500000000000000331e-04,6.000000000000000000e+00,2.500000000000000000e+01
6.712500000000000000e+04,-2.999999999999999737e-05,4.000000000000000327e-05,5.999999999999999474e-05,1.199999999999999895e-04,-9.000000000000000567e-05,7.200000000000000453e-04,1.899999999999999834e-04,-5.500000000000000331e-04,6.000000000000000000e+00,2.500000000000000000e+01
6.712600000000000000e+04,-2.999999999999999737e-05,4.000000000000000327e-05,5.999999999999999474e-05,1.199999999999999895e-04,-9.000000000000000567e-05,7.200000000000000453e-04,1.899999999999999834e-04,-5.500000000000000331e-04,6.000000000000000000e+00,2.500000000000000000e+01
6.712700000000000000e+04,-2.999999999999999737e-05,4.000000000000000327e-05,5.999999999999999474e-05,1.199999999999999895e-04,-9.000000000000000567e-05,7.200000000000000453e-04,1.899999999999999834e-04,-5.500000000000000331e-04,6.000000000000000000e+00,2.500000000000000000e+01
6.712800000000000000e+04,-2.999999999999999737e-05,4.000000000000000327e-05,5.999999999999999474e-05,1.199999999999999895e-04,-9.000000000000000567e-05,7.200000000000000453e-04,1.899999999999999834e-04,-5.500000000000000331e-04,6.000000000000000000e+00,2.500000000000000000e+01
6.712900000000000000e+04,-2.999999999999999737e-05,4.000000000000000327e-05,5.999999999999999474e-05,1.199999999999999895e-04,-9.000000000000000567e-05,7.200000000000000453e-04,1.899999999999999834e-04,-5.500000000000000331e-04,6.000000000000000000e+00,2.500000000000000000e+01
6.713000000000000000e+04,-2.999999999999999737e-05,4.000000000000000327e-05,5.999999999999999474e-05,1.199999999999999895e-04,-9.000000000000000567e-05,7.200000000000000453e-04,1.899999999999999834e-04,-5.500000000000000331e-04,6.000000000000000000e+00,2.500000000000000000e+01
6.713100000000000000e+04,-2.999999999999999737e-05,4.000000000000000327e-05,5.999999999999999474e-05,1.199999999999999895e-04,-9.000000000000000567e-05,7.200000000000000453e-04,1.899999999999999834e-04,-5.500000000000000331e-04,6.000000000000000000e+00,2.500000000000000000e+01
6.713200000000000000e+04,-2.999999999999999737e-05,4.000000000000000327e-05,5.999999999999999474e-05,1.199999999999999895e-04,-9.000000000000000567e-05,7.200000000000000453e-04,1.899999999999999834e-04,-5.500000000000000331e-04,6.000000000000000000e+00,2.500000000000000000e+01
6.713300000000000000e+04,-2.999999999999999737e-05,4.000000000000000327e-05,5.999999999999999474e-05,1.199999999999999895e-04,-9.000000000000000567e-05,7.200000000000000453e-04,1.899999999999999834e-04,-5.500000000000000331e-04,6.000000000000000000e+00,2.500000000000000000e+01
6.713400000000000000e+04,-2.999999999999999737e-05,4.000000000000000327e-05,5.999999999999999474e-05,1.199999999999999895e-04,-9.000000000000000567e-05,7.200000000000000453e-04,1.899999999999999834e-04,-5.500000000000000331e-04,6.000000000000000000e+00,2.500000000000000000e+01
6.713500000000000000e+04,-2.999999999999999737e-05,4.000000000000000327e-05,5.999999999999999474e-05,1.199999999999999895e-04,-9.000000000000000567e-05,7.200000000000000453e-04,1.899999999999999834e-04,-5.500000000000000331e-04,6.000000000000000000e+00,2.500000000000000000e+01
6.713600000000000000e+04,-2.999999999999999737e-05,4.000000000000000327e-05,5.999999999999999474e-05,1.199999999999999895e-04,-9.000000000000000567e-05,7.200000000000000453e-04,1.899999999999999834e-04,-5.500000000000000331e-04,6.000000000000000000e+00,2.500000000000000000e+01
6.713800000000000000e+04,-2.999999999999999737e-05,4.000000000000000327e-05,5.999999999999999474e-05,1.199999999999999895e-04,-9.000000000000000567e-05,7.200000000000000453e-04,1.899999999999999834e-04,-5.500000000000000331e-04,6.000000000000000000e+00,2.500000000000000000e+01
6.713900000000000000e+04,-2.999999999999999737e-05,4.000000000000000327e-05,5.999999999999999474e-05,1.199999999999999895e-04,-9.000000000000000567e-05,7.200000000000000453e-04,1.899999999999999834e-04,-5.500000000000000331e-04,6.000000000000000000e+00,2.500000000000000000e+01
6.714000000000000000e+04,-2.999999999999999737e-05,4.000000000000000327e-05,5.999999999999999474e-05,1.199999999999999895e-04,-9.000000000000000567e-05,7.200000000000000453e-04,1.899999999999999834e-04,-5.500000000000000331e-04,6.000000000000000000e+00,2.500000000000000000e+01
6.714100000000000000e+04,-1.300000000000000157e-04,-1.300000000000000157e-04,-1.399999999999999877e-04,-2.600000000000000314e-04,-5.599999999999999509e-04,-1.899999999999999834e-04,-3.600000000000000227e-04,-2.999999999999999737e-04,6.000000000000000000e+00,2.500000000000000000e+01
6.714200000000000000e+04,1.000000000000000082e-05,-1.000000000000000082e-05,-4.000000000000000327e-05,1.000000000000000082e-05,-1.399999999999999877e-04,8.999999999999999754e-04,1.899999999999999834e-04,3.299999999999999982e-04,6.000000000000000000e+00,2.500000000000000000e+01
6.714400000000000000e+04,1.000000000000000082e-05,-1.000000000000000082e-05,-4.000000000000000327e-05,1.000000000000000082e-05,-1.399999999999999877e-04,8.999999999999999754e-04,1.899999999999999834e-04,3.299999999999999982e-04,6.000000000000000000e+00,2.500000000000000000e+01
6.714500000000000000e+04,1.000000000000000082e-05,-1.000000000000000082e-05,-4.000000000000000327e-05,1.000000000000000082e-05,-1.399999999999999877e-04,8.999999999999999754e-04,1.899999999999999834e-04,3.299999999999999982e-04,6.000000000000000000e+00,2.500000000000000000e+01
6.714600000000000000e+04,1.000000000000000082e-05,-1.000000000000000082e-05,-4.000000000000000327e-05,1.000000000000000082e-05,-1.399999999999999877e-04,8.999999999999999754e-04,1.899999999999999834e-04,3.299999999999999982e-04,6.000000000000000000e+00,2.500000000000000000e+01
6.714700000000000000e+04,1.000000000000000082e-05,-1.000000000000000082e-05,-4.000000000000000327e-05,1.000000000000000082e-05,-1.399999999999999877e-04,8.999999999999999754e-04,1.899999999999999834e-04,3.299999999999999982e-04,6.000000000000000000e+00,2.500000000000000000e+01
6.714800000000000000e+04,1.000000000000000082e-05,-1.000000000000000082e-05,-4.000000000000000327e-05,1.000000000000000082e-05,-1.399999999999999877e-04,8.999999999999999754e-04,1.899999999999999834e-04,3.299999999999999982e-04,6.000000000000000000e+00,2.500000000000000000e+01
6.714900000000000000e+04,1.000000000000000082e-05,-1.000000000000000082e-05,-4.000000000000000327e-05,1.000000000000000082e-05,-1.399999999999999877e-04,8.999999999999999754e-04,1.899999999999999834e-04,3.299999999999999982e-04,6.000000000000000000e+00,2.500000000000000000e+01
6.715000000000000000e+04,1.000000000000000082e-05,-1.000000000000000082e-05,-4.000000000000000327e-05,1.000000000000000082e-05,-1.399999999999999877e-04,8.999999999999999754e-04,1.899999999999999834e-04,3.299999999999999982e-04,6.000000000000000000e+00,2.500000000000000000e+01
6.715100000000000000e+04,1.000000000000000082e-05,-1.000000000000000082e-05,-4.000000000000000327e-05,1.000000000000000082e-05,-1.399999999999999877e-04,8.999999999999999754e-04,1.899999999999999834e-04,3.299999999999999982e-04,6.000000000000000000e+00,2.500000000000000000e+01
6.715200000000000000e+04,1.000000000000000082e-05,-1.000000000000000082e-05,-4.000000000000000327e-05,1.000000000000000082e-05,-1.399999999999999877e-04,8.999999999999999754e-04,1.899999999999999834e-04,3.299999999999999982e-04,6.000000000000000000e+00,2.500000000000000000e+01
6.715300000000000000e+04,1.000000000000000082e-05,-1.000000000000000082e-05,-4.000000000000000327e-05,1.000000000000000082e-05,-1.399999999999999877e-04,8.999999999999999754e-04,1.899999999999999834e-04,3.299999999999999982e-04,6.000000000000000000e+00,2.500000000000000000e+01
6.715400000000000000e+04,-6.999999999999999387e-05,2.999999999999999737e-05,8.000000000000000654e-05,1.000000000000000048e-04,-1.399999999999999877e-04,5.000000000000000104e-04,2.200000000000000078e-04,7.099999999999999107e-04,6.000000000000000000e+00,2.500000000000000000e+01
6.715500000000000000e+04,-6.999999999999999387e-05,2.999999999999999737e-05,8.000000000000000654e-05,1.000000000000000048e-04,-1.399999999999999877e-04,5.000000000000000104e-04,2.200000000000000078e-04,7.099999999999999107e-04,6.000000000000000000e+00,2.500000000000000000e+01
6.715600000000000000e+04,-6.999999999999999387e-05,2.999999999999999737e-05,8.000000000000000654e-05,1.000000000000000048e-04,-1.399999999999999877e-04,5.000000000000000104e-04,2.200000000000000078e-04,7.099999999999999107e-04,6.000000000000000000e+00,2.500000000000000000e+01
6.715700000000000000e+04,-6.999999999999999387e-05,2.999999999999999737e-05,8.000000000000000654e-05,1.000000000000000048e-04,-1.399999999999999877e-04,5.000000000000000104e-04,2.200000000000000078e-04,7.099999999999999107e-04,6.000000000000000000e+00,2.500000000000000000e+01
6.715800000000000000e+04,-6.999999999999999387e-05,2.999999999999999737e-05,8.000000000000000654e-05,1.000000000000000048e-04,-1.399999999999999877e-04,5.000000000000000104e-04,2.200000000000000078e-04,7.099999999999999107e-04,6.000000000000000000e+00,2.500000000000000000e+01
6.715900000000000000e+04,-6.999999999999999387e-05,2.999999999999999737e-05,8.000000000000000654e-05,1.000000000000000048e-04,-1.399999999999999877e-04,5.000000000000000104e-04,2.200000000000000078e-04,7.099999999999999107e-04,6.000000000000000000e+00,2.500000000000000000e+01
6.716000000000000000e+04,-6.999999999999999387e-05,2.999999999999999737e-05,8.000000000000000654e-05,1.000000000000000048e-04,-1.399999999999999877e-04,5.000000000000000104e-04,2.200000000000000078e-04,7.099999999999999107e-04,6.000000000000000000e+00,2.500000000000000000e+01
6.716100000000000000e+04,-6.999999999999999387e-05,2.999999999999999737e-05,8.000000000000000654e-05,1.000000000000000048e-04,-1.399999999999999877e-04,5.000000000000000104e-04,2.200000000000000078e-04,7.099999999999999107e-04,6.000000000000000000e+00,2.500000000000000000e+01
6.716200000000000000e+04,-6.999999999999999387e-05,2.999999999999999737e-05,8.000000000000000654e-05,1.000000000000000048e-04,-1.399999999999999877e-04,5.000000000000000104e-04,2.200000000000000078e-04,7.099999999999999107e-04,6.000000000000000000e+00,2.500000000000000000e+01
6.716300000000000000e+04,6.999999999999999387e-05,8.000000000000000654e-05,2.999999999999999737e-05,2.999999999999999737e-05,-8.000000000000000654e-05,4.499999999999999877e-04,2.600000000000000314e-04,7.299999999999999632e-04,6.000000000000000000e+00,2.500000000000000000e+01
6.716400000000000000e+04,0.000000000000000000e+00,-8.000000000000000654e-05,-1.100000000000000039e-04,-1.800000000000000113e-04,-4.400000000000000157e-04,-8.499999999999999526e-04,-2.799999999999999755e-04,-4.599999999999999597e-04,6.000000000000000000e+00,2.500000000000000000e+01
6.716500000000000000e+04,0.000000000000000000e+00,-8.000000000000000654e-05,-1.100000000000000039e-04,-1.800000000000000113e-04,-4.400000000000000157e-04,-8.499999999999999526e-04,-2.799999999999999755e-04,-4.599999999999999597e-04,6.000000000000000000e+00,2.500000000000000000e+01
6.716600000000000000e+04,0.000000000000000000e+00,-8.000000000000000654e-05,-1.100000000000000039e-04,-1.800000000000000113e-04,-4.400000000000000157e-04,-8.499999999999999526e-04,-2.799999999999999755e-04,-4.599999999999999597e-04,6.000000000000000000e+00,2.500000000000000000e+01
6.716700000000000000e+04,0.000000000000000000e+00,-8.000000000000000654e-05,-1.100000000000000039e-04,-1.800000000000000113e-04,-4.400000000000000157e-04,-8.499999999999999526e-04,-2.799999999999999755e-04,-4.599999999999999597e-04,6.000000000000000000e+00,2.500000000000000000e+01
6.716800000000000000e+04,0.000000000000000000e+00,-8.000000000000000654e-05,-1.100000000000000039e-04,-1.800000000000000113e-04,-4.400000000000000157e-04,-8.499999999999999526e-04,-2.799999999999999755e-04,-4.599999999999999597e-04,6.000000000000000000e+00,2.500000000000000000e+01
6.716900000000000000e+04,0.000000000000000000e+00,-8.000000000000000654e-05,-1.100000000000000039e-04,-1.800000000000000113e-04,-4.400000000000000157e-04,-8.499999999999999526e-04,-2.799999999999999755e-04,-4.599999999999999597e-04,6.000000000000000000e+00,2.500000000000000000e+01
6.717000000000000000e+04,0.000000000000000000e+00,-8.000000000000000654e-05,-1.100000000000000039e-04,-1.800000000000000113e-04,-4.400000000000000157e-04,-8.499999999999999526e-04,-2.799999999999999755e-04,-4.599999999999999597e-04,6.000000000000000000e+00,2.500000000000000000e+01
6.717200000000000000e+04,0.000000000000000000e+00,-8.000000000000000654e-05,-1.100000000000000039e-04,-1.800000000000000113e-04,-4.400000000000000157e-04,-8.499999999999999526e-04,-2.799999999999999755e-04,-4.599999999999999597e-04,6.000000000000000000e+00,2.500000000000000000e+01
6.717300000000000000e+04,0.000000000000000000e+00,-8.000000000000000654e-05,-1.100000000000000039e-04,-1.800000000000000113e-04,-4.400000000000000157e-04,-8.499999999999999526e-04,-2.799999999999999755e-04,-4.599999999999999597e-04,6.000000000000000000e+00,2.500000000000000000e+01
6.717400000000000000e+04,0.000000000000000000e+00,-8.000000000000000654e-05,-1.100000000000000039e-04,-1.800000000000000113e-04,-4.400000000000000157e-04,-8.499999999999999526e-04,-2.799999999999999755e-04,-4.599999999999999597e-04,6.000000000000000000e+00,2.500000000000000000e+01
6.717500000000000000e+04,0.000000000000000000e+00,-8.000000000000000654e-05,-1.100000000000000039e-04,-1.800000000000000113e-04,-4.400000000000000157e-04,-8.499999999999999526e-04,-2.799999999999999755e-04,-4.599999999999999597e-04,6.000000000000000000e+00,2.500000000000000000e+01
6.717600000000000000e+04,0.000000000000000000e+00,-8.000000000000000654e-05,-1.100000000000000039e-04,-1.800000000000000113e-04,-4.400000000000000157e-04,-8.499999999999999526e-04,-2.799999999999999755e-04,-4.599999999999999597e-04,6.000000000000000000e+00,2.500000000000000000e+01
6.717700000000000000e+04,0.000000000000000000e+00,-8.000000000000000654e-05,-1.100000000000000039e-04,-1.800000000000000113e-04,-4.400000000000000157e-04,-8.499999999999999526e-04,-2.799999999999999755e-04,-4.599999999999999597e-04,6.000000000000000000e+00,2.500000000000000000e+01
6.717800000000000000e+04,0.000000000000000000e+00,-8.000000000000000654e-05,-1.100000000000000039e-04,-1.800000000000000113e-04,-4.400000000000000157e-04,-8.499999999999999526e-04,-2.799999999999999755e-04,-4.599999999999999597e-04,6.000000000000000000e+00,2.500000000000000000e+01
6.717900000000000000e+04,0.000000000000000000e+00,-8.000000000000000654e-05,-1.100000000000000039e-04,-1.800000000000000113e-04,-4.400000000000000157e-04,-8.499999999999999526e-04,-2.799999999999999755e-04,-4.599999999999999597e-04,6.000000000000000000e+00,2.500000000000000000e+01
6.718000000000000000e+04,0.000000000000000000e+00,-8.000000000000000654e-05,-1.100000000000000039e-04,-1.800000000000000113e-04,-4.400000000000000157e-04,-8.499999999999999526e-04,-2.799999999999999755e-04,-4.599999999999999597e-04,6.000000000000000000e+00,2.500000000000000000e+01
6.718100000000000000e+04,0.000000000000000000e+00,-8.000000000000000654e-05,-1.100000000000000039e-04,-1.800000000000000113e-04,-4.400000000000000157e-04,-8.499999999999999526e-04,-2.799999999999999755e-04,-4.599999999999999597e-04,6.000000000000000000e+00,2.500000000000000000e+01
6.718200000000000000e+04,0.000000000000000000e+00,-8.000000000000000654e-05,-1.100000000000000039e-04,-1.800000000000000113e-04,-4.400000000000000157e-04,-8.499999999999999526e-04,-2.799999999999999755e-04,-4.599999999999999597e-04,6.000000000000000000e+00,2.500000000000000000e+01
6.718300000000000000e+04,0.000000000000000000e+00,-8.000000000000000654e-05,-1.100000000000000039e-04,-1.800000000000000113e-04,-4.400000000000000157e-04,-8.499999999999999526e-04,-2.799999999999999755e-04,-4.599999999999999597e-04,6.000000000000000000e+00,2.500000000000000000e+01
6.718400000000000000e+04,0.000000000000000000e+00,-8.000000000000000654e-05,-1.100000000000000039e-04,-1.800000000000000113e-04,-4.400000000000000157e-04,-8.499999999999999526e-04,-2.799999999999999755e-04,-4.599999999999999597e-04,6.000000000000000000e+00,2.500000000000000000e+01
6.718500000000000000e+04,0.000000000000000000e+00,-8.000000000000000654e-05,-1.100000000000000039e-04,-1.800000000000000113e-04,-4.400000000000000157e-04,-8.499999999999999526e-04,-2.799999999999999755e-04,-4.599999999999999597e-04,6.000000000000000000e+00,2.500000000000000000e+01
6.718600000000000000e+04,-4.000000000000000327e-05,-1.100000000000000039e-04,-1.000000000000000048e-04,-4.000000000000000327e-05,1.699999999999999851e-04,-4.400000000000000157e-04,-1.300000000000000157e-04,1.100000000000000039e-04,6.000000000000000000e+00,2.500000000000000000e+01
6.718800000000000000e+04,8.000000000000000654e-05,6.999999999999999387e-05,1.300000000000000157e-04,1.699999999999999851e-04,7.099999999999999107e-04,1.269999999999999862e-03,2.799999999999999755e-04,6.700000000000000226e-04,6.000000000000000000e+00,2.500000000000000000e+01
6.718900000000000000e+04,8.000000000000000654e-05,6.999999999999999387e-05,1.300000000000000157e-04,1.699999999999999851e-04,7.099999999999999107e-04,1.269999999999999862e-03,2.799999999999999755e-04,6.700000000000000226e-04,6.000000000000000000e+00,2.500000000000000000e+01
6.719000000000000000e+04,8.000000000000000654e-05,6.999999999999999387e-05,1.300000000000000157e-04,1.699999999999999851e-04,7.099999999999999107e-04,1.269999999999999862e-03,2.799999999999999755e-04,6.700000000000000226e-04,6.000000000000000000e+00,2.500000000000000000e+01
6.719100000000000000e+04,8.000000000000000654e-05,6.999999999999999387e-05,1.300000000000000157e-04,1.699999999999999851e-04,7.099999999999999107e-04,1.269999999999999862e-03,2.799999999999999755e-04,6.700000000000000226e-04,6.000000000000000000e+00,2.500000000000000000e+01
6.719200000000000000e+04,8.000000000000000654e-05,6.999999999999999387e-05,1.300000000000000157e-04,1.699999999999999851e-04,7.099999999999999107e-04,1.269999999999999862e-03,2.799999999999999755e-04,6.700000000000000226e-04,6.000000000000000000e+00,2.500000000000000000e+01
6.719300000000000000e+04,8.000000000000000654e-05,6.999999999999999387e-05,1.300000000000000157e-04,1.699999999999999851e-04,7.099999999999999107e-04,1.269999999999999862e-03,2.799999999999999755e-04,6.700000000000000226e-04,6.000000000000000000e+00,2.500000000000000000e+01
6.719400000000000000e+04,8.000000000000000654e-05,6.999999999999999387e-05,1.300000000000000157e-04,1.699999999999999851e-04,7.099999999999999107e-04,1.269999999999999862e-03,2.799999999999999755e-04,6.700000000000000226e-04,6.000000000000000000e+00,2.500000000000000000e+01
6.719500000000000000e+04,8.000000000000000654e-05,6.999999999999999387e-05,1.300000000000000157e-04,1.699999999999999851e-04,7.099999999999999107e-04,1.269999999999999862e-03,2.799999999999999755e-04,6.700000000000000226e-04,6.000000000000000000e+00,2.500000000000000000e+01
6.719600000000000000e+04,8.000000000000000654e-05,6.999999999999999387e-05,1.300000000000000157e-04,1.699999999999999851e-04,7.099999999999999107e-04,1.269999999999999862e-03,2.799999999999999755e-04,6.700000000000000226e-04,6.000000000000000000e+00,2.500000000000000000e+01
6.719700000000000000e+04,8.000000000000000654e-05,6.999999999999999387e-05,1.300000000000000157e-04,1.699999999999999851e-04,7.099999999999999107e-04,1.269999999999999862e-03,2.799999999999999755e-04,6.700000000000000226e-04,6.000000000000000000e+00,2.500000000000000000e+01
6.719800000000000000e+04,8.000000000000000654e-05,6.999999999999999387e-05,1.300000000000000157e-04,1.699999999999999851e-04,7.099999999999999107e-04,1.269999999999999862e-03,2.799999999999999755e-04,6.700000000000000226e-04,6.000000000000000000e+00,2.500000000000000000e+01
6.719900000000000000e+04,8.000000000000000654e-05,6.999999999999999387e-05,1.300000000000000157e-04,1.699999999999999851e-04,7.099999999999999107e-04,1.269999999999999862e-03,2.799999999999999755e-04,6.700000000000000226e-04,6.000000000000000000e+00,2.500000000000000000e+01
6.720000000000000000e+04,8.000000000000000654e-05,6.999999999999999387e-05,1.300000000000000157e-04,1.699999999999999851e-04,7.099999999999999107e-04,1.269999999999999862e-03,2.799999999999999755e-04,6.700000000000000226e-04,6.000000000000000000e+00,2.500000000000000000e+01
6.720100000000000000e+04,-6.999999999999999387e-05,1.000000000000000082e-05,0.000000000000000000e+00,-5.999999999999999474e-05,-8.000000000000000654e-05,-2.700000000000000035e-04,4.000000000000000327e-05,2.999999999999999737e-05,6.000000000000000000e+00,2.500000000000000000e+01
6.720200000000000000e+04,2.000000000000000096e-04,1.300000000000000157e-04,1.399999999999999877e-04,2.000000000000000164e-05,-4.000000000000000192e-04,4.499999999999999877e-04,2.200000000000000078e-04,2.000000000000000164e-05,6.000000000000000000e+00,2.500000000000000000e+01
6.720300000000000000e+04,2.000000000000000096e-04,1.300000000000000157e-04,1.399999999999999877e-04,2.000000000000000164e-05,-4.000000000000000192e-04,4.499999999999999877e-04,2.200000000000000078e-04,2.000000000000000164e-05,6.000000000000000000e+00,2.500000000000000000e+01
6.720400000000000000e+04,2.000000000000000096e-04,1.300000000000000157e-04,1.399999999999999877e-04,2.000000000000000164e-05,-4.000000000000000192e-04,4.499999999999999877e-04,2.200000000000000078e-04,2.000000000000000164e-05,6.000000000000000000e+00,2.500000000000000000e+01
6.720500000000000000e+04,2.000000000000000096e-04,1.300000000000000157e-04,1.399999999999999877e-04,2.000000000000000164e-05,-4.000000000000000192e-04,4.499999999999999877e-04,2.200000000000000078e-04,2.000000000000000164e-05,6.000000000000000000e+00,2.500000000000000000e+01
6.720600000000000000e+04,2.000000000000000096e-04,1.300000000000000157e-04,1.399999999999999877e-04,2.000000000000000164e-05,-4.000000000000000192e-04,4.499999999999999877e-04,2.200000000000000078e-04,2.000000000000000164e-05,6.000000000000000000e+00,2.500000000000000000e+01
6.720700000000000000e+04,2.000000000000000096e-04,1.300000000000000157e-04,1.399999999999999877e-04,2.000000000000000164e-05,-4.000000000000000192e-04,4.499999999999999877e-04,2.200000000000000078e-04,2.000000000000000164e-05,6.000000000000000000e+00,2.500000000000000000e+01
6.720800000000000000e+04,2.000000000000000096e-04,1.300000000000000157e-04,1.399999999999999877e-04,2.000000000000000164e-05,-4.000000000000000192e-04,4.499999999999999877e-04,2.200000000000000078e-04,2.000000000000000164e-05,6.000000000000000000e+00,2.500000000000000000e+01
6.720900000000000000e+04,2.000000000000000096e-04,1.300000000000000157e-04,1.399999999999999877e-04,2.000000000000000164e-05,-4.000000000000000192e-04,4.499999999999999877e-04,2.200000000000000078e-04,2.000000000000000164e-05,6.000000000000000000e+00,2.500000000000000000e+01
6.721000000000000000e+04,2.000000000000000096e-04,1.300000000000000157e-04,1.399999999999999877e-04,2.000000000000000164e-05,-4.000000000000000192e-04,4.499999999999999877e-04,2.200000000000000078e-04,2.000000000000000164e-05,6.000000000000000000e+00,2.500000000000000000e+01
6.721100000000000000e+04,2.000000000000000096e-04,1.300000000000000157e-04,1.399999999999999877e-04,2.000000000000000164e-05,-4.000000000000000192e-04,4.499999999999999877e-04,2.200000000000000078e-04,2.000000000000000164e-05,6.000000000000000000e+00,2.500000000000000000e+01
6.721200000000000000e+04,2.000000000000000096e-04,1.300000000000000157e-04,1.399999999999999877e-04,2.000000000000000164e-05,-4.000000000000000192e-04,4.499999999999999877e-04,2.200000000000000078e-04,2.000000000000000164e-05,6.000000000000000000e+00,2.500000000000000000e+01
6.721300000000000000e+04,2.000000000000000096e-04,1.300000000000000157e-04,1.399999999999999877e-04,2.000000000000000164e-05,-4.000000000000000192e-04,4.499999999999999877e-04,2.200000000000000078e-04,2.000000000000000164e-05,6.000000000000000000e+00,2.500000000000000000e+01
6.721400000000000000e+04,9.000000000000000567e-05,-2.000000000000000164e-05,-2.000000000000000164e-05,4.000000000000000327e-05,-1.100000000000000039e-04,-2.799999999999999755e-04,2.900000000000000017e-04,4.799999999999999580e-04,6.000000000000000000e+00,2.500000000000000000e+01
6.721500000000000000e+04,9.000000000000000567e-05,-2.000000000000000164e-05,-2.000000000000000164e-05,4.000000000000000327e-05,-1.100000000000000039e-04,-2.799999999999999755e-04,2.900000000000000017e-04,4.799999999999999580e-04,6.000000000000000000e+00,2.500000000000000000e+01
6.721600000000000000e+04,9.000000000000000567e-05,-2.000000000000000164e-05,-2.000000000000000164e-05,4.000000000000000327e-05,-1.100000000000000039e-04,-2.799999999999999755e-04,2.900000000000000017e-04,4.799999999999999580e-04,6.000000000000000000e+00,2.500000000000000000e+01
6.721700000000000000e+04,9.000000000000000567e-05,-2.000000000000000164e-05,-2.000000000000000164e-05,4.000000000000000327e-05,-1.100000000000000039e-04,-2.799999999999999755e-04,2.900000000000000017e-04,4.799999999999999580e-04,6.000000000000000000e+00,2.500000000000000000e+01
6.721800000000000000e+04,9.000000000000000567e-05,-2.000000000000000164e-05,-2.000000000000000164e-05,4.000000000000000327e-05,-1.100000000000000039e-04,-2.799999999999999755e-04,2.900000000000000017e-04,4.799999999999999580e-04,6.000000000000000000e+00,2.500000000000000000e+01
6.721900000000000000e+04,9.000000000000000567e-05,-2.000000000000000164e-05,-2.000000000000000164e-05,4.000000000000000327e-05,-1.100000000000000039e-04,-2.799999999999999755e-04,2.900000000000000017e-04,4.799999999999999580e-04,6.000000000000000000e+00,2.500000000000000000e+01
6.722000000000000000e+04,9.000000000000000567e-05,-2.000000000000000164e-05,-2.000000000000000164e-05,4.000000000000000327e-05,-1.100000000000000039e-04,-2.799999999999999755e-04,2.900000000000000017e-04,4.799999999999999580e-04,6.000000000000000000e+00,2.500000000000000000e+01
6.722100000000000000e+04,9.000000000000000567e-05,-2.000000000000000164e-05,-2.000000000000000164e-05,4.000000000000000327e-05,-1.100000000000000039e-04,-2.799999999999999755e-04,2.900000000000000017e-04,4.799999999999999580e-04,6.000000000000000000e+00,2.500000000000000000e+01
6.722200000000000000e+04,9.000000000000000567e-05,-2.000000000000000164e-05,-2.000000000000000164e-05,4.000000000000000327e-05,-1.100000000000000039e-04,-2.799999999999999755e-04,2.900000000000000017e-04,4.799999999999999580e-04,6.000000000000000000e+00,2.500000000000000000e+01
6.722300000000000000e+04,9.000000000000000567e-05,-2.000000000000000164e-05,-2.000000000000000164e-05,4.000000000000000327e-05,-1.100000000000000039e-04,-2.799999999999999755e-04,2.900000000000000017e-04,4.799999999999999580e-04,6.000000000000000000e+00,2.500000000000000000e+01
6.722400000000000000e+04,-1.100000000000000039e-04,-5.999999999999999474e-05,-9.000000000000000567e-05,-1.699999999999999851e-04,-5.000000000000000104e-04,-7.799999999999999859e-04,-3.499999999999999964e-04,-1.139999999999999954e-03,6.000000000000000000e+00,2.500000000000000000e+01
6.722500000000000000e+04,-1.100000000000000039e-04,-5.999999999999999474e-05,-9.000000000000000567e-05,-1.699999999999999851e-04,-5.000000000000000104e-04,-7.799999999999999859e-04,-3.499999999999999964e-04,-1.139999999999999954e-03,6.000000000000000000e+00,2.500000000000000000e+01
6.722600000000000000e+04,-1.100000000000000039e-04,-5.999999999999999474e-05,-9.000000000000000567e-05,-1.699999999999999851e-04,-5.000000000000000104e-04,-7.799999999999999859e-04,-3.499999999999999964e-04,-1.139999999999999954e-03,6.000000000000000000e+00,2.500000000000000000e+01
6.722700000000000000e+04,-1.100000000000000039e-04,-5.999999999999999474e-05,-9.000000000000000567e-05,-1.699999999999999851e-04,-5.000000000000000104e-04,-7.799999999999999859e-04,-3.499999999999999964e-04,-1.139999999999999954e-03,6.000000000000000000e+00,2.500000000000000000e+01
6.722800000000000000e+04,-1.100000000000000039e-04,-5.999999999999999474e-05,-9.000000000000000567e-05,-1.699999999999999851e-04,-5.000000000000000104e-04,-7.799999999999999859e-04,-3.499999999999999964e-04,-1.139999999999999954e-03,6.000000000000000000e+00,2.500000000000000000e+01
6.722900000000000000e+04,-1.100000000000000039e-04,-5.999999999999999474e-05,-9.000000000000000567e-05,-1.699999999999999851e-04,-5.000000000000000104e-04,-7.799999999999999859e-04,-3.499999999999999964e-04,-1.139999999999999954e-03,6.000000000000000000e+00,2.500000000000000000e+01
6.723000000000000000e+04,-1.100000000000000039e-04,-5.999999999999999474e-05,-9.000000000000000567e-05,-1.699999999999999851e-04,-5.000000000000000104e-04,-7.799999999999999859e-04,-3.499999999999999964e-04,-1.139999999999999954e-03,6.000000000000000000e+00,2.500000000000000000e+01
6.723100000000000000e+04,-1.100000000000000039e-04,-5.999999999999999474e-05,-9.000000000000000567e-05,-1.699999999999999851e-04,-5.000000000000000104e-04,-7.799999999999999859e-04,-3.499999999999999964e-04,-1.139999999999999954e-03,6.000000000000000000e+00,2.500000000000000000e+01
6.723200000000000000e+04,-1.100000000000000039e-04,-5.999999999999999474e-05,-9.000000000000000567e-05,-1.699999999999999851e-04,-5.000000000000000104e-04,-7.799999999999999859e-04,-3.499999999999999964e-04,-1.139999999999999954e-03,6.000000000000000000e+00,2.500000000000000000e+01
6.723300000000000000e+04,-1.100000000000000039e-04,-5.999999999999999474e-05,-9.000000000000000567e-05,-1.699999999999999851e-04,-5.000000000000000104e-04,-7.799999999999999859e-04,-3.499999999999999964e-04,-1.139999999999999954e-03,6.000000000000000000e+00,2.500000000000000000e+01
6.723400000000000000e+04,-1.100000000000000039e-04,-5.999999999999999474e-05,-9.000000000000000567e-05,-1.699999999999999851e-04,-5.000000000000000104e-04,-7.799999999999999859e-04,-3.499999999999999964e-04,-1.139999999999999954e-03,6.000000000000000000e+00,2.500000000000000000e+01
6.723500000000000000e+04,-1.100000000000000039e-04,-5.999999999999999474e-05,-9.000000000000000567e-05,-1.699999999999999851e-04,-5.000000000000000104e-04,-7.799999999999999859e-04,-3.499999999999999964e-04,-1.139999999999999954e-03,6.000000000000000000e+00,2.500000000000000000e+01
6.723600000000000000e+04,-1.100000000000000039e-04,-5.999999999999999474e-05,-9.000000000000000567e-05,-1.699999999999999851e-04,-5.000000000000000104e-04,-7.799999999999999859e-04,-3.499999999999999964e-04,-1.139999999999999954e-03,6.000000000000000000e+00,2.500000000000000000e+01
6.723800000000000000e+04,3.899999999999999929e-04,2.000000000000000164e-05,4.000000000000000327e-05,9.000000000000000567e-05,4.799999999999999580e-04,-3.799999999999999667e-04,1.000000000000000082e-05,8.999999999999999754e-04,6.000000000000000000e+00,2.500000000000000000e+01
6.723900000000000000e+04,-3.200000000000000262e-04,2.999999999999999737e-05,0.000000000000000000e+00,2.000000000000000164e-05,-5.000000000000000240e-05,-5.099999999999999282e-04,-1.199999999999999895e-04,5.800000000000000034e-04,6.000000000000000000e+00,2.500000000000000000e+01
6.724000000000000000e+04,-6.999999999999999387e-05,-2.000000000000000164e-05,-2.000000000000000164e-05,6.999999999999999387e-05,5.999999999999999474e-04,-1.240000000000000000e-03,1.199999999999999895e-04,-1.899999999999999834e-04,6.000000000000000000e+00,2.500000000000000000e+01
6.724100000000000000e+04,-6.999999999999999387e-05,-2.000000000000000164e-05,-2.000000000000000164e-05,6.999999999999999387e-05,5.999999999999999474e-04,-1.240000000000000000e-03,1.199999999999999895e-04,-1.899999999999999834e-04,6.000000000000000000e+00,2.500000000000000000e+01
6.724200000000000000e+04,-6.999999999999999387e-05,-2.000000000000000164e-05,-2.000000000000000164e-05,6.999999999999999387e-05,5.999999999999999474e-04,-1.240000000000000000e-03,1.199999999999999895e-04,-1.899999999999999834e-04,6.000000000000000000e+00,2.500000000000000000e+01
6.724300000000000000e+04,-6.999999999999999387e-05,-2.000000000000000164e-05,-2.000000000000000164e-05,6.999999999999999387e-05,5.999999999999999474e-04,-1.240000000000000000e-03,1.199999999999999895e-04,-1.899999999999999834e-04,6.000000000000000000e+00,2.500000000000000000e+01
6.724400000000000000e+04,-6.999999999999999387e-05,-2.000000000000000164e-05,-2.000000000000000164e-05,6.999999999999999387e-05,5.999999999999999474e-04,-1.240000000000000000e-03,1.199999999999999895e-04,-1.899999999999999834e-04,6.000000000000000000e+00,2.500000000000000000e+01
6.724500000000000000e+04,-6.999999999999999387e-05,-2.000000000000000164e-05,-2.000000000000000164e-05,6.999999999999999387e-05,5.999999999999999474e-04,-1.240000000000000000e-03,1.199999999999999895e-04,-1.899999999999999834e-04,6.000000000000000000e+00,2.500000000000000000e+01
6.724600000000000000e+04,-6.999999999999999387e-05,-2.000000000000000164e-05,-2.000000000000000164e-05,6.999999999999999387e-05,5.999999999999999474e-04,-1.240000000000000000e-03,1.199999999999999895e-04,-1.899999999999999834e-04,6.000000000000000000e+00,2.500000000000000000e+01
6.724700000000000000e+04,-6.999999999999999387e-05,-2.000000000000000164e-05,-2.000000000000000164e-05,6.999999999999999387e-05,5.999999999999999474e-04,-1.240000000000000000e-03,1.199999999999999895e-04,-1.899999999999999834e-04,6.000000000000000000e+00,2.500000000000000000e+01
6.724800000000000000e+04,-6.999999999999999387e-05,-2.000000000000000164e-05,-2.000000000000000164e-05,6.999999999999999387e-05,5.999999999999999474e-04,-1.240000000000000000e-03,1.199999999999999895e-04,-1.899999999999999834e-04,6.000000000000000000e+00,2.500000000000000000e+01
6.724900000000000000e+04,-6.999999999999999387e-05,-2.000000000000000164e-05,-2.000000000000000164e-05,6.999999999999999387e-05,5.999999999999999474e-04,-1.240000000000000000e-03,1.199999999999999895e-04,-1.899999999999999834e-04,6.000000000000000000e+00,2.500000000000000000e+01
6.725000000000000000e+04,-6.999999999999999387e-05,-2.000000000000000164e-05,-2.000000000000000164e-05,6.999999999999999387e-05,5.999999999999999474e-04,-1.240000000000000000e-03,1.199999999999999895e-04,-1.899999999999999834e-04,6.000000000000000000e+00,2.500000000000000000e+01
6.725100000000000000e+04,-6.999999999999999387e-05,-2.000000000000000164e-05,-2.000000000000000164e-05,6.999999999999999387e-05,5.999999999999999474e-04,-1.240000000000000000e-03,1.199999999999999895e-04,-1.899999999999999834e-04,6.000000000000000000e+00,2.500000000000000000e+01
6.725200000000000000e+04,-6.999999999999999387e-05,-2.000000000000000164e-05,-2.000000000000000164e-05,6.999999999999999387e-05,5.999999999999999474e-04,-1.240000000000000000e-03,1.199999999999999895e-04,-1.899999999999999834e-04,6.000000000000000000e+00,2.500000000000000000e+01
6.725300000000000000e+04,-6.999999999999999387e-05,-2.000000000000000164e-05,-2.000000000000000164e-05,6.999999999999999387e-05,5.999999999999999474e-04,-1.240000000000000000e-03,1.199999999999999895e-04,-1.899999999999999834e-04,6.000000000000000000e+00,2.500000000000000000e+01
6.725400000000000000e+04,-6.999999999999999387e-05,-2.000000000000000164e-05,-2.000000000000000164e-05,6.999999999999999387e-05,5.999999999999999474e-04,-1.240000000000000000e-03,1.199999999999999895e-04,-1.899999999999999834e-04,6.000000000000000000e+00,2.500000000000000000e+01
6.725500000000000000e+04,-6.999999999999999387e-05,-2.000000000000000164e-05,-2.000000000000000164e-05,6.999999999999999387e-05,5.999999999999999474e-04,-1.240000000000000000e-03,1.199999999999999895e-04,-1.899999999999999834e-04,6.000000000000000000e+00,2.500000000000000000e+01
6.725600000000000000e+04,-6.999999999999999387e-05,-2.000000000000000164e-05,-2.000000000000000164e-05,6.999999999999999387e-05,5.999999999999999474e-04,-1.240000000000000000e-03,1.199999999999999895e-04,-1.899999999999999834e-04,6.000000000000000000e+00,2.500000000000000000e+01
6.725700000000000000e+04,-6.999999999999999387e-05,-2.000000000000000164e-05,-2.000000000000000164e-05,6.999999999999999387e-05,5.999999999999999474e-04,-1.240000000000000000e-03,1.199999999999999895e-04,-1.899999999999999834e-04,6.000000000000000000e+00,2.500000000000000000e+01
6.725800000000000000e+04,-6.999999999999999387e-05,-2.000000000000000164e-05,-2.000000000000000164e-05,6.999999999999999387e-05,5.999999999999999474e-04,-1.240000000000000000e-03,1.199999999999999895e-04,-1.899999999999999834e-04,6.000000000000000000e+00,2.500000000000000000e+01
6.725900000000000000e+04,-6.999999999999999387e-05,-2.000000000000000164e-05,-2.000000000000000164e-05,6.999999999999999387e-05,5.999999999999999474e-04,-1.240000000000000000e-03,1.199999999999999895e-04,-1.899999999999999834e-04,6.000000000000000000e+00,2.500000000000000000e+01
6.726000000000000000e+04,-6.999999999999999387e-05,-2.000000000000000164e-05,-2.000000000000000164e-05,6.999999999999999387e-05,5.999999999999999474e-04,-1.240000000000000000e-03,1.199999999999999895e-04,-1.899999999999999834e-04,6.000000000000000000e+00,2.500000000000000000e+01
6.726100000000000000e+04,1.000000000000000082e-05,-8.000000000000000654e-05,-1.000000000000000048e-04,-1.600000000000000131e-04,-1.800000000000000113e-04,-2.500000000000000052e-04,-1.300000000000000157e-04,-1.119999999999999902e-03,6.000000000000000000e+00,2.500000000000000000e+01
6.726200000000000000e+04,9.000000000000000567e-05,5.999999999999999474e-05,2.000000000000000164e-05,2.999999999999999737e-05,1.199999999999999895e-04,-1.100000000000000066e-03,-1.199999999999999895e-04,1.600000000000000131e-04,6.000000000000000000e+00,2.500000000000000000e+01
6.726300000000000000e+04,9.000000000000000567e-05,5.999999999999999474e-05,2.000000000000000164e-05,2.999999999999999737e-05,1.199999999999999895e-04,-1.100000000000000066e-03,-1.199999999999999895e-04,1.600000000000000131e-04,6.000000000000000000e+00,2.500000000000000000e+01
6.726400000000000000e+04,9.000000000000000567e-05,5.999999999999999474e-05,2.000000000000000164e-05,2.999999999999999737e-05,1.199999999999999895e-04,-1.100000000000000066e-03,-1.199999999999999895e-04,1.600000000000000131e-04,6.000000000000000000e+00,2.500000000000000000e+01
6.726500000000000000e+04,9.000000000000000567e-05,5.999999999999999474e-05,2.000000000000000164e-05,2.999999999999999737e-05,1.199999999999999895e-04,-1.100000000000000066e-03,-1.199999999999999895e-04,1.600000000000000131e-04,6.000000000000000000e+00,2.500000000000000000e+01
6.726600000000000000e+04,9.000000000000000567e-05,5.999999999999999474e-05,2.000000000000000164e-05,2.999999999999999737e-05,1.199999999999999895e-04,-1.100000000000000066e-03,-1.199999999999999895e-04,1.600000000000000131e-04,6.000000000000000000e+00,2.500000000000000000e+01
6.726700000000000000e+04,9.000000000000000567e-05,5.999999999999999474e-05,2.000000000000000164e-05,2.999999999999999737e-05,1.199999999999999895e-04,-1.100000000000000066e-03,-1.199999999999999895e-04,1.600000000000000131e-04,6.000000000000000000e+00,2.500000000000000000e+01
6.726800000000000000e+04,9.000000000000000567e-05,5.999999999999999474e-05,2.000000000000000164e-05,2.999999999999999737e-05,1.199999999999999895e-04,-1.100000000000000066e-03,-1.199999999999999895e-04,1.600000000000000131e-04,6.000000000000000000e+00,2.500000000000000000e+01
6.726900000000000000e+04,9.000000000000000567e-05,5.999999999999999474e-05,2.000000000000000164e-05,2.999999999999999737e-05,1.199999999999999895e-04,-1.100000000000000066e-03,-1.199999999999999895e-04,1.600000000000000131e-04,6.000000000000000000e+00,2.500000000000000000e+01
6.727000000000000000e+04,9.000000000000000567e-05,5.999999999999999474e-05,2.000000000000000164e-05,2.999999999999999737e-05,1.199999999999999895e-04,-1.100000000000000066e-03,-1.199999999999999895e-04,1.600000000000000131e-04,6.000000000000000000e+00,2.500000000000000000e+01
6.727100000000000000e+04,9.000000000000000567e-05,5.999999999999999474e-05,2.000000000000000164e-05,2.999999999999999737e-05,1.199999999999999895e-04,-1.100000000000000066e-03,-1.199999999999999895e-04,1.600000000000000131e-04,6.000000000000000000e+00,2.500000000000000000e+01
6.727200000000000000e+04,9.000000000000000567e-05,5.999999999999999474e-05,2.000000000000000164e-05,2.999999999999999737e-05,1.199999999999999895e-04,-1.100000000000000066e-03,-1.199999999999999895e-04,1.600000000000000131e-04,6.000000000000000000e+00,2.500000000000000000e+01
6.727300000000000000e+04,9.000000000000000567e-05,5.999999999999999474e-05,2.000000000000000164e-05,2.999999999999999737e-05,1.199999999999999895e-04,-1.100000000000000066e-03,-1.199999999999999895e-04,1.600000000000000131e-04,6.000000000000000000e+00,2.500000000000000000e+01
6.727400000000000000e+04,1.499999999999999869e-04,1.000000000000000082e-05,0.000000000000000000e+00,5.999999999999999474e-05,2.799999999999999755e-04,-8.000000000000000654e-05,5.000000000000000240e-05,5.000000000000000104e-04,6.000000000000000000e+00,2.500000000000000000e+01
6.727500000000000000e+04,1.499999999999999869e-04,1.000000000000000082e-05,0.000000000000000000e+00,5.999999999999999474e-05,2.799999999999999755e-04,-8.000000000000000654e-05,5.000000000000000240e-05,5.000000000000000104e-04,6.000000000000000000e+00,2.500000000000000000e+01
6.727600000000000000e+04,1.499999999999999869e-04,1.000000000000000082e-05,0.000000000000000000e+00,5.999999999999999474e-05,2.799999999999999755e-04,-8.000000000000000654e-05,5.000000000000000240e-05,5.000000000000000104e-04,6.000000000000000000e+00,2.500000000000000000e+01
6.727700000000000000e+04,1.499999999999999869e-04,1.000000000000000082e-05,0.000000000000000000e+00,5.999999999999999474e-05,2.799999999999999755e-04,-8.000000000000000654e-05,5.000000000000000240e-05,5.000000000000000104e-04,6.000000000000000000e+00,2.500000000000000000e+01
6.727800000000000000e+04,1.499999999999999869e-04,1.000000000000000082e-05,0.000000000000000000e+00,5.999999999999999474e-05,2.799999999999999755e-04,-8.000000000000000654e-05,5.000000000000000240e-05,5.000000000000000104e-04,6.000000000000000000e+00,2.500000000000000000e+01
6.727900000000000000e+04,1.499999999999999869e-04,1.000000000000000082e-05,0.000000000000000000e+00,5.999999999999999474e-05,2.799999999999999755e-04,-8.000000000000000654e-05,5.000000000000000240e-05,5.000000000000000104e-04,6.000000000000000000e+00,2.500000000000000000e+01
6.728000000000000000e+04,1.499999999999999869e-04,1.000000000000000082e-05,0.000000000000000000e+00,5.999999999999999474e-05,2.799999999999999755e-04,-8.000000000000000654e-05,5.000000000000000240e-05,5.000000000000000104e-04,6.000000000000000000e+00,2.500000000000000000e+01
6.728100000000000000e+04,1.499999999999999869e-04,1.000000000000000082e-05,0.000000000000000000e+00,5.999999999999999474e-05,2.799999999999999755e-04,-8.000000000000000654e-05,5.000000000000000240e-05,5.000000000000000104e-04,6.000000000000000000e+00,2.500000000000000000e+01
6.728200000000000000e+04,1.499999999999999869e-04,1.000000000000000082e-05,0.000000000000000000e+00,5.999999999999999474e-05,2.799999999999999755e-04,-8.000000000000000654e-05,5.000000000000000240e-05,5.000000000000000104e-04,6.000000000000000000e+00,2.500000000000000000e+01
6.728300000000000000e+04,2.999999999999999737e-05,1.300000000000000157e-04,2.299999999999999799e-04,4.599999999999999597e-04,9.599999999999999159e-04,-4.000000000000000327e-05,8.300000000000001170e-04,-5.400000000000000069e-04,6.000000000000000000e+00,2.500000000000000000e+01
6.728400000000000000e+04,2.999999999999999737e-05,1.300000000000000157e-04,2.299999999999999799e-04,4.599999999999999597e-04,9.599999999999999159e-04,-4.000000000000000327e-05,8.300000000000001170e-04,-5.400000000000000069e-04,6.000000000000000000e+00,2.500000000000000000e+01
6.728500000000000000e+04,2.999999999999999737e-05,1.300000000000000157e-04,2.299999999999999799e-04,4.599999999999999597e-04,9.599999999999999159e-04,-4.000000000000000327e-05,8.300000000000001170e-04,-5.400000000000000069e-04,6.000000000000000000e+00,2.500000000000000000e+01
6.728600000000000000e+04,2.999999999999999737e-05,1.300000000000000157e-04,2.299999999999999799e-04,4.599999999999999597e-04,9.599999999999999159e-04,-4.000000000000000327e-05,8.300000000000001170e-04,-5.400000000000000069e-04,6.000000000000000000e+00,2.500000000000000000e+01
6.728800000000000000e+04,2.999999999999999737e-05,1.300000000000000157e-04,2.299999999999999799e-04,4.599999999999999597e-04,9.599999999999999159e-04,-4.000000000000000327e-05,8.300000000000001170e-04,-5.400000000000000069e-04,6.000000000000000000e+00,2.500000000000000000e+01
6.728900000000000000e+04,2.999999999999999737e-05,1.300000000000000157e-04,2.299999999999999799e-04,4.599999999999999597e-04,9.599999999999999159e-04,-4.000000000000000327e-05,8.300000000000001170e-04,-5.400000000000000069e-04,6.000000000000000000e+00,2.500000000000000000e+01
6.729000000000000000e+04,2.999999999999999737e-05,1.300000000000000157e-04,2.299999999999999799e-04,4.599999999999999597e-04,9.599999999999999159e-04,-4.000000000000000327e-05,8.300000000000001170e-04,-5.400000000000000069e-04,6.000000000000000000e+00,2.500000000000000000e+01
6.729100000000000000e+04,2.999999999999999737e-05,1.300000000000000157e-04,2.299999999999999799e-04,4.599999999999999597e-04,9.599999999999999159e-04,-4.000000000000000327e-05,8.300000000000001170e-04,-5.400000000000000069e-04,6.000000000000000000e+00,2.500000000000000000e+01
6.729200000000000000e+04,2.999999999999999737e-05,1.300000000000000157e-04,2.299999999999999799e-04,4.599999999999999597e-04,9.599999999999999159e-04,-4.000000000000000327e-05,8.300000000000001170e-04,-5.400000000000000069e-04,6.000000000000000000e+00,2.500000000000000000e+01
6.729300000000000000e+04,2.999999999999999737e-05,1.300000000000000157e-04,2.299999999999999799e-04,4.599999999999999597e-04,9.599999999999999159e-04,-4.000000000000000327e-05,8.300000000000001170e-04,-5.400000000000000069e-04,6.000000000000000000e+00,2.500000000000000000e+01
6.729400000000000000e+04,2.999999999999999737e-05,1.300000000000000157e-04,2.299999999999999799e-04,4.599999999999999597e-04,9.599999999999999159e-04,-4.000000000000000327e-05,8.300000000000001170e-04,-5.400000000000000069e-04,6.000000000000000000e+00,2.500000000000000000e+01
6.729500000000000000e+04,2.999999999999999737e-05,1.300000000000000157e-04,2.299999999999999799e-04,4.599999999999999597e-04,9.599999999999999159e-04,-4.000000000000000327e-05,8.300000000000001170e-04,-5.400000000000000069e-04,6.000000000000000000e+00,2.500000000000000000e+01
6.729600000000000000e+04,2.999999999999999737e-05,1.300000000000000157e-04,2.299999999999999799e-04,4.599999999999999597e-04,9.599999999999999159e-04,-4.000000000000000327e-05,8.300000000000001170e-04,-5.400000000000000069e-04,6.000000000000000000e+00,2.500000000000000000e+01
6.729700000000000000e+04,2.999999999999999737e-05,1.300000000000000157e-04,2.299999999999999799e-04,4.599999999999999597e-04,9.599999999999999159e-04,-4.000000000000000327e-05,8.300000000000001170e-04,-5.400000000000000069e-04,6.000000000000000000e+00,2.500000000000000000e+01
6.729800000000000000e+04,9.000000000000000567e-05,-4.000000000000000327e-05,-1.000000000000000082e-05,-5.000000000000000240e-05,-4.200000000000000174e-04,-7.299999999999999632e-04,-5.999999999999999474e-05,5.000000000000000240e-05,6.000000000000000000e+00,2.500000000000000000e+01
6.729900000000000000e+04,9.000000000000000567e-05,-4.000000000000000327e-05,-1.000000000000000082e-05,-5.000000000000000240e-05,-4.200000000000000174e-04,-7.299999999999999632e-04,-5.999999999999999474e-05,5.000000000000000240e-05,6.000000000000000000e+00,2.500000000000000000e+01
6.730000000000000000e+04,4.000000000000000327e-05,0.000000000000000000e+00,-4.000000000000000327e-05,-5.000000000000000240e-05,-1.899999999999999834e-04,-4.200000000000000174e-04,1.899999999999999834e-04,3.299999999999999982e-04,6.000000000000000000e+00,2.500000000000000000e+01
6.730100000000000000e+04,4.000000000000000327e-05,0.000000000000000000e+00,-4.000000000000000327e-05,-5.000000000000000240e-05,-1.899999999999999834e-04,-4.200000000000000174e-04,1.899999999999999834e-04,3.299999999999999982e-04,6.000000000000000000e+00,2.500000000000000000e+01
6.730200000000000000e+04,4.000000000000000327e-05,0.000000000000000000e+00,-4.000000000000000327e-05,-5.000000000000000240e-05,-1.899999999999999834e-04,-4.200000000000000174e-04,1.899999999999999834e-04,3.299999999999999982e-04,6.000000000000000000e+00,2.500000000000000000e+01
6.730300000000000000e+04,4.000000000000000327e-05,0.000000000000000000e+00,-4.000000000000000327e-05,-5.000000000000000240e-05,-1.899999999999999834e-04,-4.200000000000000174e-04,1.899999999999999834e-04,3.299999999999999982e-04,6.000000000000000000e+00,2.500000000000000000e+01
6.730400000000000000e+04,4.000000000000000327e-05,0.000000000000000000e+00,-4.000000000000000327e-05,-5.000000000000000240e-05,-1.899999999999999834e-04,-4.200000000000000174e-04,1.899999999999999834e-04,3.299999999999999982e-04,6.000000000000000000e+00,2.500000000000000000e+01
6.730500000000000000e+04,4.000000000000000327e-05,0.000000000000000000e+00,-4.000000000000000327e-05,-5.000000000000000240e-05,-1.899999999999999834e-04,-4.200000000000000174e-04,1.899999999999999834e-04,3.299999999999999982e-04,6.000000000000000000e+00,2.500000000000000000e+01
6.730600000000000000e+04,4.000000000000000327e-05,0.000000000000000000e+00,-4.000000000000000327e-05,-5.000000000000000240e-05,-1.899999999999999834e-04,-4.200000000000000174e-04,1.899999999999999834e-04,3.299999999999999982e-04,6.000000000000000000e+00,2.500000000000000000e+01
6.730700000000000000e+04,4.000000000000000327e-05,0.000000000000000000e+00,-4.000000000000000327e-05,-5.000000000000000240e-05,-1.899999999999999834e-04,-4.200000000000000174e-04,1.899999999999999834e-04,3.299999999999999982e-04,6.000000000000000000e+00,2.500000000000000000e+01
6.730800000000000000e+04,4.000000000000000327e-05,0.000000000000000000e+00,-4.000000000000000327e-05,-5.000000000000000240e-05,-1.899999999999999834e-04,-4.200000000000000174e-04,1.899999999999999834e-04,3.299999999999999982e-04,6.000000000000000000e+00,2.500000000000000000e+01
6.730900000000000000e+04,4.000000000000000327e-05,0.000000000000000000e+00,-4.000000000000000327e-05,-5.000000000000000240e-05,-1.899999999999999834e-04,-4.200000000000000174e-04,1.899999999999999834e-04,3.299999999999999982e-04,6.000000000000000000e+00,2.500000000000000000e+01
6.731000000000000000e+04,4.000000000000000327e-05,0.000000000000000000e+00,-4.000000000000000327e-05,-5.000000000000000240e-05,-1.899999999999999834e-04,-4.200000000000000174e-04,1.899999999999999834e-04,3.299999999999999982e-04,6.000000000000000000e+00,2.500000000000000000e+01
6.731100000000000000e+04,4.000000000000000327e-05,0.000000000000000000e+00,-4.000000000000000327e-05,-5.000000000000000240e-05,-1.899999999999999834e-04,-4.200000000000000174e-04,1.899999999999999834e-04,3.299999999999999982e-04,6.000000000000000000e+00,2.500000000000000000e+01
6.731200000000000000e+04,4.000000000000000327e-05,0.000000000000000000e+00,-4.000000000000000327e-05,-5.000000000000000240e-05,-1.899999999999999834e-04,-4.200000000000000174e-04,1.899999999999999834e-04,3.299999999999999982e-04,6.000000000000000000e+00,2.500000000000000000e+01
6.731300000000000000e+04,4.000000000000000327e-05,0.000000000000000000e+00,-4.000000000000000327e-05,-5.000000000000000240e-05,-1.899999999999999834e-04,-4.200000000000000174e-04,1.899999999999999834e-04,3.299999999999999982e-04,6.000000000000000000e+00,2.500000000000000000e+01
6.731400000000000000e+04,4.000000000000000327e-05,0.000000000000000000e+00,-4.000000000000000327e-05,-5.000000000000000240e-05,-1.899999999999999834e-04,-4.200000000000000174e-04,1.899999999999999834e-04,3.299999999999999982e-04,6.000000000000000000e+00,2.500000000000000000e+01
6.731500000000000000e+04,4.000000000000000327e-05,0.000000000000000000e+00,-4.000000000000000327e-05,-5.000000000000000240e-05,-1.899999999999999834e-04,-4.200000000000000174e-04,1.899999999999999834e-04,3.299999999999999982e-04,6.000000000000000000e+00,2.500000000000000000e+01
6.731600000000000000e+04,4.000000000000000327e-05,0.000000000000000000e+00,-4.000000000000000327e-05,-5.000000000000000240e-05,-1.899999999999999834e-04,-4.200000000000000174e-04,1.899999999999999834e-04,3.299999999999999982e-04,6.000000000000000000e+00,2.500000000000000000e+01
6.731700000000000000e+04,4.000000000000000327e-05,0.000000000000000000e+00,-4.000000000000000327e-05,-5.000000000000000240e-05,-1.899999999999999834e-04,-4.200000000000000174e-04,1.899999999999999834e-04,3.299999999999999982e-04,6.000000000000000000e+00,2.500000000000000000e+01
6.731800000000000000e+04,4.000000000000000327e-05,0.000000000000000000e+00,-4.000000000000000327e-05,-5.000000000000000240e-05,-1.899999999999999834e-04,-4.200000000000000174e-04,1.899999999999999834e-04,3.299999999999999982e-04,6.000000000000000000e+00,2.500000000000000000e+01
6.731900000000000000e+04,4.000000000000000327e-05,0.000000000000000000e+00,-4.000000000000000327e-05,-5.000000000000000240e-05,-1.899999999999999834e-04,-4.200000000000000174e-04,1.899999999999999834e-04,3.299999999999999982e-04,6.000000000000000000e+00,2.500000000000000000e+01
6.732000000000000000e+04,4.000000000000000327e-05,0.000000000000000000e+00,-4.000000000000000327e-05,-5.000000000000000240e-05,-1.899999999999999834e-04,-4.200000000000000174e-04,1.899999999999999834e-04,3.299999999999999982e-04,6.000000000000000000e+00,2.500000000000000000e+01
6.732100000000000000e+04,4.000000000000000327e-05,0.000000000000000000e+00,-4.000000000000000327e-05,-5.000000000000000240e-05,-1.899999999999999834e-04,-4.200000000000000174e-04,1.899999999999999834e-04,3.299999999999999982e-04,6.000000000000000000e+00,2.500000000000000000e+01
6.732200000000000000e+04,4.000000000000000327e-05,0.000000000000000000e+00,-4.000000000000000327e-05,-5.000000000000000240e-05,-1.899999999999999834e-04,-4.200000000000000174e-04,1.899999999999999834e-04,3.299999999999999982e-04,6.000000000000000000e+00,2.500000000000000000e+01
6.732300000000000000e+04,4.000000000000000327e-05,0.000000000000000000e+00,-4.000000000000000327e-05,-5.000000000000000240e-05,-1.899999999999999834e-04,-4.200000000000000174e-04,1.899999999999999834e-04,3.299999999999999982e-04,6.000000000000000000e+00,2.500000000000000000e+01
6.732400000000000000e+04,4.000000000000000327e-05,0.000000000000000000e+00,-4.000000000000000327e-05,-5.000000000000000240e-05,-1.899999999999999834e-04,-4.200000000000000174e-04,1.899999999999999834e-04,3.299999999999999982e-04,6.000000000000000000e+00,2.500000000000000000e+01
6.732500000000000000e+04,4.000000000000000327e-05,0.000000000000000000e+00,-4.000000000000000327e-05,-5.000000000000000240e-05,-1.899999999999999834e-04,-4.200000000000000174e-04,1.899999999999999834e-04,3.299999999999999982e-04,6.000000000000000000e+00,2.500000000000000000e+01
6.732600000000000000e+04,4.000000000000000327e-05,0.000000000000000000e+00,-4.000000000000000327e-05,-5.000000000000000240e-05,-1.899999999999999834e-04,-4.200000000000000174e-04,1.899999999999999834e-04,3.299999999999999982e-04,6.000000000000000000e+00,2.500000000000000000e+01
6.732700000000000000e+04,4.000000000000000327e-05,0.000000000000000000e+00,-4.000000000000000327e-05,-5.000000000000000240e-05,-1.899999999999999834e-04,-4.200000000000000174e-04,1.899999999999999834e-04,3.299999999999999982e-04,6.000000000000000000e+00,2.500000000000000000e+01
6.732800000000000000e+04,-1.000000000000000082e-05,0.000000000000000000e+00,2.000000000000000164e-05,9.000000000000000567e-05,4.599999999999999597e-04,6.599999999999999964e-04,2.500000000000000052e-04,0.000000000000000000e+00,6.000000000000000000e+00,2.500000000000000000e+01
6.732900000000000000e+04,-1.000000000000000082e-05,0.000000000000000000e+00,2.000000000000000164e-05,9.000000000000000567e-05,4.599999999999999597e-04,6.599999999999999964e-04,2.500000000000000052e-04,0.000000000000000000e+00,6.000000000000000000e+00,2.500000000000000000e+01
6.733000000000000000e+04,-4.000000000000000327e-05,-5.000000000000000240e-05,-1.100000000000000039e-04,-2.200000000000000078e-04,-8.000000000000000654e-05,8.499999999999999526e-04,-1.499999999999999869e-04,-3.200000000000000262e-04,6.000000000000000000e+00,2.500000000000000000e+01
6.733100000000000000e+04,-4.000000000000000327e-05,-5.000000000000000240e-05,-1.100000000000000039e-04,-2.200000000000000078e-04,-8.000000000000000654e-05,8.499999999999999526e-04,-1.499999999999999869e-04,-3.200000000000000262e-04,6.000000000000000000e+00,2.500000000000000000e+01
6.733200000000000000e+04,-4.000000000000000327e-05,-5.000000000000000240e-05,-1.100000000000000039e-04,-2.200000000000000078e-04,-8.000000000000000654e-05,8.499999999999999526e-04,-1.499999999999999869e-04,-3.200000000000000262e-04,6.000000000000000000e+00,2.500000000000000000e+01
6.733300000000000000e+04,-4.000000000000000327e-05,-5.000000000000000240e-05,-1.100000000000000039e-04,-2.200000000000000078e-04,-8.000000000000000654e-05,8.499999999999999526e-04,-1.499999999999999869e-04,-3.200000000000000262e-04,6.000000000000000000e+00,2.500000000000000000e+01
6.733400000000000000e+04,-4.000000000000000327e-05,-5.000000000000000240e-05,-1.100000000000000039e-04,-2.200000000000000078e-04,-8.000000000000000654e-05,8.499999999999999526e-04,-1.499999999999999869e-04,-3.200000000000000262e-04,6.000000000000000000e+00,2.500000000000000000e+01
6.733500000000000000e+04,1.100000000000000039e-04,6.999999999999999387e-05,9.000000000000000567e-05,2.000000000000000164e-05,-3.399999999999999702e-04,2.299999999999999799e-04,5.999999999999999474e-05,5.000000000000000240e-05,6.000000000000000000e+00,2.500000000000000000e+01
6.733600000000000000e+04,1.100000000000000039e-04,6.999999999999999387e-05,9.000000000000000567e-05,2.000000000000000164e-05,-3.399999999999999702e-04,2.299999999999999799e-04,5.999999999999999474e-05,5.000000000000000240e-05,6.000000000000000000e+00,2.500000000000000000e+01
6.733800000000000000e+04,1.100000000000000039e-04,6.999999999999999387e-05,9.000000000000000567e-05,2.000000000000000164e-05,-3.399999999999999702e-04,2.299999999999999799e-04,5.999999999999999474e-05,5.000000000000000240e-05,6.000000000000000000e+00,2.500000000000000000e+01
6.733900000000000000e+04,1.100000000000000039e-04,6.999999999999999387e-05,9.000000000000000567e-05,2.000000000000000164e-05,-3.399999999999999702e-04,2.299999999999999799e-04,5.999999999999999474e-05,5.000000000000000240e-05,6.000000000000000000e+00,2.500000000000000000e+01
6.734000000000000000e+04,1.100000000000000039e-04,6.999999999999999387e-05,9.000000000000000567e-05,2.000000000000000164e-05,-3.399999999999999702e-04,2.299999999999999799e-04,5.999999999999999474e-05,5.000000000000000240e-05,6.000000000000000000e+00,2.500000000000000000e+01
6.734100000000000000e+04,1.100000000000000039e-04,6.999999999999999387e-05,9.000000000000000567e-05,2.000000000000000164e-05,-3.399999999999999702e-04,2.299999999999999799e-04,5.999999999999999474e-05,5.000000000000000240e-05,6.000000000000000000e+00,2.500000000000000000e+01
6.734200000000000000e+04,1.100000000000000039e-04,6.999999999999999387e-05,9.000000000000000567e-05,2.000000000000000164e-05,-3.399999999999999702e-04,2.299999999999999799e-04,5.999999999999999474e-05,5.000000000000000240e-05,6.000000000000000000e+00,2.500000000000000000e+01
6.734300000000000000e+04,5.000000000000000240e-05,1.000000000000000082e-05,4.000000000000000327e-05,1.699999999999999851e-04,2.600000000000000314e-04,2.000000000000000096e-04,2.999999999999999737e-04,4.200000000000000174e-04,6.000000000000000000e+00,2.500000000000000000e+01
6.734400000000000000e+04,5.000000000000000240e-05,1.000000000000000082e-05,4.000000000000000327e-05,1.699999999999999851e-04,2.600000000000000314e-04,2.000000000000000096e-04,2.999999999999999737e-04,4.200000000000000174e-04,6.000000000000000000e+00,2.500000000000000000e+01
6.734500000000000000e+04,5.000000000000000240e-05,1.000000000000000082e-05,4.000000000000000327e-05,1.699999999999999851e-04,2.600000000000000314e-04,2.000000000000000096e-04,2.999999999999999737e-04,4.200000000000000174e-04,6.000000000000000000e+00,2.500000000000000000e+01
6.734600000000000000e+04,5.000000000000000240e-05,1.000000000000000082e-05,4.000000000000000327e-05,1.699999999999999851e-04,2.600000000000000314e-04,2.000000000000000096e-04,2.999999999999999737e-04,4.200000000000000174e-04,6.000000000000000000e+00,2.500000000000000000e+01
6.734700000000000000e+04,5.000000000000000240e-05,1.000000000000000082e-05,4.000000000000000327e-05,1.699999999999999851e-04,2.600000000000000314e-04,2.000000000000000096e-04,2.999999999999999737e-04,4.200000000000000174e-04,6.000000000000000000e+00,2.500000000000000000e+01
6.734800000000000000e+04,5.000000000000000240e-05,1.000000000000000082e-05,4.000000000000000327e-05,1.699999999999999851e-04,2.600000000000000314e-04,2.000000000000000096e-04,2.999999999999999737e-04,4.200000000000000174e-04,6.000000000000000000e+00,2.500000000000000000e+01
6.734900000000000000e+04,5.000000000000000240e-05,1.000000000000000082e-05,4.000000000000000327e-05,1.699999999999999851e-04,2.600000000000000314e-04,2.000000000000000096e-04,2.999999999999999737e-04,4.200000000000000174e-04,6.000000000000000000e+00,2.500000000000000000e+01
6.735000000000000000e+04,5.000000000000000240e-05,1.000000000000000082e-05,4.000000000000000327e-05,1.699999999999999851e-04,2.600000000000000314e-04,2.000000000000000096e-04,2.999999999999999737e-04,4.200000000000000174e-04,6.000000000000000000e+00,2.500000000000000000e+01
6.735100000000000000e+04,5.000000000000000240e-05,1.000000000000000082e-05,4.000000000000000327e-05,1.699999999999999851e-04,2.600000000000000314e-04,2.000000000000000096e-04,2.999999999999999737e-04,4.200000000000000174e-04,6.000000000000000000e+00,2.500000000000000000e+01
6.735200000000000000e+04,5.000000000000000240e-05,1.000000000000000082e-05,4.000000000000000327e-05,1.699999999999999851e-04,2.600000000000000314e-04,2.000000000000000096e-04,2.999999999999999737e-04,4.200000000000000174e-04,6.000000000000000000e+00,2.500000000000000000e+01
6.735300000000000000e+04,5.000000000000000240e-05,1.000000000000000082e-05,4.000000000000000327e-05,1.699999999999999851e-04,2.600000000000000314e-04,2.000000000000000096e-04,2.999999999999999737e-04,4.200000000000000174e-04,6.000000000000000000e+00,2.500000000000000000e+01
6.735400000000000000e+04,5.000000000000000240e-05,1.000000000000000082e-05,4.000000000000000327e-05,1.699999999999999851e-04,2.600000000000000314e-04,2.000000000000000096e-04,2.999999999999999737e-04,4.200000000000000174e-04,6.000000000000000000e+00,2.500000000000000000e+01
6.735500000000000000e+04,5.000000000000000240e-05,1.000000000000000082e-05,4.000000000000000327e-05,1.699999999999999851e-04,2.600000000000000314e-04,2.000000000000000096e-04,2.999999999999999737e-04,4.200000000000000174e-04,6.000000000000000000e+00,2.500000000000000000e+01
6.735600000000000000e+04,5.000000000000000240e-05,1.000000000000000082e-05,4.000000000000000327e-05,1.699999999999999851e-04,2.600000000000000314e-04,2.000000000000000096e-04,2.999999999999999737e-04,4.200000000000000174e-04,6.000000000000000000e+00,2.500000000000000000e+01
6.735700000000000000e+04,5.000000000000000240e-05,1.000000000000000082e-05,4.000000000000000327e-05,1.699999999999999851e-04,2.600000000000000314e-04,2.000000000000000096e-04,2.999999999999999737e-04,4.200000000000000174e-04,6.000000000000000000e+00,2.500000000000000000e+01
6.735800000000000000e+04,8.000000000000000654e-05,6.999999999999999387e-05,9.000000000000000567e-05,1.199999999999999895e-04,6.400000000000000524e-04,6.599999999999999964e-04,6.999999999999999387e-05,1.499999999999999869e-04,6.000000000000000000e+00,2.500000000000000000e+01
6.735900000000000000e+04,8.000000000000000654e-05,6.999999999999999387e-05,9.000000000000000567e-05,1.199999999999999895e-04,6.400000000000000524e-04,6.599999999999999964e-04,6.999999999999999387e-05,1.499999999999999869e-04,6.000000000000000000e+00,2.500000000000000000e+01
6.736000000000000000e+04,-1.000000000000000048e-04,-4.000000000000000327e-05,-1.000000000000000082e-05,0.000000000000000000e+00,-2.700000000000000035e-04,-1.250000000000000026e-03,1.399999999999999877e-04,4.899999999999999842e-04,6.000000000000000000e+00,2.500000000000000000e+01
6.736100000000000000e+04,-1.000000000000000048e-04,-4.000000000000000327e-05,-1.000000000000000082e-05,0.000000000000000000e+00,-2.700000000000000035e-04,-1.250000000000000026e-03,1.399999999999999877e-04,4.899999999999999842e-04,6.000000000000000000e+00,2.500000000000000000e+01
6.736200000000000000e+04,-1.000000000000000048e-04,-4.000000000000000327e-05,-1.000000000000000082e-05,0.000000000000000000e+00,-2.700000000000000035e-04,-1.250000000000000026e-03,1.399999999999999877e-04,4.899999999999999842e-04,6.000000000000000000e+00,2.500000000000000000e+01
6.736300000000000000e+04,-1.000000000000000048e-04,-4.000000000000000327e-05,-1.000000000000000082e-05,0.000000000000000000e+00,-2.700000000000000035e-04,-1.250000000000000026e-03,1.399999999999999877e-04,4.899999999999999842e-04,6.000000000000000000e+00,2.500000000000000000e+01
6.736400000000000000e+04,-1.000000000000000048e-04,-4.000000000000000327e-05,-1.000000000000000082e-05,0.000000000000000000e+00,-2.700000000000000035e-04,-1.250000000000000026e-03,1.399999999999999877e-04,4.899999999999999842e-04,6.000000000000000000e+00,2.500000000000000000e+01
6.736500000000000000e+04,-1.000000000000000048e-04,-4.000000000000000327e-05,-1.000000000000000082e-05,0.000000000000000000e+00,-2.700000000000000035e-04,-1.250000000000000026e-03,1.399999999999999877e-04,4.899999999999999842e-04,6.000000000000000000e+00,2.500000000000000000e+01
6.736600000000000000e+04,-1.000000000000000048e-04,-4.000000000000000327e-05,-1.000000000000000082e-05,0.000000000000000000e+00,-2.700000000000000035e-04,-1.250000000000000026e-03,1.399999999999999877e-04,4.899999999999999842e-04,6.000000000000000000e+00,2.500000000000000000e+01
6.736700000000000000e+04,-1.000000000000000048e-04,-4.000000000000000327e-05,-1.000000000000000082e-05,0.000000000000000000e+00,-2.700000000000000035e-04,-1.250000000000000026e-03,1.399999999999999877e-04,4.899999999999999842e-04,6.000000000000000000e+00,2.500000000000000000e+01
6.736800000000000000e+04,-1.000000000000000048e-04,-4.000000000000000327e-05,-1.000000000000000082e-05,0.000000000000000000e+00,-2.700000000000000035e-04,-1.250000000000000026e-03,1.399999999999999877e-04,4.899999999999999842e-04,6.000000000000000000e+00,2.500000000000000000e+01
6.736900000000000000e+04,-1.000000000000000048e-04,-4.000000000000000327e-05,-1.000000000000000082e-05,0.000000000000000000e+00,-2.700000000000000035e-04,-1.250000000000000026e-03,1.399999999999999877e-04,4.899999999999999842e-04,6.000000000000000000e+00,2.500000000000000000e+01
6.737000000000000000e+04,-1.000000000000000048e-04,-4.000000000000000327e-05,-1.000000000000000082e-05,0.000000000000000000e+00,-2.700000000000000035e-04,-1.250000000000000026e-03,1.399999999999999877e-04,4.899999999999999842e-04,6.000000000000000000e+00,2.500000000000000000e+01
6.737100000000000000e+04,-1.000000000000000048e-04,-4.000000000000000327e-05,-1.000000000000000082e-05,0.000000000000000000e+00,-2.700000000000000035e-04,-1.250000000000000026e-03,1.399999999999999877e-04,4.899999999999999842e-04,6.000000000000000000e+00,2.500000000000000000e+01
6.737200000000000000e+04,-1.000000000000000048e-04,-4.000000000000000327e-05,-1.000000000000000082e-05,0.000000000000000000e+00,-2.700000000000000035e-04,-1.250000000000000026e-03,1.399999999999999877e-04,4.899999999999999842e-04,6.000000000000000000e+00,2.500000000000000000e+01
6.737300000000000000e+04,-1.000000000000000048e-04,-4.000000000000000327e-05,-1.000000000000000082e-05,0.000000000000000000e+00,-2.700000000000000035e-04,-1.250000000000000026e-03,1.399999999999999877e-04,4.899999999999999842e-04,6.000000000000000000e+00,2.500000000000000000e+01
6.737400000000000000e+04,-1.000000000000000048e-04,-4.000000000000000327e-05,-1.000000000000000082e-05,0.000000000000000000e+00,-2.700000000000000035e-04,-1.250000000000000026e-03,1.399999999999999877e-04,4.899999999999999842e-04,6.000000000000000000e+00,2.500000000000000000e+01
6.737500000000000000e+04,-1.000000000000000048e-04,-4.000000000000000327e-05,-1.000000000000000082e-05,0.000000000000000000e+00,-2.700000000000000035e-04,-1.250000000000000026e-03,1.399999999999999877e-04,4.899999999999999842e-04,6.000000000000000000e+00,2.500000000000000000e+01
6.737600000000000000e+04,-1.000000000000000048e-04,-4.000000000000000327e-05,-1.000000000000000082e-05,0.000000000000000000e+00,-2.700000000000000035e-04,-1.250000000000000026e-03,1.399999999999999877e-04,4.899999999999999842e-04,6.000000000000000000e+00,2.500000000000000000e+01
6.737700000000000000e+04,-1.000000000000000048e-04,-4.000000000000000327e-05,-1.000000000000000082e-05,0.000000000000000000e+00,-2.700000000000000035e-04,-1.250000000000000026e-03,1.399999999999999877e-04,4.899999999999999842e-04,6.000000000000000000e+00,2.500000000000000000e+01
6.737800000000000000e+04,-1.000000000000000048e-04,-4.000000000000000327e-05,-1.000000000000000082e-05,0.000000000000000000e+00,-2.700000000000000035e-04,-1.250000000000000026e-03,1.399999999999999877e-04,4.899999999999999842e-04,6.000000000000000000e+00,2.500000000000000000e+01
6.737900000000000000e+04,-1.000000000000000048e-04,-4.000000000000000327e-05,-1.000000000000000082e-05,0.000000000000000000e+00,-2.700000000000000035e-04,-1.250000000000000026e-03,1.399999999999999877e-04,4.899999999999999842e-04,6.000000000000000000e+00,2.500000000000000000e+01
6.738000000000000000e+04,-1.000000000000000048e-04,-4.000000000000000327e-05,-1.000000000000000082e-05,0.000000000000000000e+00,-2.700000000000000035e-04,-1.250000000000000026e-03,1.399999999999999877e-04,4.899999999999999842e-04,6.000000000000000000e+00,2.500000000000000000e+01
6.738100000000000000e+04,0.000000000000000000e+00,2.999999999999999737e-05,6.999999999999999387e-05,1.699999999999999851e-04,2.799999999999999755e-04,1.000000000000000021e-03,4.700000000000000401e-04,-6.499999999999999702e-04,6.000000000000000000e+00,2.500000000000000000e+01
6.738200000000000000e+04,-5.999999999999999474e-05,-1.199999999999999895e-04,-1.100000000000000039e-04,-5.999999999999999474e-05,2.100000000000000087e-04,2.299999999999999799e-04,-5.299999999999999807e-04,6.300000000000000261e-04,6.000000000000000000e+00,2.500000000000000000e+01
6.738300000000000000e+04,-5.999999999999999474e-05,-1.199999999999999895e-04,-1.100000000000000039e-04,-5.999999999999999474e-05,2.100000000000000087e-04,2.299999999999999799e-04,-5.299999999999999807e-04,6.300000000000000261e-04,6.000000000000000000e+00,2.500000000000000000e+01
6.738400000000000000e+04,-5.999999999999999474e-05,-1.199999999999999895e-04,-1.100000000000000039e-04,-5.999999999999999474e-05,2.100000000000000087e-04,2.299999999999999799e-04,-5.299999999999999807e-04,6.300000000000000261e-04,6.000000000000000000e+00,2.500000000000000000e+01
6.738500000000000000e+04,-5.999999999999999474e-05,-1.199999999999999895e-04,-1.100000000000000039e-04,-5.999999999999999474e-05,2.100000000000000087e-04,2.299999999999999799e-04,-5.299999999999999807e-04,6.300000000000000261e-04,6.000000000000000000e+00,2.500000000000000000e+01
6.738600000000000000e+04,-5.999999999999999474e-05,-1.199999999999999895e-04,-1.100000000000000039e-04,-5.999999999999999474e-05,2.100000000000000087e-04,2.299999999999999799e-04,-5.299999999999999807e-04,6.300000000000000261e-04,6.000000000000000000e+00,2.500000000000000000e+01
6.738800000000000000e+04,-5.999999999999999474e-05,-1.199999999999999895e-04,-1.100000000000000039e-04,-5.999999999999999474e-05,2.100000000000000087e-04,2.299999999999999799e-04,-5.299999999999999807e-04,6.300000000000000261e-04,6.000000000000000000e+00,2.500000000000000000e+01
6.738900000000000000e+04,-5.999999999999999474e-05,-1.199999999999999895e-04,-1.100000000000000039e-04,-5.999999999999999474e-05,2.100000000000000087e-04,2.299999999999999799e-04,-5.299999999999999807e-04,6.300000000000000261e-04,6.000000000000000000e+00,2.500000000000000000e+01
6.739000000000000000e+04,-5.999999999999999474e-05,-1.199999999999999895e-04,-1.100000000000000039e-04,-5.999999999999999474e-05,2.100000000000000087e-04,2.299999999999999799e-04,-5.299999999999999807e-04,6.300000000000000261e-04,6.000000000000000000e+00,2.500000000000000000e+01
6.739100000000000000e+04,-5.999999999999999474e-05,-1.199999999999999895e-04,-1.100000000000000039e-04,-5.999999999999999474e-05,2.100000000000000087e-04,2.299999999999999799e-04,-5.299999999999999807e-04,6.300000000000000261e-04,6.000000000000000000e+00,2.500000000000000000e+01
6.739200000000000000e+04,-5.999999999999999474e-05,-1.199999999999999895e-04,-1.100000000000000039e-04,-5.999999999999999474e-05,2.100000000000000087e-04,2.299999999999999799e-04,-5.299999999999999807e-04,6.300000000000000261e-04,6.000000000000000000e+00,2.500000000000000000e+01
6.739300000000000000e+04,-5.999999999999999474e-05,-1.199999999999999895e-04,-1.100000000000000039e-04,-5.999999999999999474e-05,2.100000000000000087e-04,2.299999999999999799e-04,-5.299999999999999807e-04,6.300000000000000261e-04,6.000000000000000000e+00,2.500000000000000000e+01
6.739400000000000000e+04,2.299999999999999799e-04,1.499999999999999869e-04,1.300000000000000157e-04,1.899999999999999834e-04,8.900000000000000576e-04,4.099999999999999912e-04,3.099999999999999999e-04,-1.399999999999999877e-04,6.000000000000000000e+00,2.500000000000000000e+01
6.739500000000000000e+04,-4.000000000000000327e-05,-4.000000000000000327e-05,-6.999999999999999387e-05,-8.000000000000000654e-05,-3.699999999999999947e-04,-1.280000000000000105e-03,-1.600000000000000131e-04,-3.600000000000000227e-04,6.000000000000000000e+00,2.500000000000000000e+01
6.739600000000000000e+04,-4.000000000000000327e-05,-4.000000000000000327e-05,-6.999999999999999387e-05,-8.000000000000000654e-05,-3.699999999999999947e-04,-1.280000000000000105e-03,-1.600000000000000131e-04,-3.600000000000000227e-04,6.000000000000000000e+00,2.500000000000000000e+01
6.739700000000000000e+04,-4.000000000000000327e-05,-4.000000000000000327e-05,-6.999999999999999387e-05,-8.000000000000000654e-05,-3.699999999999999947e-04,-1.280000000000000105e-03,-1.600000000000000131e-04,-3.600000000000000227e-04,6.000000000000000000e+00,2.500000000000000000e+01
6.739800000000000000e+04,-4.000000000000000327e-05,-4.000000000000000327e-05,-6.999999999999999387e-05,-8.000000000000000654e-05,-3.699999999999999947e-04,-1.280000000000000105e-03,-1.600000000000000131e-04,-3.600000000000000227e-04,6.000000000000000000e+00,2.500000000000000000e+01
6.739900000000000000e+04,-4.000000000000000327e-05,-4.000000000000000327e-05,-6.999999999999999387e-05,-8.000000000000000654e-05,-3.699999999999999947e-04,-1.280000000000000105e-03,-1.600000000000000131e-04,-3.600000000000000227e-04,6.000000000000000000e+00,2.500000000000000000e+01
6.740000000000000000e+04,-4.000000000000000327e-05,-4.000000000000000327e-05,-6.999999999999999387e-05,-8.000000000000000654e-05,-3.699999999999999947e-04,-1.280000000000000105e-03,-1.600000000000000131e-04,-3.600000000000000227e-04,6.000000000000000000e+00,2.500000000000000000e+01
6.740100000000000000e+04,-4.000000000000000327e-05,-4.000000000000000327e-05,-6.999999999999999387e-05,-8.000000000000000654e-05,-3.699999999999999947e-04,-1.280000000000000105e-03,-1.600000000000000131e-04,-3.600000000000000227e-04,6.000000000000000000e+00,2.500000000000000000e+01
6.740200000000000000e+04,-4.000000000000000327e-05,-4.000000000000000327e-05,-6.999999999999999387e-05,-8.000000000000000654e-05,-3.699999999999999947e-04,-1.280000000000000105e-03,-1.600000000000000131e-04,-3.600000000000000227e-04,6.000000000000000000e+00,2.500000000000000000e+01
6.740300000000000000e+04,-6.999999999999999387e-05,-2.000000000000000164e-05,-2.000000000000000164e-05,-5.999999999999999474e-05,1.600000000000000131e-04,-3.299999999999999982e-04,-2.399999999999999790e-04,-2.100000000000000087e-04,6.000000000000000000e+00,2.500000000000000000e+01
6.740400000000000000e+04,-2.999999999999999737e-05,-5.000000000000000240e-05,-6.999999999999999387e-05,-1.100000000000000039e-04,-2.100000000000000087e-04,0.000000000000000000e+00,2.999999999999999737e-05,-1.040000000000000126e-03,6.000000000000000000e+00,2.500000000000000000e+01
6.740500000000000000e+04,-2.999999999999999737e-05,-5.000000000000000240e-05,-6.999999999999999387e-05,-1.100000000000000039e-04,-2.100000000000000087e-04,0.000000000000000000e+00,2.999999999999999737e-05,-1.040000000000000126e-03,6.000000000000000000e+00,2.500000000000000000e+01
6.740600000000000000e+04,-2.999999999999999737e-05,-5.000000000000000240e-05,-6.999999999999999387e-05,-1.100000000000000039e-04,-2.100000000000000087e-04,0.000000000000000000e+00,2.999999999999999737e-05,-1.040000000000000126e-03,6.000000000000000000e+00,2.500000000000000000e+01
6.740700000000000000e+04,-2.999999999999999737e-05,-5.000000000000000240e-05,-6.999999999999999387e-05,-1.100000000000000039e-04,-2.100000000000000087e-04,0.000000000000000000e+00,2.999999999999999737e-05,-1.040000000000000126e-03,6.000000000000000000e+00,2.500000000000000000e+01
6.740800000000000000e+04,-2.999999999999999737e-05,-5.000000000000000240e-05,-6.999999999999999387e-05,-1.100000000000000039e-04,-2.100000000000000087e-04,0.000000000000000000e+00,2.999999999999999737e-05,-1.040000000000000126e-03,6.000000000000000000e+00,2.500000000000000000e+01
6.740900000000000000e+04,-2.999999999999999737e-05,-5.000000000000000240e-05,-6.999999999999999387e-05,-1.100000000000000039e-04,-2.100000000000000087e-04,0.000000000000000000e+00,2.999999999999999737e-05,-1.040000000000000126e-03,6.000000000000000000e+00,2.500000000000000000e+01
6.741000000000000000e+04,-2.999999999999999737e-05,-5.000000000000000240e-05,-6.999999999999999387e-05,-1.100000000000000039e-04,-2.100000000000000087e-04,0.000000000000000000e+00,2.999999999999999737e-05,-1.040000000000000126e-03,6.000000000000000000e+00,2.500000000000000000e+01
6.741100000000000000e+04,-2.999999999999999737e-05,-5.000000000000000240e-05,-6.999999999999999387e-05,-1.100000000000000039e-04,-2.100000000000000087e-04,0.000000000000000000e+00,2.999999999999999737e-05,-1.040000000000000126e-03,6.000000000000000000e+00,2.500000000000000000e+01
6.741200000000000000e+04,-2.999999999999999737e-05,-5.000000000000000240e-05,-6.999999999999999387e-05,-1.100000000000000039e-04,-2.100000000000000087e-04,0.000000000000000000e+00,2.999999999999999737e-05,-1.040000000000000126e-03,6.000000000000000000e+00,2.500000000000000000e+01
6.741300000000000000e+04,-2.999999999999999737e-05,-5.000000000000000240e-05,-6.999999999999999387e-05,-1.100000000000000039e-04,-2.100000000000000087e-04,0.000000000000000000e+00,2.999999999999999737e-05,-1.040000000000000126e-03,6.000000000000000000e+00,2.500000000000000000e+01
6.741400000000000000e+04,-2.999999999999999737e-05,-5.000000000000000240e-05,-6.999999999999999387e-05,-1.100000000000000039e-04,-2.100000000000000087e-04,0.000000000000000000e+00,2.999999999999999737e-05,-1.040000000000000126e-03,6.000000000000000000e+00,2.500000000000000000e+01
6.741500000000000000e+04,-2.999999999999999737e-05,-5.000000000000000240e-05,-6.999999999999999387e-05,-1.100000000000000039e-04,-2.100000000000000087e-04,0.000000000000000000e+00,2.999999999999999737e-05,-1.040000000000000126e-03,6.000000000000000000e+00,2.500000000000000000e+01
6.741600000000000000e+04,-2.999999999999999737e-05,-5.000000000000000240e-05,-6.999999999999999387e-05,-1.100000000000000039e-04,-2.100000000000000087e-04,0.000000000000000000e+00,2.999999999999999737e-05,-1.040000000000000126e-03,6.000000000000000000e+00,2.500000000000000000e+01
6.741700000000000000e+04,-2.999999999999999737e-05,-5.000000000000000240e-05,-6.999999999999999387e-05,-1.100000000000000039e-04,-2.100000000000000087e-04,0.000000000000000000e+00,2.999999999999999737e-05,-1.040000000000000126e-03,6.000000000000000000e+00,2.500000000000000000e+01
6.741800000000000000e+04,-2.999999999999999737e-05,-5.000000000000000240e-05,-6.999999999999999387e-05,-1.100000000000000039e-04,-2.100000000000000087e-04,0.000000000000000000e+00,2.999999999999999737e-05,-1.040000000000000126e-03,6.000000000000000000e+00,2.500000000000000000e+01
6.741900000000000000e+04,6.999999999999999387e-05,4.000000000000000327e-05,4.000000000000000327e-05,1.199999999999999895e-04,1.600000000000000131e-04,7.099999999999999107e-04,2.399999999999999790e-04,5.099999999999999282e-04,6.000000000000000000e+00,2.500000000000000000e+01
6.742000000000000000e+04,-4.000000000000000327e-05,2.000000000000000164e-05,2.999999999999999737e-05,-1.100000000000000039e-04,-2.100000000000000087e-04,2.999999999999999737e-04,-2.100000000000000087e-04,-9.799999999999999684e-04,6.000000000000000000e+00,2.500000000000000000e+01
6.742100000000000000e+04,-4.000000000000000327e-05,2.000000000000000164e-05,2.999999999999999737e-05,-1.100000000000000039e-04,-2.100000000000000087e-04,2.999999999999999737e-04,-2.100000000000000087e-04,-9.799999999999999684e-04,6.000000000000000000e+00,2.500000000000000000e+01
6.742200000000000000e+04,-4.000000000000000327e-05,2.000000000000000164e-05,2.999999999999999737e-05,-1.100000000000000039e-04,-2.100000000000000087e-04,2.999999999999999737e-04,-2.100000000000000087e-04,-9.799999999999999684e-04,6.000000000000000000e+00,2.500000000000000000e+01
6.742300000000000000e+04,-4.000000000000000327e-05,2.000000000000000164e-05,2.999999999999999737e-05,-1.100000000000000039e-04,-2.100000000000000087e-04,2.999999999999999737e-04,-2.100000000000000087e-04,-9.799999999999999684e-04,6.000000000000000000e+00,2.500000000000000000e+01
6.742400000000000000e+04,-4.000000000000000327e-05,2.000000000000000164e-05,2.999999999999999737e-05,-1.100000000000000039e-04,-2.100000000000000087e-04,2.999999999999999737e-04,-2.100000000000000087e-04,-9.799999999999999684e-04,6.000000000000000000e+00,2.500000000000000000e+01
6.742500000000000000e+04,-4.000000000000000327e-05,2.000000000000000164e-05,2.999999999999999737e-05,-1.100000000000000039e-04,-2.100000000000000087e-04,2.999999999999999737e-04,-2.100000000000000087e-04,-9.799999999999999684e-04,6.000000000000000000e+00,2.500000000000000000e+01
6.742600000000000000e+04,-4.000000000000000327e-05,2.000000000000000164e-05,2.999999999999999737e-05,-1.100000000000000039e-04,-2.100000000000000087e-04,2.999999999999999737e-04,-2.100000000000000087e-04,-9.799999999999999684e-04,6.000000000000000000e+00,2.500000000000000000e+01
