1.772700000000000000e+04,-5.999999999999999474e-05,-4.000000000000000327e-05,2.999999999999999737e-05,-2.700000000000000035e-04,-8.499999999999999526e-04,-2.999999999999999737e-04,6.999999999999999387e-05,-6.999999999999999387e-05,4.000000000000000000e+00,7.000000000000000000e+00
1.772800000000000000e+04,-5.999999999999999474e-05,-4.000000000000000327e-05,2.999999999999999737e-05,-2.700000000000000035e-04,-8.499999999999999526e-04,-2.999999999999999737e-04,6.999999999999999387e-05,-6.999999999999999387e-05,4.000000000000000000e+00,7.000000000000000000e+00
1.772900000000000000e+04,-5.999999999999999474e-05,-4.000000000000000327e-05,2.999999999999999737e-05,-2.700000000000000035e-04,-8.499999999999999526e-04,-2.999999999999999737e-04,6.999999999999999387e-05,-6.999999999999999387e-05,4.000000000000000000e+00,7.000000000000000000e+00
1.773000000000000000e+04,-5.999999999999999474e-05,-4.000000000000000327e-05,2.999999999999999737e-05,-2.700000000000000035e-04,-8.499999999999999526e-04,-2.999999999999999737e-04,6.999999999999999387e-05,-6.999999999999999387e-05,4.000000000000000000e+00,7.000000000000000000e+00
1.773100000000000000e+04,-5.999999999999999474e-05,-4.000000000000000327e-05,2.999999999999999737e-05,-2.700000000000000035e-04,-8.499999999999999526e-04,-2.999999999999999737e-04,6.999999999999999387e-05,-6.999999999999999387e-05,4.000000000000000000e+00,7.000000000000000000e+00
1.773200000000000000e+04,-5.999999999999999474e-05,-4.000000000000000327e-05,2.999999999999999737e-05,-2.700000000000000035e-04,-8.499999999999999526e-04,-2.999999999999999737e-04,6.999999999999999387e-05,-6.999999999999999387e-05,4.000000000000000000e+00,7.000000000000000000e+00
1.773300000000000000e+04,-5.999999999999999474e-05,-4.000000000000000327e-05,2.999999999999999737e-05,-2.700000000000000035e-04,-8.499999999999999526e-04,-2.999999999999999737e-04,6.999999999999999387e-05,-6.999999999999999387e-05,4.000000000000000000e+00,7.000000000000000000e+00
1.773400000000000000e+04,-5.999999999999999474e-05,-4.000000000000000327e-05,2.999999999999999737e-05,-2.700000000000000035e-04,-8.499999999999999526e-04,-2.999999999999999737e-04,6.999999999999999387e-05,-6.999999999999999387e-05,4.000000000000000000e+00,7.000000000000000000e+00
1.773500000000000000e+04,-5.999999999999999474e-05,-4.000000000000000327e-05,2.999999999999999737e-05,-2.700000000000000035e-04,-8.499999999999999526e-04,-2.999999999999999737e-04,6.999999999999999387e-05,-6.999999999999999387e-05,4.000000000000000000e+00,7.000000000000000000e+00
1.773600000000000000e+04,-5.999999999999999474e-05,-4.000000000000000327e-05,2.999999999999999737e-05,-2.700000000000000035e-04,-8.499999999999999526e-04,-2.999999999999999737e-04,6.999999999999999387e-05,-6.999999999999999387e-05,4.000000000000000000e+00,7.000000000000000000e+00
1.773900000000000000e+04,2.999999999999999737e-05,6.999999999999999387e-05,1.000000000000000082e-05,-5.999999999999999474e-05,-7.399999999999999894e-04,2.500000000000000052e-04,9.000000000000000567e-05,2.999999999999999737e-05,4.000000000000000000e+00,7.000000000000000000e+00
1.774000000000000000e+04,2.999999999999999737e-05,6.999999999999999387e-05,1.000000000000000082e-05,-5.999999999999999474e-05,-7.399999999999999894e-04,2.500000000000000052e-04,9.000000000000000567e-05,2.999999999999999737e-05,4.000000000000000000e+00,7.000000000000000000e+00
1.774100000000000000e+04,2.999999999999999737e-05,6.999999999999999387e-05,1.000000000000000082e-05,-5.999999999999999474e-05,-7.399999999999999894e-04,2.500000000000000052e-04,9.000000000000000567e-05,2.999999999999999737e-05,4.000000000000000000e+00,7.000000000000000000e+00
1.774200000000000000e+04,2.999999999999999737e-05,6.999999999999999387e-05,1.000000000000000082e-05,-5.999999999999999474e-05,-7.399999999999999894e-04,2.500000000000000052e-04,9.000000000000000567e-05,2.999999999999999737e-05,4.000000000000000000e+00,7.000000000000000000e+00
1.774300000000000000e+04,2.999999999999999737e-05,6.999999999999999387e-05,1.000000000000000082e-05,-5.999999999999999474e-05,-7.399999999999999894e-04,2.500000000000000052e-04,9.000000000000000567e-05,2.999999999999999737e-05,4.000000000000000000e+00,7.000000000000000000e+00
1.774400000000000000e+04,2.999999999999999737e-05,6.999999999999999387e-05,1.000000000000000082e-05,-5.999999999999999474e-05,-7.399999999999999894e-04,2.500000000000000052e-04,9.000000000000000567e-05,2.999999999999999737e-05,4.000000000000000000e+00,7.000000000000000000e+00
1.774600000000000000e+04,2.999999999999999737e-05,6.999999999999999387e-05,1.000000000000000082e-05,-5.999999999999999474e-05,-7.399999999999999894e-04,2.500000000000000052e-04,9.000000000000000567e-05,2.999999999999999737e-05,4.000000000000000000e+00,7.000000000000000000e+00
1.774700000000000000e+04,2.999999999999999737e-05,6.999999999999999387e-05,1.000000000000000082e-05,-5.999999999999999474e-05,-7.399999999999999894e-04,2.500000000000000052e-04,9.000000000000000567e-05,2.999999999999999737e-05,4.000000000000000000e+00,7.000000000000000000e+00
1.774800000000000000e+04,2.999999999999999737e-05,6.999999999999999387e-05,1.000000000000000082e-05,-5.999999999999999474e-05,-7.399999999999999894e-04,2.500000000000000052e-04,9.000000000000000567e-05,2.999999999999999737e-05,4.000000000000000000e+00,7.000000000000000000e+00
1.774900000000000000e+04,2.999999999999999737e-05,6.999999999999999387e-05,1.000000000000000082e-05,-5.999999999999999474e-05,-7.399999999999999894e-04,2.500000000000000052e-04,9.000000000000000567e-05,2.999999999999999737e-05,4.000000000000000000e+00,7.000000000000000000e+00
1.775000000000000000e+04,2.999999999999999737e-05,6.999999999999999387e-05,1.000000000000000082e-05,-5.999999999999999474e-05,-7.399999999999999894e-04,2.500000000000000052e-04,9.000000000000000567e-05,2.999999999999999737e-05,4.000000000000000000e+00,7.000000000000000000e+00
1.775100000000000000e+04,2.999999999999999737e-05,6.999999999999999387e-05,1.000000000000000082e-05,-5.999999999999999474e-05,-7.399999999999999894e-04,2.500000000000000052e-04,9.000000000000000567e-05,2.999999999999999737e-05,4.000000000000000000e+00,7.000000000000000000e+00
1.775200000000000000e+04,2.999999999999999737e-05,6.999999999999999387e-05,1.000000000000000082e-05,-5.999999999999999474e-05,-7.399999999999999894e-04,2.500000000000000052e-04,9.000000000000000567e-05,2.999999999999999737e-05,4.000000000000000000e+00,7.000000000000000000e+00
1.775300000000000000e+04,2.999999999999999737e-05,6.999999999999999387e-05,1.000000000000000082e-05,-5.999999999999999474e-05,-7.399999999999999894e-04,2.500000000000000052e-04,9.000000000000000567e-05,2.999999999999999737e-05,4.000000000000000000e+00,7.000000000000000000e+00
1.775400000000000000e+04,2.999999999999999737e-05,6.999999999999999387e-05,1.000000000000000082e-05,-5.999999999999999474e-05,-7.399999999999999894e-04,2.500000000000000052e-04,9.000000000000000567e-05,2.999999999999999737e-05,4.000000000000000000e+00,7.000000000000000000e+00
1.775500000000000000e+04,2.999999999999999737e-05,6.999999999999999387e-05,1.000000000000000082e-05,-5.999999999999999474e-05,-7.399999999999999894e-04,2.500000000000000052e-04,9.000000000000000567e-05,2.999999999999999737e-05,4.000000000000000000e+00,7.000000000000000000e+00
1.775600000000000000e+04,2.999999999999999737e-05,6.999999999999999387e-05,1.000000000000000082e-05,-5.999999999999999474e-05,-7.399999999999999894e-04,2.500000000000000052e-04,9.000000000000000567e-05,2.999999999999999737e-05,4.000000000000000000e+00,7.000000000000000000e+00
1.775700000000000000e+04,2.999999999999999737e-05,6.999999999999999387e-05,1.000000000000000082e-05,-5.999999999999999474e-05,-7.399999999999999894e-04,2.500000000000000052e-04,9.000000000000000567e-05,2.999999999999999737e-05,4.000000000000000000e+00,7.000000000000000000e+00
1.775800000000000000e+04,2.999999999999999737e-05,6.999999999999999387e-05,1.000000000000000082e-05,-5.999999999999999474e-05,-7.399999999999999894e-04,2.500000000000000052e-04,9.000000000000000567e-05,2.999999999999999737e-05,4.000000000000000000e+00,7.000000000000000000e+00
1.775900000000000000e+04,2.999999999999999737e-05,6.999999999999999387e-05,1.000000000000000082e-05,-5.999999999999999474e-05,-7.399999999999999894e-04,2.500000000000000052e-04,9.000000000000000567e-05,2.999999999999999737e-05,4.000000000000000000e+00,7.000000000000000000e+00
1.776000000000000000e+04,2.999999999999999737e-05,6.999999999999999387e-05,1.000000000000000082e-05,-5.999999999999999474e-05,-7.399999999999999894e-04,2.500000000000000052e-04,9.000000000000000567e-05,2.999999999999999737e-05,4.000000000000000000e+00,7.000000000000000000e+00
1.776100000000000000e+04,-5.000000000000000240e-05,-5.000000000000000240e-05,-2.999999999999999737e-05,-1.000000000000000082e-05,-1.300000000000000157e-04,3.799999999999999667e-04,4.000000000000000327e-05,1.000000000000000082e-05,4.000000000000000000e+00,7.000000000000000000e+00
1.776200000000000000e+04,1.399999999999999877e-04,1.399999999999999877e-04,6.999999999999999387e-05,-1.000000000000000048e-04,5.099999999999999282e-04,4.299999999999999894e-04,1.899999999999999834e-04,1.899999999999999834e-04,4.000000000000000000e+00,7.000000000000000000e+00
1.776300000000000000e+04,1.399999999999999877e-04,1.399999999999999877e-04,6.999999999999999387e-05,-1.000000000000000048e-04,5.099999999999999282e-04,4.299999999999999894e-04,1.899999999999999834e-04,1.899999999999999834e-04,4.000000000000000000e+00,7.000000000000000000e+00
1.776400000000000000e+04,1.399999999999999877e-04,1.399999999999999877e-04,6.999999999999999387e-05,-1.000000000000000048e-04,5.099999999999999282e-04,4.299999999999999894e-04,1.899999999999999834e-04,1.899999999999999834e-04,4.000000000000000000e+00,7.000000000000000000e+00
1.776500000000000000e+04,1.399999999999999877e-04,1.399999999999999877e-04,6.999999999999999387e-05,-1.000000000000000048e-04,5.099999999999999282e-04,4.299999999999999894e-04,1.899999999999999834e-04,1.899999999999999834e-04,4.000000000000000000e+00,7.000000000000000000e+00
1.776600000000000000e+04,1.399999999999999877e-04,1.399999999999999877e-04,6.999999999999999387e-05,-1.000000000000000048e-04,5.099999999999999282e-04,4.299999999999999894e-04,1.899999999999999834e-04,1.899999999999999834e-04,4.000000000000000000e+00,7.000000000000000000e+00
1.776700000000000000e+04,1.399999999999999877e-04,1.399999999999999877e-04,6.999999999999999387e-05,-1.000000000000000048e-04,5.099999999999999282e-04,4.299999999999999894e-04,1.899999999999999834e-04,1.899999999999999834e-04,4.000000000000000000e+00,7.000000000000000000e+00
1.776800000000000000e+04,1.399999999999999877e-04,1.399999999999999877e-04,6.999999999999999387e-05,-1.000000000000000048e-04,5.099999999999999282e-04,4.299999999999999894e-04,1.899999999999999834e-04,1.899999999999999834e-04,4.000000000000000000e+00,7.000000000000000000e+00
1.776900000000000000e+04,1.399999999999999877e-04,1.399999999999999877e-04,6.999999999999999387e-05,-1.000000000000000048e-04,5.099999999999999282e-04,4.299999999999999894e-04,1.899999999999999834e-04,1.899999999999999834e-04,4.000000000000000000e+00,7.000000000000000000e+00
1.777000000000000000e+04,1.399999999999999877e-04,1.399999999999999877e-04,6.999999999999999387e-05,-1.000000000000000048e-04,5.099999999999999282e-04,4.299999999999999894e-04,1.899999999999999834e-04,1.899999999999999834e-04,4.000000000000000000e+00,7.000000000000000000e+00
1.777100000000000000e+04,1.399999999999999877e-04,1.399999999999999877e-04,6.999999999999999387e-05,-1.000000000000000048e-04,5.099999999999999282e-04,4.299999999999999894e-04,1.899999999999999834e-04,1.899999999999999834e-04,4.000000000000000000e+00,7.000000000000000000e+00
1.777200000000000000e+04,1.399999999999999877e-04,1.399999999999999877e-04,6.999999999999999387e-05,-1.000000000000000048e-04,5.099999999999999282e-04,4.299999999999999894e-04,1.899999999999999834e-04,1.899999999999999834e-04,4.000000000000000000e+00,7.000000000000000000e+00
1.777300000000000000e+04,1.399999999999999877e-04,1.399999999999999877e-04,6.999999999999999387e-05,-1.000000000000000048e-04,5.099999999999999282e-04,4.299999999999999894e-04,1.899999999999999834e-04,1.899999999999999834e-04,4.000000000000000000e+00,7.000000000000000000e+00
1.777400000000000000e+04,1.399999999999999877e-04,1.399999999999999877e-04,6.999999999999999387e-05,-1.000000000000000048e-04,5.099999999999999282e-04,4.299999999999999894e-04,1.899999999999999834e-04,1.899999999999999834e-04,4.000000000000000000e+00,7.000000000000000000e+00
1.777500000000000000e+04,1.399999999999999877e-04,1.399999999999999877e-04,6.999999999999999387e-05,-1.000000000000000048e-04,5.099999999999999282e-04,4.299999999999999894e-04,1.899999999999999834e-04,1.899999999999999834e-04,4.000000000000000000e+00,7.000000000000000000e+00
1.777600000000000000e+04,1.399999999999999877e-04,1.399999999999999877e-04,6.999999999999999387e-05,-1.000000000000000048e-04,5.099999999999999282e-04,4.299999999999999894e-04,1.899999999999999834e-04,1.899999999999999834e-04,4.000000000000000000e+00,7.000000000000000000e+00
1.777700000000000000e+04,1.399999999999999877e-04,1.399999999999999877e-04,6.999999999999999387e-05,-1.000000000000000048e-04,5.099999999999999282e-04,4.299999999999999894e-04,1.899999999999999834e-04,1.899999999999999834e-04,4.000000000000000000e+00,7.000000000000000000e+00
1.777800000000000000e+04,1.399999999999999877e-04,1.399999999999999877e-04,6.999999999999999387e-05,-1.000000000000000048e-04,5.099999999999999282e-04,4.299999999999999894e-04,1.899999999999999834e-04,1.899999999999999834e-04,4.000000000000000000e+00,7.000000000000000000e+00
1.777900000000000000e+04,1.399999999999999877e-04,1.399999999999999877e-04,6.999999999999999387e-05,-1.000000000000000048e-04,5.099999999999999282e-04,4.299999999999999894e-04,1.899999999999999834e-04,1.899999999999999834e-04,4.000000000000000000e+00,7.000000000000000000e+00
1.778000000000000000e+04,1.399999999999999877e-04,1.399999999999999877e-04,6.999999999999999387e-05,-1.000000000000000048e-04,5.099999999999999282e-04,4.299999999999999894e-04,1.899999999999999834e-04,1.899999999999999834e-04,4.000000000000000000e+00,7.000000000000000000e+00
1.778100000000000000e+04,1.399999999999999877e-04,1.399999999999999877e-04,6.999999999999999387e-05,-1.000000000000000048e-04,5.099999999999999282e-04,4.299999999999999894e-04,1.899999999999999834e-04,1.899999999999999834e-04,4.000000000000000000e+00,7.000000000000000000e+00
1.778200000000000000e+04,1.399999999999999877e-04,1.399999999999999877e-04,6.999999999999999387e-05,-1.000000000000000048e-04,5.099999999999999282e-04,4.299999999999999894e-04,1.899999999999999834e-04,1.899999999999999834e-04,4.000000000000000000e+00,7.000000000000000000e+00
1.778300000000000000e+04,1.399999999999999877e-04,1.399999999999999877e-04,6.999999999999999387e-05,-1.000000000000000048e-04,5.099999999999999282e-04,4.299999999999999894e-04,1.899999999999999834e-04,1.899999999999999834e-04,4.000000000000000000e+00,7.000000000000000000e+00
1.778400000000000000e+04,1.399999999999999877e-04,1.399999999999999877e-04,6.999999999999999387e-05,-1.000000000000000048e-04,5.099999999999999282e-04,4.299999999999999894e-04,1.899999999999999834e-04,1.899999999999999834e-04,4.000000000000000000e+00,7.000000000000000000e+00
1.778500000000000000e+04,1.399999999999999877e-04,1.399999999999999877e-04,6.999999999999999387e-05,-1.000000000000000048e-04,5.099999999999999282e-04,4.299999999999999894e-04,1.899999999999999834e-04,1.899999999999999834e-04,4.000000000000000000e+00,7.000000000000000000e+00
1.778600000000000000e+04,1.399999999999999877e-04,1.399999999999999877e-04,6.999999999999999387e-05,-1.000000000000000048e-04,5.099999999999999282e-04,4.299999999999999894e-04,1.899999999999999834e-04,1.899999999999999834e-04,4.000000000000000000e+00,7.000000000000000000e+00
1.778800000000000000e+04,1.399999999999999877e-04,1.399999999999999877e-04,6.999999999999999387e-05,-1.000000000000000048e-04,5.099999999999999282e-04,4.299999999999999894e-04,1.899999999999999834e-04,1.899999999999999834e-04,4.000000000000000000e+00,7.000000000000000000e+00
1.778900000000000000e+04,1.399999999999999877e-04,1.399999999999999877e-04,6.999999999999999387e-05,-1.000000000000000048e-04,5.099999999999999282e-04,4.299999999999999894e-04,1.899999999999999834e-04,1.899999999999999834e-04,4.000000000000000000e+00,7.000000000000000000e+00
1.779000000000000000e+04,1.399999999999999877e-04,1.399999999999999877e-04,6.999999999999999387e-05,-1.000000000000000048e-04,5.099999999999999282e-04,4.299999999999999894e-04,1.899999999999999834e-04,1.899999999999999834e-04,4.000000000000000000e+00,7.000000000000000000e+00
1.779100000000000000e+04,-5.999999999999999474e-05,-8.000000000000000654e-05,0.000000000000000000e+00,1.800000000000000113e-04,1.699999999999999851e-04,-2.600000000000000314e-04,-2.500000000000000052e-04,-2.299999999999999799e-04,4.000000000000000000e+00,7.000000000000000000e+00
1.779200000000000000e+04,-1.399999999999999877e-04,-1.499999999999999869e-04,-9.000000000000000567e-05,1.600000000000000131e-04,-1.100000000000000039e-04,-4.899999999999999842e-04,-1.600000000000000131e-04,-2.799999999999999755e-04,4.000000000000000000e+00,7.000000000000000000e+00
1.779300000000000000e+04,-1.399999999999999877e-04,-1.499999999999999869e-04,-9.000000000000000567e-05,1.600000000000000131e-04,-1.100000000000000039e-04,-4.899999999999999842e-04,-1.600000000000000131e-04,-2.799999999999999755e-04,4.000000000000000000e+00,7.000000000000000000e+00
1.779400000000000000e+04,-1.399999999999999877e-04,-1.499999999999999869e-04,-9.000000000000000567e-05,1.600000000000000131e-04,-1.100000000000000039e-04,-4.899999999999999842e-04,-1.600000000000000131e-04,-2.799999999999999755e-04,4.000000000000000000e+00,7.000000000000000000e+00
1.779500000000000000e+04,-1.399999999999999877e-04,-1.499999999999999869e-04,-9.000000000000000567e-05,1.600000000000000131e-04,-1.100000000000000039e-04,-4.899999999999999842e-04,-1.600000000000000131e-04,-2.799999999999999755e-04,4.000000000000000000e+00,7.000000000000000000e+00
1.779600000000000000e+04,-1.399999999999999877e-04,-1.499999999999999869e-04,-9.000000000000000567e-05,1.600000000000000131e-04,-1.100000000000000039e-04,-4.899999999999999842e-04,-1.600000000000000131e-04,-2.799999999999999755e-04,4.000000000000000000e+00,7.000000000000000000e+00
1.779700000000000000e+04,-1.399999999999999877e-04,-1.499999999999999869e-04,-9.000000000000000567e-05,1.600000000000000131e-04,-1.100000000000000039e-04,-4.899999999999999842e-04,-1.600000000000000131e-04,-2.799999999999999755e-04,4.000000000000000000e+00,7.000000000000000000e+00
1.779800000000000000e+04,-1.399999999999999877e-04,-1.499999999999999869e-04,-9.000000000000000567e-05,1.600000000000000131e-04,-1.100000000000000039e-04,-4.899999999999999842e-04,-1.600000000000000131e-04,-2.799999999999999755e-04,4.000000000000000000e+00,7.000000000000000000e+00
1.779900000000000000e+04,-2.000000000000000164e-05,-5.999999999999999474e-05,-4.000000000000000327e-05,1.199999999999999895e-04,-5.999999999999999474e-05,3.600000000000000227e-04,-6.999999999999999387e-05,-5.999999999999999474e-05,4.000000000000000000e+00,7.000000000000000000e+00
1.780000000000000000e+04,-2.000000000000000164e-05,-5.999999999999999474e-05,-4.000000000000000327e-05,1.199999999999999895e-04,-5.999999999999999474e-05,3.600000000000000227e-04,-6.999999999999999387e-05,-5.999999999999999474e-05,4.000000000000000000e+00,7.000000000000000000e+00
1.780100000000000000e+04,-2.000000000000000164e-05,-5.999999999999999474e-05,-4.000000000000000327e-05,1.199999999999999895e-04,-5.999999999999999474e-05,3.600000000000000227e-04,-6.999999999999999387e-05,-5.999999999999999474e-05,4.000000000000000000e+00,7.000000000000000000e+00
1.780200000000000000e+04,-2.000000000000000164e-05,-5.999999999999999474e-05,-4.000000000000000327e-05,1.199999999999999895e-04,-5.999999999999999474e-05,3.600000000000000227e-04,-6.999999999999999387e-05,-5.999999999999999474e-05,4.000000000000000000e+00,7.000000000000000000e+00
1.780300000000000000e+04,-2.000000000000000164e-05,-5.999999999999999474e-05,-4.000000000000000327e-05,1.199999999999999895e-04,-5.999999999999999474e-05,3.600000000000000227e-04,-6.999999999999999387e-05,-5.999999999999999474e-05,4.000000000000000000e+00,7.000000000000000000e+00
1.780400000000000000e+04,-2.000000000000000164e-05,-5.999999999999999474e-05,-4.000000000000000327e-05,1.199999999999999895e-04,-5.999999999999999474e-05,3.600000000000000227e-04,-6.999999999999999387e-05,-5.999999999999999474e-05,4.000000000000000000e+00,7.000000000000000000e+00
1.780500000000000000e+04,-2.000000000000000164e-05,-5.999999999999999474e-05,-4.000000000000000327e-05,1.199999999999999895e-04,-5.999999999999999474e-05,3.600000000000000227e-04,-6.999999999999999387e-05,-5.999999999999999474e-05,4.000000000000000000e+00,7.000000000000000000e+00
1.780600000000000000e+04,-2.000000000000000164e-05,-5.999999999999999474e-05,-4.000000000000000327e-05,1.199999999999999895e-04,-5.999999999999999474e-05,3.600000000000000227e-04,-6.999999999999999387e-05,-5.999999999999999474e-05,4.000000000000000000e+00,7.000000000000000000e+00
1.780700000000000000e+04,-2.000000000000000164e-05,-5.999999999999999474e-05,-4.000000000000000327e-05,1.199999999999999895e-04,-5.999999999999999474e-05,3.600000000000000227e-04,-6.999999999999999387e-05,-5.999999999999999474e-05,4.000000000000000000e+00,7.000000000000000000e+00
1.780800000000000000e+04,-2.000000000000000164e-05,-5.999999999999999474e-05,-4.000000000000000327e-05,1.199999999999999895e-04,-5.999999999999999474e-05,3.600000000000000227e-04,-6.999999999999999387e-05,-5.999999999999999474e-05,4.000000000000000000e+00,7.000000000000000000e+00
1.780900000000000000e+04,-2.000000000000000164e-05,-5.999999999999999474e-05,-4.000000000000000327e-05,1.199999999999999895e-04,-5.999999999999999474e-05,3.600000000000000227e-04,-6.999999999999999387e-05,-5.999999999999999474e-05,4.000000000000000000e+00,7.000000000000000000e+00
1.781000000000000000e+04,-2.000000000000000164e-05,-5.999999999999999474e-05,-4.000000000000000327e-05,1.199999999999999895e-04,-5.999999999999999474e-05,3.600000000000000227e-04,-6.999999999999999387e-05,-5.999999999999999474e-05,4.000000000000000000e+00,7.000000000000000000e+00
1.781100000000000000e+04,-2.000000000000000164e-05,-5.999999999999999474e-05,-4.000000000000000327e-05,1.199999999999999895e-04,-5.999999999999999474e-05,3.600000000000000227e-04,-6.999999999999999387e-05,-5.999999999999999474e-05,4.000000000000000000e+00,7.000000000000000000e+00
1.781200000000000000e+04,-2.000000000000000164e-05,-5.999999999999999474e-05,-4.000000000000000327e-05,1.199999999999999895e-04,-5.999999999999999474e-05,3.600000000000000227e-04,-6.999999999999999387e-05,-5.999999999999999474e-05,4.000000000000000000e+00,7.000000000000000000e+00
1.781300000000000000e+04,-2.000000000000000164e-05,-5.999999999999999474e-05,-4.000000000000000327e-05,1.199999999999999895e-04,-5.999999999999999474e-05,3.600000000000000227e-04,-6.999999999999999387e-05,-5.999999999999999474e-05,4.000000000000000000e+00,7.000000000000000000e+00
1.781400000000000000e+04,-2.000000000000000164e-05,-5.999999999999999474e-05,-4.000000000000000327e-05,1.199999999999999895e-04,-5.999999999999999474e-05,3.600000000000000227e-04,-6.999999999999999387e-05,-5.999999999999999474e-05,4.000000000000000000e+00,7.000000000000000000e+00
1.781500000000000000e+04,-2.000000000000000164e-05,-5.999999999999999474e-05,-4.000000000000000327e-05,1.199999999999999895e-04,-5.999999999999999474e-05,3.600000000000000227e-04,-6.999999999999999387e-05,-5.999999999999999474e-05,4.000000000000000000e+00,7.000000000000000000e+00
1.781600000000000000e+04,-2.000000000000000164e-05,-5.999999999999999474e-05,-4.000000000000000327e-05,1.199999999999999895e-04,-5.999999999999999474e-05,3.600000000000000227e-04,-6.999999999999999387e-05,-5.999999999999999474e-05,4.000000000000000000e+00,7.000000000000000000e+00
1.781700000000000000e+04,-2.000000000000000164e-05,-5.999999999999999474e-05,-4.000000000000000327e-05,1.199999999999999895e-04,-5.999999999999999474e-05,3.600000000000000227e-04,-6.999999999999999387e-05,-5.999999999999999474e-05,4.000000000000000000e+00,7.000000000000000000e+00
1.781800000000000000e+04,-2.000000000000000164e-05,-5.999999999999999474e-05,-4.000000000000000327e-05,1.199999999999999895e-04,-5.999999999999999474e-05,3.600000000000000227e-04,-6.999999999999999387e-05,-5.999999999999999474e-05,4.000000000000000000e+00,7.000000000000000000e+00
1.781900000000000000e+04,-2.000000000000000164e-05,-5.999999999999999474e-05,-4.000000000000000327e-05,1.199999999999999895e-04,-5.999999999999999474e-05,3.600000000000000227e-04,-6.999999999999999387e-05,-5.999999999999999474e-05,4.000000000000000000e+00,7.000000000000000000e+00
1.782000000000000000e+04,-2.000000000000000164e-05,-5.999999999999999474e-05,-4.000000000000000327e-05,1.199999999999999895e-04,-5.999999999999999474e-05,3.600000000000000227e-04,-6.999999999999999387e-05,-5.999999999999999474e-05,4.000000000000000000e+00,7.000000000000000000e+00
1.782100000000000000e+04,4.000000000000000327e-05,9.000000000000000567e-05,1.600000000000000131e-04,5.999999999999999474e-05,-3.799999999999999667e-04,2.000000000000000164e-05,2.000000000000000096e-04,1.600000000000000131e-04,4.000000000000000000e+00,7.000000000000000000e+00
1.782200000000000000e+04,1.300000000000000157e-04,1.000000000000000048e-04,5.000000000000000240e-05,-2.399999999999999790e-04,-4.499999999999999877e-04,-2.299999999999999799e-04,9.000000000000000567e-05,3.499999999999999964e-04,4.000000000000000000e+00,7.000000000000000000e+00
1.782300000000000000e+04,1.300000000000000157e-04,1.000000000000000048e-04,5.000000000000000240e-05,-2.399999999999999790e-04,-4.499999999999999877e-04,-2.299999999999999799e-04,9.000000000000000567e-05,3.499999999999999964e-04,4.000000000000000000e+00,7.000000000000000000e+00
1.782400000000000000e+04,1.300000000000000157e-04,1.000000000000000048e-04,5.000000000000000240e-05,-2.399999999999999790e-04,-4.499999999999999877e-04,-2.299999999999999799e-04,9.000000000000000567e-05,3.499999999999999964e-04,4.000000000000000000e+00,7.000000000000000000e+00
1.782500000000000000e+04,1.300000000000000157e-04,1.000000000000000048e-04,5.000000000000000240e-05,-2.399999999999999790e-04,-4.499999999999999877e-04,-2.299999999999999799e-04,9.000000000000000567e-05,3.499999999999999964e-04,4.000000000000000000e+00,7.000000000000000000e+00
1.782600000000000000e+04,1.300000000000000157e-04,1.000000000000000048e-04,5.000000000000000240e-05,-2.399999999999999790e-04,-4.499999999999999877e-04,-2.299999999999999799e-04,9.000000000000000567e-05,3.499999999999999964e-04,4.000000000000000000e+00,7.000000000000000000e+00
1.782700000000000000e+04,1.300000000000000157e-04,1.000000000000000048e-04,5.000000000000000240e-05,-2.399999999999999790e-04,-4.499999999999999877e-04,-2.299999999999999799e-04,9.000000000000000567e-05,3.499999999999999964e-04,4.000000000000000000e+00,7.000000000000000000e+00
1.782800000000000000e+04,1.300000000000000157e-04,1.000000000000000048e-04,5.000000000000000240e-05,-2.399999999999999790e-04,-4.499999999999999877e-04,-2.299999999999999799e-04,9.000000000000000567e-05,3.499999999999999964e-04,4.000000000000000000e+00,7.000000000000000000e+00
1.782900000000000000e+04,1.300000000000000157e-04,1.000000000000000048e-04,5.000000000000000240e-05,-2.399999999999999790e-04,-4.499999999999999877e-04,-2.299999999999999799e-04,9.000000000000000567e-05,3.499999999999999964e-04,4.000000000000000000e+00,7.000000000000000000e+00
1.783000000000000000e+04,1.300000000000000157e-04,1.000000000000000048e-04,5.000000000000000240e-05,-2.399999999999999790e-04,-4.499999999999999877e-04,-2.299999999999999799e-04,9.000000000000000567e-05,3.499999999999999964e-04,4.000000000000000000e+00,7.000000000000000000e+00
1.783100000000000000e+04,1.300000000000000157e-04,1.000000000000000048e-04,5.000000000000000240e-05,-2.399999999999999790e-04,-4.499999999999999877e-04,-2.299999999999999799e-04,9.000000000000000567e-05,3.499999999999999964e-04,4.000000000000000000e+00,7.000000000000000000e+00
1.783200000000000000e+04,1.300000000000000157e-04,1.000000000000000048e-04,5.000000000000000240e-05,-2.399999999999999790e-04,-4.499999999999999877e-04,-2.299999999999999799e-04,9.000000000000000567e-05,3.499999999999999964e-04,4.000000000000000000e+00,7.000000000000000000e+00
1.783300000000000000e+04,1.300000000000000157e-04,1.000000000000000048e-04,5.000000000000000240e-05,-2.399999999999999790e-04,-4.499999999999999877e-04,-2.299999999999999799e-04,9.000000000000000567e-05,3.499999999999999964e-04,4.000000000000000000e+00,7.000000000000000000e+00
1.783400000000000000e+04,1.300000000000000157e-04,1.000000000000000048e-04,5.000000000000000240e-05,-2.399999999999999790e-04,-4.499999999999999877e-04,-2.299999999999999799e-04,9.000000000000000567e-05,3.499999999999999964e-04,4.000000000000000000e+00,7.000000000000000000e+00
1.783500000000000000e+04,1.300000000000000157e-04,1.000000000000000048e-04,5.000000000000000240e-05,-2.399999999999999790e-04,-4.499999999999999877e-04,-2.299999999999999799e-04,9.000000000000000567e-05,3.499999999999999964e-04,4.000000000000000000e+00,7.000000000000000000e+00
1.783600000000000000e+04,1.300000000000000157e-04,1.000000000000000048e-04,5.000000000000000240e-05,-2.399999999999999790e-04,-4.499999999999999877e-04,-2.299999999999999799e-04,9.000000000000000567e-05,3.499999999999999964e-04,4.000000000000000000e+00,7.000000000000000000e+00
1.783800000000000000e+04,1.300000000000000157e-04,1.000000000000000048e-04,5.000000000000000240e-05,-2.399999999999999790e-04,-4.499999999999999877e-04,-2.299999999999999799e-04,9.000000000000000567e-05,3.499999999999999964e-04,4.000000000000000000e+00,7.000000000000000000e+00
1.783900000000000000e+04,1.300000000000000157e-04,1.000000000000000048e-04,5.000000000000000240e-05,-2.399999999999999790e-04,-4.499999999999999877e-04,-2.299999999999999799e-04,9.000000000000000567e-05,3.499999999999999964e-04,4.000000000000000000e+00,7.000000000000000000e+00
1.784000000000000000e+04,1.300000000000000157e-04,1.000000000000000048e-04,5.000000000000000240e-05,-2.399999999999999790e-04,-4.499999999999999877e-04,-2.299999999999999799e-04,9.000000000000000567e-05,3.499999999999999964e-04,4.000000000000000000e+00,7.000000000000000000e+00
1.784100000000000000e+04,1.300000000000000157e-04,1.000000000000000048e-04,5.000000000000000240e-05,-2.399999999999999790e-04,-4.499999999999999877e-04,-2.299999999999999799e-04,9.000000000000000567e-05,3.499999999999999964e-04,4.000000000000000000e+00,7.000000000000000000e+00
1.784200000000000000e+04,1.300000000000000157e-04,1.000000000000000048e-04,5.000000000000000240e-05,-2.399999999999999790e-04,-4.499999999999999877e-04,-2.299999999999999799e-04,9.000000000000000567e-05,3.499999999999999964e-04,4.000000000000000000e+00,7.000000000000000000e+00
1.784300000000000000e+04,0.000000000000000000e+00,2.000000000000000164e-05,1.300000000000000157e-04,5.999999999999999474e-05,-1.699999999999999851e-04,-6.999999999999999387e-05,-6.999999999999999387e-05,5.999999999999999474e-05,4.000000000000000000e+00,7.000000000000000000e+00
1.784400000000000000e+04,0.000000000000000000e+00,-1.000000000000000082e-05,0.000000000000000000e+00,-1.199999999999999895e-04,-3.299999999999999982e-04,4.000000000000000327e-05,8.000000000000000654e-05,4.000000000000000327e-05,4.000000000000000000e+00,7.000000000000000000e+00
1.784500000000000000e+04,0.000000000000000000e+00,-1.000000000000000082e-05,0.000000000000000000e+00,-1.199999999999999895e-04,-3.299999999999999982e-04,4.000000000000000327e-05,8.000000000000000654e-05,4.000000000000000327e-05,4.000000000000000000e+00,7.000000000000000000e+00
1.784600000000000000e+04,0.000000000000000000e+00,-1.000000000000000082e-05,0.000000000000000000e+00,-1.199999999999999895e-04,-3.299999999999999982e-04,4.000000000000000327e-05,8.000000000000000654e-05,4.000000000000000327e-05,4.000000000000000000e+00,7.000000000000000000e+00
1.784700000000000000e+04,0.000000000000000000e+00,-1.000000000000000082e-05,0.000000000000000000e+00,-1.199999999999999895e-04,-3.299999999999999982e-04,4.000000000000000327e-05,8.000000000000000654e-05,4.000000000000000327e-05,4.000000000000000000e+00,7.000000000000000000e+00
1.784800000000000000e+04,0.000000000000000000e+00,-1.000000000000000082e-05,0.000000000000000000e+00,-1.199999999999999895e-04,-3.299999999999999982e-04,4.000000000000000327e-05,8.000000000000000654e-05,4.000000000000000327e-05,4.000000000000000000e+00,7.000000000000000000e+00
1.784900000000000000e+04,0.000000000000000000e+00,-1.000000000000000082e-05,0.000000000000000000e+00,-1.199999999999999895e-04,-3.299999999999999982e-04,4.000000000000000327e-05,8.000000000000000654e-05,4.000000000000000327e-05,4.000000000000000000e+00,7.000000000000000000e+00
1.785000000000000000e+04,0.000000000000000000e+00,-1.000000000000000082e-05,0.000000000000000000e+00,-1.199999999999999895e-04,-3.299999999999999982e-04,4.000000000000000327e-05,8.000000000000000654e-05,4.000000000000000327e-05,4.000000000000000000e+00,7.000000000000000000e+00
1.785100000000000000e+04,0.000000000000000000e+00,-1.000000000000000082e-05,0.000000000000000000e+00,-1.199999999999999895e-04,-3.299999999999999982e-04,4.000000000000000327e-05,8.000000000000000654e-05,4.000000000000000327e-05,4.000000000000000000e+00,7.000000000000000000e+00
1.785200000000000000e+04,0.000000000000000000e+00,-1.000000000000000082e-05,0.000000000000000000e+00,-1.199999999999999895e-04,-3.299999999999999982e-04,4.000000000000000327e-05,8.000000000000000654e-05,4.000000000000000327e-05,4.000000000000000000e+00,7.000000000000000000e+00
1.785300000000000000e+04,0.000000000000000000e+00,-1.000000000000000082e-05,0.000000000000000000e+00,-1.199999999999999895e-04,-3.299999999999999982e-04,4.000000000000000327e-05,8.000000000000000654e-05,4.000000000000000327e-05,4.000000000000000000e+00,7.000000000000000000e+00
1.785400000000000000e+04,0.000000000000000000e+00,-1.000000000000000082e-05,0.000000000000000000e+00,-1.199999999999999895e-04,-3.299999999999999982e-04,4.000000000000000327e-05,8.000000000000000654e-05,4.000000000000000327e-05,4.000000000000000000e+00,7.000000000000000000e+00
1.785500000000000000e+04,0.000000000000000000e+00,-1.000000000000000082e-05,0.000000000000000000e+00,-1.199999999999999895e-04,-3.299999999999999982e-04,4.000000000000000327e-05,8.000000000000000654e-05,4.000000000000000327e-05,4.000000000000000000e+00,7.000000000000000000e+00
1.785600000000000000e+04,0.000000000000000000e+00,-1.000000000000000082e-05,0.000000000000000000e+00,-1.199999999999999895e-04,-3.299999999999999982e-04,4.000000000000000327e-05,8.000000000000000654e-05,4.000000000000000327e-05,4.000000000000000000e+00,7.000000000000000000e+00
1.785700000000000000e+04,-2.000000000000000164e-05,0.000000000000000000e+00,2.999999999999999737e-05,6.999999999999999387e-05,4.599999999999999597e-04,-2.000000000000000164e-05,-2.000000000000000164e-05,-8.000000000000000654e-05,4.000000000000000000e+00,7.000000000000000000e+00
1.785800000000000000e+04,6.999999999999999387e-05,1.399999999999999877e-04,1.600000000000000131e-04,5.999999999999999474e-05,-1.399999999999999877e-04,2.100000000000000087e-04,1.399999999999999877e-04,-1.000000000000000048e-04,4.000000000000000000e+00,7.000000000000000000e+00
1.785900000000000000e+04,6.999999999999999387e-05,1.399999999999999877e-04,1.600000000000000131e-04,5.999999999999999474e-05,-1.399999999999999877e-04,2.100000000000000087e-04,1.399999999999999877e-04,-1.000000000000000048e-04,4.000000000000000000e+00,7.000000000000000000e+00
1.786000000000000000e+04,6.999999999999999387e-05,1.399999999999999877e-04,1.600000000000000131e-04,5.999999999999999474e-05,-1.399999999999999877e-04,2.100000000000000087e-04,1.399999999999999877e-04,-1.000000000000000048e-04,4.000000000000000000e+00,7.000000000000000000e+00
1.786100000000000000e+04,6.999999999999999387e-05,1.399999999999999877e-04,1.600000000000000131e-04,5.999999999999999474e-05,-1.399999999999999877e-04,2.100000000000000087e-04,1.399999999999999877e-04,-1.000000000000000048e-04,4.000000000000000000e+00,7.000000000000000000e+00
1.786200000000000000e+04,6.999999999999999387e-05,1.399999999999999877e-04,1.600000000000000131e-04,5.999999999999999474e-05,-1.399999999999999877e-04,2.100000000000000087e-04,1.399999999999999877e-04,-1.000000000000000048e-04,4.000000000000000000e+00,7.000000000000000000e+00
1.786300000000000000e+04,6.999999999999999387e-05,1.399999999999999877e-04,1.600000000000000131e-04,5.999999999999999474e-05,-1.399999999999999877e-04,2.100000000000000087e-04,1.399999999999999877e-04,-1.000000000000000048e-04,4.000000000000000000e+00,7.000000000000000000e+00
1.786400000000000000e+04,6.999999999999999387e-05,1.399999999999999877e-04,1.600000000000000131e-04,5.999999999999999474e-05,-1.399999999999999877e-04,2.100000000000000087e-04,1.399999999999999877e-04,-1.000000000000000048e-04,4.000000000000000000e+00,7.000000000000000000e+00
1.786500000000000000e+04,6.999999999999999387e-05,1.399999999999999877e-04,1.600000000000000131e-04,5.999999999999999474e-05,-1.399999999999999877e-04,2.100000000000000087e-04,1.399999999999999877e-04,-1.000000000000000048e-04,4.000000000000000000e+00,7.000000000000000000e+00
1.786600000000000000e+04,6.999999999999999387e-05,1.399999999999999877e-04,1.600000000000000131e-04,5.999999999999999474e-05,-1.399999999999999877e-04,2.100000000000000087e-04,1.399999999999999877e-04,-1.000000000000000048e-04,4.000000000000000000e+00,7.000000000000000000e+00
1.786700000000000000e+04,6.999999999999999387e-05,1.399999999999999877e-04,1.600000000000000131e-04,5.999999999999999474e-05,-1.399999999999999877e-04,2.100000000000000087e-04,1.399999999999999877e-04,-1.000000000000000048e-04,4.000000000000000000e+00,7.000000000000000000e+00
1.786800000000000000e+04,6.999999999999999387e-05,1.399999999999999877e-04,1.600000000000000131e-04,5.999999999999999474e-05,-1.399999999999999877e-04,2.100000000000000087e-04,1.399999999999999877e-04,-1.000000000000000048e-04,4.000000000000000000e+00,7.000000000000000000e+00
1.786900000000000000e+04,6.999999999999999387e-05,1.399999999999999877e-04,1.600000000000000131e-04,5.999999999999999474e-05,-1.399999999999999877e-04,2.100000000000000087e-04,1.399999999999999877e-04,-1.000000000000000048e-04,4.000000000000000000e+00,7.000000000000000000e+00
1.787000000000000000e+04,6.999999999999999387e-05,1.399999999999999877e-04,1.600000000000000131e-04,5.999999999999999474e-05,-1.399999999999999877e-04,2.100000000000000087e-04,1.399999999999999877e-04,-1.000000000000000048e-04,4.000000000000000000e+00,7.000000000000000000e+00
1.787100000000000000e+04,6.999999999999999387e-05,1.399999999999999877e-04,1.600000000000000131e-04,5.999999999999999474e-05,-1.399999999999999877e-04,2.100000000000000087e-04,1.399999999999999877e-04,-1.000000000000000048e-04,4.000000000000000000e+00,7.000000000000000000e+00
1.787200000000000000e+04,6.999999999999999387e-05,1.399999999999999877e-04,1.600000000000000131e-04,5.999999999999999474e-05,-1.399999999999999877e-04,2.100000000000000087e-04,1.399999999999999877e-04,-1.000000000000000048e-04,4.000000000000000000e+00,7.000000000000000000e+00
1.787300000000000000e+04,6.999999999999999387e-05,1.399999999999999877e-04,1.600000000000000131e-04,5.999999999999999474e-05,-1.399999999999999877e-04,2.100000000000000087e-04,1.399999999999999877e-04,-1.000000000000000048e-04,4.000000000000000000e+00,7.000000000000000000e+00
1.787400000000000000e+04,6.999999999999999387e-05,1.399999999999999877e-04,1.600000000000000131e-04,5.999999999999999474e-05,-1.399999999999999877e-04,2.100000000000000087e-04,1.399999999999999877e-04,-1.000000000000000048e-04,4.000000000000000000e+00,7.000000000000000000e+00
1.787500000000000000e+04,6.999999999999999387e-05,1.399999999999999877e-04,1.600000000000000131e-04,5.999999999999999474e-05,-1.399999999999999877e-04,2.100000000000000087e-04,1.399999999999999877e-04,-1.000000000000000048e-04,4.000000000000000000e+00,7.000000000000000000e+00
1.787600000000000000e+04,6.999999999999999387e-05,1.399999999999999877e-04,1.600000000000000131e-04,5.999999999999999474e-05,-1.399999999999999877e-04,2.100000000000000087e-04,1.399999999999999877e-04,-1.000000000000000048e-04,4.000000000000000000e+00,7.000000000000000000e+00
1.787700000000000000e+04,6.999999999999999387e-05,1.399999999999999877e-04,1.600000000000000131e-04,5.999999999999999474e-05,-1.399999999999999877e-04,2.100000000000000087e-04,1.399999999999999877e-04,-1.000000000000000048e-04,4.000000000000000000e+00,7.000000000000000000e+00
1.787800000000000000e+04,6.999999999999999387e-05,1.399999999999999877e-04,1.600000000000000131e-04,5.999999999999999474e-05,-1.399999999999999877e-04,2.100000000000000087e-04,1.399999999999999877e-04,-1.000000000000000048e-04,4.000000000000000000e+00,7.000000000000000000e+00
1.787900000000000000e+04,6.999999999999999387e-05,1.399999999999999877e-04,1.600000000000000131e-04,5.999999999999999474e-05,-1.399999999999999877e-04,2.100000000000000087e-04,1.399999999999999877e-04,-1.000000000000000048e-04,4.000000000000000000e+00,7.000000000000000000e+00
1.788000000000000000e+04,6.999999999999999387e-05,1.399999999999999877e-04,1.600000000000000131e-04,5.999999999999999474e-05,-1.399999999999999877e-04,2.100000000000000087e-04,1.399999999999999877e-04,-1.000000000000000048e-04,4.000000000000000000e+00,7.000000000000000000e+00
1.788100000000000000e+04,-1.000000000000000048e-04,-1.499999999999999869e-04,-4.000000000000000327e-05,2.000000000000000096e-04,3.099999999999999999e-04,-9.000000000000000567e-05,-1.699999999999999851e-04,-1.600000000000000131e-04,4.000000000000000000e+00,7.000000000000000000e+00
1.788200000000000000e+04,-1.000000000000000048e-04,-1.499999999999999869e-04,-4.000000000000000327e-05,2.000000000000000096e-04,3.099999999999999999e-04,-9.000000000000000567e-05,-1.699999999999999851e-04,-1.600000000000000131e-04,4.000000000000000000e+00,7.000000000000000000e+00
1.788300000000000000e+04,-1.000000000000000048e-04,-1.499999999999999869e-04,-4.000000000000000327e-05,2.000000000000000096e-04,3.099999999999999999e-04,-9.000000000000000567e-05,-1.699999999999999851e-04,-1.600000000000000131e-04,4.000000000000000000e+00,7.000000000000000000e+00
1.788400000000000000e+04,-1.000000000000000048e-04,-1.499999999999999869e-04,-4.000000000000000327e-05,2.000000000000000096e-04,3.099999999999999999e-04,-9.000000000000000567e-05,-1.699999999999999851e-04,-1.600000000000000131e-04,4.000000000000000000e+00,7.000000000000000000e+00
1.788500000000000000e+04,-1.000000000000000048e-04,-1.499999999999999869e-04,-4.000000000000000327e-05,2.000000000000000096e-04,3.099999999999999999e-04,-9.000000000000000567e-05,-1.699999999999999851e-04,-1.600000000000000131e-04,4.000000000000000000e+00,7.000000000000000000e+00
1.788600000000000000e+04,-1.000000000000000048e-04,-1.499999999999999869e-04,-4.000000000000000327e-05,2.000000000000000096e-04,3.099999999999999999e-04,-9.000000000000000567e-05,-1.699999999999999851e-04,-1.600000000000000131e-04,4.000000000000000000e+00,7.000000000000000000e+00
1.788900000000000000e+04,-1.000000000000000048e-04,-1.499999999999999869e-04,-4.000000000000000327e-05,2.000000000000000096e-04,3.099999999999999999e-04,-9.000000000000000567e-05,-1.699999999999999851e-04,-1.600000000000000131e-04,4.000000000000000000e+00,7.000000000000000000e+00
1.789000000000000000e+04,-1.000000000000000048e-04,-1.499999999999999869e-04,-4.000000000000000327e-05,2.000000000000000096e-04,3.099999999999999999e-04,-9.000000000000000567e-05,-1.699999999999999851e-04,-1.600000000000000131e-04,4.000000000000000000e+00,7.000000000000000000e+00
1.789100000000000000e+04,-1.000000000000000048e-04,-1.499999999999999869e-04,-4.000000000000000327e-05,2.000000000000000096e-04,3.099999999999999999e-04,-9.000000000000000567e-05,-1.699999999999999851e-04,-1.600000000000000131e-04,4.000000000000000000e+00,7.000000000000000000e+00
1.789200000000000000e+04,-1.000000000000000048e-04,-1.499999999999999869e-04,-4.000000000000000327e-05,2.000000000000000096e-04,3.099999999999999999e-04,-9.000000000000000567e-05,-1.699999999999999851e-04,-1.600000000000000131e-04,4.000000000000000000e+00,7.000000000000000000e+00
1.789300000000000000e+04,-1.000000000000000048e-04,-1.499999999999999869e-04,-4.000000000000000327e-05,2.000000000000000096e-04,3.099999999999999999e-04,-9.000000000000000567e-05,-1.699999999999999851e-04,-1.600000000000000131e-04,4.000000000000000000e+00,7.000000000000000000e+00
1.789400000000000000e+04,-1.000000000000000048e-04,-1.499999999999999869e-04,-4.000000000000000327e-05,2.000000000000000096e-04,3.099999999999999999e-04,-9.000000000000000567e-05,-1.699999999999999851e-04,-1.600000000000000131e-04,4.000000000000000000e+00,7.000000000000000000e+00
1.789500000000000000e+04,-1.000000000000000048e-04,-1.499999999999999869e-04,-4.000000000000000327e-05,2.000000000000000096e-04,3.099999999999999999e-04,-9.000000000000000567e-05,-1.699999999999999851e-04,-1.600000000000000131e-04,4.000000000000000000e+00,7.000000000000000000e+00
1.789600000000000000e+04,-1.000000000000000048e-04,-1.499999999999999869e-04,-4.000000000000000327e-05,2.000000000000000096e-04,3.099999999999999999e-04,-9.000000000000000567e-05,-1.699999999999999851e-04,-1.600000000000000131e-04,4.000000000000000000e+00,7.000000000000000000e+00
1.789700000000000000e+04,-1.000000000000000048e-04,-1.499999999999999869e-04,-4.000000000000000327e-05,2.000000000000000096e-04,3.099999999999999999e-04,-9.000000000000000567e-05,-1.699999999999999851e-04,-1.600000000000000131e-04,4.000000000000000000e+00,7.000000000000000000e+00
1.789800000000000000e+04,-1.000000000000000048e-04,-1.499999999999999869e-04,-4.000000000000000327e-05,2.000000000000000096e-04,3.099999999999999999e-04,-9.000000000000000567e-05,-1.699999999999999851e-04,-1.600000000000000131e-04,4.000000000000000000e+00,7.000000000000000000e+00
1.789900000000000000e+04,-1.000000000000000048e-04,-1.499999999999999869e-04,-4.000000000000000327e-05,2.000000000000000096e-04,3.099999999999999999e-04,-9.000000000000000567e-05,-1.699999999999999851e-04,-1.600000000000000131e-04,4.000000000000000000e+00,7.000000000000000000e+00
1.790000000000000000e+04,-1.000000000000000048e-04,-1.499999999999999869e-04,-4.000000000000000327e-05,2.000000000000000096e-04,3.099999999999999999e-04,-9.000000000000000567e-05,-1.699999999999999851e-04,-1.600000000000000131e-04,4.000000000000000000e+00,7.000000000000000000e+00
1.790100000000000000e+04,-1.000000000000000048e-04,-1.499999999999999869e-04,-4.000000000000000327e-05,2.000000000000000096e-04,3.099999999999999999e-04,-9.000000000000000567e-05,-1.699999999999999851e-04,-1.600000000000000131e-04,4.000000000000000000e+00,7.000000000000000000e+00
1.790200000000000000e+04,-1.000000000000000048e-04,-1.499999999999999869e-04,-4.000000000000000327e-05,2.000000000000000096e-04,3.099999999999999999e-04,-9.000000000000000567e-05,-1.699999999999999851e-04,-1.600000000000000131e-04,4.000000000000000000e+00,7.000000000000000000e+00
1.790300000000000000e+04,2.000000000000000164e-05,2.000000000000000164e-05,5.999999999999999474e-05,9.000000000000000567e-05,4.000000000000000327e-05,6.999999999999999387e-05,-5.999999999999999474e-05,-9.000000000000000567e-05,4.000000000000000000e+00,7.000000000000000000e+00
1.790400000000000000e+04,-4.000000000000000327e-05,1.000000000000000082e-05,2.999999999999999737e-05,1.899999999999999834e-04,3.600000000000000227e-04,-1.100000000000000039e-04,-2.200000000000000078e-04,-4.000000000000000327e-05,4.000000000000000000e+00,7.000000000000000000e+00
1.790500000000000000e+04,-4.000000000000000327e-05,1.000000000000000082e-05,2.999999999999999737e-05,1.899999999999999834e-04,3.600000000000000227e-04,-1.100000000000000039e-04,-2.200000000000000078e-04,-4.000000000000000327e-05,4.000000000000000000e+00,7.000000000000000000e+00
1.790600000000000000e+04,-4.000000000000000327e-05,1.000000000000000082e-05,2.999999999999999737e-05,1.899999999999999834e-04,3.600000000000000227e-04,-1.100000000000000039e-04,-2.200000000000000078e-04,-4.000000000000000327e-05,4.000000000000000000e+00,7.000000000000000000e+00
1.790700000000000000e+04,-4.000000000000000327e-05,1.000000000000000082e-05,2.999999999999999737e-05,1.899999999999999834e-04,3.600000000000000227e-04,-1.100000000000000039e-04,-2.200000000000000078e-04,-4.000000000000000327e-05,4.000000000000000000e+00,7.000000000000000000e+00
1.790800000000000000e+04,-4.000000000000000327e-05,1.000000000000000082e-05,2.999999999999999737e-05,1.899999999999999834e-04,3.600000000000000227e-04,-1.100000000000000039e-04,-2.200000000000000078e-04,-4.000000000000000327e-05,4.000000000000000000e+00,7.000000000000000000e+00
1.790900000000000000e+04,-4.000000000000000327e-05,1.000000000000000082e-05,2.999999999999999737e-05,1.899999999999999834e-04,3.600000000000000227e-04,-1.100000000000000039e-04,-2.200000000000000078e-04,-4.000000000000000327e-05,4.000000000000000000e+00,7.000000000000000000e+00
1.791000000000000000e+04,-4.000000000000000327e-05,1.000000000000000082e-05,2.999999999999999737e-05,1.899999999999999834e-04,3.600000000000000227e-04,-1.100000000000000039e-04,-2.200000000000000078e-04,-4.000000000000000327e-05,4.000000000000000000e+00,7.000000000000000000e+00
1.791100000000000000e+04,-4.000000000000000327e-05,1.000000000000000082e-05,2.999999999999999737e-05,1.899999999999999834e-04,3.600000000000000227e-04,-1.100000000000000039e-04,-2.200000000000000078e-04,-4.000000000000000327e-05,4.000000000000000000e+00,7.000000000000000000e+00
1.791200000000000000e+04,-4.000000000000000327e-05,1.000000000000000082e-05,2.999999999999999737e-05,1.899999999999999834e-04,3.600000000000000227e-04,-1.100000000000000039e-04,-2.200000000000000078e-04,-4.000000000000000327e-05,4.000000000000000000e+00,7.000000000000000000e+00
1.791300000000000000e+04,-4.000000000000000327e-05,1.000000000000000082e-05,2.999999999999999737e-05,1.899999999999999834e-04,3.600000000000000227e-04,-1.100000000000000039e-04,-2.200000000000000078e-04,-4.000000000000000327e-05,4.000000000000000000e+00,7.000000000000000000e+00
1.791400000000000000e+04,-4.000000000000000327e-05,1.000000000000000082e-05,2.999999999999999737e-05,1.899999999999999834e-04,3.600000000000000227e-04,-1.100000000000000039e-04,-2.200000000000000078e-04,-4.000000000000000327e-05,4.000000000000000000e+00,7.000000000000000000e+00
1.791500000000000000e+04,-4.000000000000000327e-05,1.000000000000000082e-05,2.999999999999999737e-05,1.899999999999999834e-04,3.600000000000000227e-04,-1.100000000000000039e-04,-2.200000000000000078e-04,-4.000000000000000327e-05,4.000000000000000000e+00,7.000000000000000000e+00
1.791600000000000000e+04,-4.000000000000000327e-05,1.000000000000000082e-05,2.999999999999999737e-05,1.899999999999999834e-04,3.600000000000000227e-04,-1.100000000000000039e-04,-2.200000000000000078e-04,-4.000000000000000327e-05,4.000000000000000000e+00,7.000000000000000000e+00
1.791700000000000000e+04,-2.999999999999999737e-05,-5.000000000000000240e-05,-1.000000000000000082e-05,2.000000000000000164e-05,-5.200000000000000629e-04,-5.900000000000000296e-04,-1.199999999999999895e-04,-5.000000000000000240e-05,4.000000000000000000e+00,7.000000000000000000e+00
1.791800000000000000e+04,-8.000000000000000654e-05,-2.999999999999999737e-05,-1.699999999999999851e-04,4.000000000000000327e-05,-9.000000000000000567e-05,2.200000000000000078e-04,-4.000000000000000327e-05,-1.000000000000000048e-04,4.000000000000000000e+00,7.000000000000000000e+00
1.791900000000000000e+04,-8.000000000000000654e-05,-2.999999999999999737e-05,-1.699999999999999851e-04,4.000000000000000327e-05,-9.000000000000000567e-05,2.200000000000000078e-04,-4.000000000000000327e-05,-1.000000000000000048e-04,4.000000000000000000e+00,7.000000000000000000e+00
1.792000000000000000e+04,-8.000000000000000654e-05,-2.999999999999999737e-05,-1.699999999999999851e-04,4.000000000000000327e-05,-9.000000000000000567e-05,2.200000000000000078e-04,-4.000000000000000327e-05,-1.000000000000000048e-04,4.000000000000000000e+00,7.000000000000000000e+00
1.792100000000000000e+04,-8.000000000000000654e-05,-2.999999999999999737e-05,-1.699999999999999851e-04,4.000000000000000327e-05,-9.000000000000000567e-05,2.200000000000000078e-04,-4.000000000000000327e-05,-1.000000000000000048e-04,4.000000000000000000e+00,7.000000000000000000e+00
1.792200000000000000e+04,-8.000000000000000654e-05,-2.999999999999999737e-05,-1.699999999999999851e-04,4.000000000000000327e-05,-9.000000000000000567e-05,2.200000000000000078e-04,-4.000000000000000327e-05,-1.000000000000000048e-04,4.000000000000000000e+00,7.000000000000000000e+00
1.792300000000000000e+04,-8.000000000000000654e-05,-2.999999999999999737e-05,-1.699999999999999851e-04,4.000000000000000327e-05,-9.000000000000000567e-05,2.200000000000000078e-04,-4.000000000000000327e-05,-1.000000000000000048e-04,4.000000000000000000e+00,7.000000000000000000e+00
1.792400000000000000e+04,-8.000000000000000654e-05,-2.999999999999999737e-05,-1.699999999999999851e-04,4.000000000000000327e-05,-9.000000000000000567e-05,2.200000000000000078e-04,-4.000000000000000327e-05,-1.000000000000000048e-04,4.000000000000000000e+00,7.000000000000000000e+00
1.792500000000000000e+04,-8.000000000000000654e-05,-2.999999999999999737e-05,-1.699999999999999851e-04,4.000000000000000327e-05,-9.000000000000000567e-05,2.200000000000000078e-04,-4.000000000000000327e-05,-1.000000000000000048e-04,4.000000000000000000e+00,7.000000000000000000e+00
1.792600000000000000e+04,-8.000000000000000654e-05,-2.999999999999999737e-05,-1.699999999999999851e-04,4.000000000000000327e-05,-9.000000000000000567e-05,2.200000000000000078e-04,-4.000000000000000327e-05,-1.000000000000000048e-04,4.000000000000000000e+00,7.000000000000000000e+00
1.792700000000000000e+04,-8.000000000000000654e-05,-2.999999999999999737e-05,-1.699999999999999851e-04,4.000000000000000327e-05,-9.000000000000000567e-05,2.200000000000000078e-04,-4.000000000000000327e-05,-1.000000000000000048e-04,4.000000000000000000e+00,7.000000000000000000e+00
1.792800000000000000e+04,-8.000000000000000654e-05,-2.999999999999999737e-05,-1.699999999999999851e-04,4.000000000000000327e-05,-9.000000000000000567e-05,2.200000000000000078e-04,-4.000000000000000327e-05,-1.000000000000000048e-04,4.000000000000000000e+00,7.000000000000000000e+00
1.792900000000000000e+04,-8.000000000000000654e-05,-2.999999999999999737e-05,-1.699999999999999851e-04,4.000000000000000327e-05,-9.000000000000000567e-05,2.200000000000000078e-04,-4.000000000000000327e-05,-1.000000000000000048e-04,4.000000000000000000e+00,7.000000000000000000e+00
1.793000000000000000e+04,-8.000000000000000654e-05,-2.999999999999999737e-05,-1.699999999999999851e-04,4.000000000000000327e-05,-9.000000000000000567e-05,2.200000000000000078e-04,-4.000000000000000327e-05,-1.000000000000000048e-04,4.000000000000000000e+00,7.000000000000000000e+00
1.793100000000000000e+04,-8.000000000000000654e-05,-2.999999999999999737e-05,-1.699999999999999851e-04,4.000000000000000327e-05,-9.000000000000000567e-05,2.200000000000000078e-04,-4.000000000000000327e-05,-1.000000000000000048e-04,4.000000000000000000e+00,7.000000000000000000e+00
1.793200000000000000e+04,-8.000000000000000654e-05,-2.999999999999999737e-05,-1.699999999999999851e-04,4.000000000000000327e-05,-9.000000000000000567e-05,2.200000000000000078e-04,-4.000000000000000327e-05,-1.000000000000000048e-04,4.000000000000000000e+00,7.000000000000000000e+00
1.793300000000000000e+04,-8.000000000000000654e-05,-2.999999999999999737e-05,-1.699999999999999851e-04,4.000000000000000327e-05,-9.000000000000000567e-05,2.200000000000000078e-04,-4.000000000000000327e-05,-1.000000000000000048e-04,4.000000000000000000e+00,7.000000000000000000e+00
1.793400000000000000e+04,-8.000000000000000654e-05,-2.999999999999999737e-05,-1.699999999999999851e-04,4.000000000000000327e-05,-9.000000000000000567e-05,2.200000000000000078e-04,-4.000000000000000327e-05,-1.000000000000000048e-04,4.000000000000000000e+00,7.000000000000000000e+00
1.793500000000000000e+04,-8.000000000000000654e-05,-2.999999999999999737e-05,-1.699999999999999851e-04,4.000000000000000327e-05,-9.000000000000000567e-05,2.200000000000000078e-04,-4.000000000000000327e-05,-1.000000000000000048e-04,4.000000000000000000e+00,7.000000000000000000e+00
1.793600000000000000e+04,-8.000000000000000654e-05,-2.999999999999999737e-05,-1.699999999999999851e-04,4.000000000000000327e-05,-9.000000000000000567e-05,2.200000000000000078e-04,-4.000000000000000327e-05,-1.000000000000000048e-04,4.000000000000000000e+00,7.000000000000000000e+00
1.793800000000000000e+04,-8.000000000000000654e-05,-2.999999999999999737e-05,-1.699999999999999851e-04,4.000000000000000327e-05,-9.000000000000000567e-05,2.200000000000000078e-04,-4.000000000000000327e-05,-1.000000000000000048e-04,4.000000000000000000e+00,7.000000000000000000e+00
1.793900000000000000e+04,-8.000000000000000654e-05,-2.999999999999999737e-05,-1.699999999999999851e-04,4.000000000000000327e-05,-9.000000000000000567e-05,2.200000000000000078e-04,-4.000000000000000327e-05,-1.000000000000000048e-04,4.000000000000000000e+00,7.000000000000000000e+00
1.794000000000000000e+04,-8.000000000000000654e-05,-2.999999999999999737e-05,-1.699999999999999851e-04,4.000000000000000327e-05,-9.000000000000000567e-05,2.200000000000000078e-04,-4.000000000000000327e-05,-1.000000000000000048e-04,4.000000000000000000e+00,7.000000000000000000e+00
1.794100000000000000e+04,-8.000000000000000654e-05,-5.000000000000000240e-05,-1.100000000000000039e-04,-5.000000000000000240e-05,2.500000000000000052e-04,-9.000000000000000567e-05,4.000000000000000327e-05,0.000000000000000000e+00,4.000000000000000000e+00,7.000000000000000000e+00
1.794200000000000000e+04,2.999999999999999737e-05,5.999999999999999474e-05,1.399999999999999877e-04,3.200000000000000262e-04,2.299999999999999799e-04,4.499999999999999877e-04,8.000000000000000654e-05,1.000000000000000082e-05,4.000000000000000000e+00,7.000000000000000000e+00
1.794300000000000000e+04,2.999999999999999737e-05,5.999999999999999474e-05,1.399999999999999877e-04,3.200000000000000262e-04,2.299999999999999799e-04,4.499999999999999877e-04,8.000000000000000654e-05,1.000000000000000082e-05,4.000000000000000000e+00,7.000000000000000000e+00
1.794400000000000000e+04,2.999999999999999737e-05,5.999999999999999474e-05,1.399999999999999877e-04,3.200000000000000262e-04,2.299999999999999799e-04,4.499999999999999877e-04,8.000000000000000654e-05,1.000000000000000082e-05,4.000000000000000000e+00,7.000000000000000000e+00
1.794500000000000000e+04,2.999999999999999737e-05,5.999999999999999474e-05,1.399999999999999877e-04,3.200000000000000262e-04,2.299999999999999799e-04,4.499999999999999877e-04,8.000000000000000654e-05,1.000000000000000082e-05,4.000000000000000000e+00,7.000000000000000000e+00
1.794700000000000000e+04,2.999999999999999737e-05,5.999999999999999474e-05,1.399999999999999877e-04,3.200000000000000262e-04,2.299999999999999799e-04,4.499999999999999877e-04,8.000000000000000654e-05,1.000000000000000082e-05,4.000000000000000000e+00,7.000000000000000000e+00
1.794800000000000000e+04,2.999999999999999737e-05,5.999999999999999474e-05,1.399999999999999877e-04,3.200000000000000262e-04,2.299999999999999799e-04,4.499999999999999877e-04,8.000000000000000654e-05,1.000000000000000082e-05,4.000000000000000000e+00,7.000000000000000000e+00
1.794900000000000000e+04,2.999999999999999737e-05,5.999999999999999474e-05,1.399999999999999877e-04,3.200000000000000262e-04,2.299999999999999799e-04,4.499999999999999877e-04,8.000000000000000654e-05,1.000000000000000082e-05,4.000000000000000000e+00,7.000000000000000000e+00
1.795000000000000000e+04,2.999999999999999737e-05,5.999999999999999474e-05,1.399999999999999877e-04,3.200000000000000262e-04,2.299999999999999799e-04,4.499999999999999877e-04,8.000000000000000654e-05,1.000000000000000082e-05,4.000000000000000000e+00,7.000000000000000000e+00
1.795100000000000000e+04,2.999999999999999737e-05,5.999999999999999474e-05,1.399999999999999877e-04,3.200000000000000262e-04,2.299999999999999799e-04,4.499999999999999877e-04,8.000000000000000654e-05,1.000000000000000082e-05,4.000000000000000000e+00,7.000000000000000000e+00
1.795200000000000000e+04,2.999999999999999737e-05,5.999999999999999474e-05,1.399999999999999877e-04,3.200000000000000262e-04,2.299999999999999799e-04,4.499999999999999877e-04,8.000000000000000654e-05,1.000000000000000082e-05,4.000000000000000000e+00,7.000000000000000000e+00
1.795300000000000000e+04,2.999999999999999737e-05,5.999999999999999474e-05,1.399999999999999877e-04,3.200000000000000262e-04,2.299999999999999799e-04,4.499999999999999877e-04,8.000000000000000654e-05,1.000000000000000082e-05,4.000000000000000000e+00,7.000000000000000000e+00
1.795400000000000000e+04,2.999999999999999737e-05,5.999999999999999474e-05,1.399999999999999877e-04,3.200000000000000262e-04,2.299999999999999799e-04,4.499999999999999877e-04,8.000000000000000654e-05,1.000000000000000082e-05,4.000000000000000000e+00,7.000000000000000000e+00
1.795500000000000000e+04,2.999999999999999737e-05,5.999999999999999474e-05,1.399999999999999877e-04,3.200000000000000262e-04,2.299999999999999799e-04,4.499999999999999877e-04,8.000000000000000654e-05,1.000000000000000082e-05,4.000000000000000000e+00,7.000000000000000000e+00
1.795600000000000000e+04,2.999999999999999737e-05,5.999999999999999474e-05,1.399999999999999877e-04,3.200000000000000262e-04,2.299999999999999799e-04,4.499999999999999877e-04,8.000000000000000654e-05,1.000000000000000082e-05,4.000000000000000000e+00,7.000000000000000000e+00
1.795700000000000000e+04,2.999999999999999737e-05,5.999999999999999474e-05,1.399999999999999877e-04,3.200000000000000262e-04,2.299999999999999799e-04,4.499999999999999877e-04,8.000000000000000654e-05,1.000000000000000082e-05,4.000000000000000000e+00,7.000000000000000000e+00
1.795800000000000000e+04,2.999999999999999737e-05,5.999999999999999474e-05,1.399999999999999877e-04,3.200000000000000262e-04,2.299999999999999799e-04,4.499999999999999877e-04,8.000000000000000654e-05,1.000000000000000082e-05,4.000000000000000000e+00,7.000000000000000000e+00
1.795900000000000000e+04,2.999999999999999737e-05,5.999999999999999474e-05,1.399999999999999877e-04,3.200000000000000262e-04,2.299999999999999799e-04,4.499999999999999877e-04,8.000000000000000654e-05,1.000000000000000082e-05,4.000000000000000000e+00,7.000000000000000000e+00
1.796000000000000000e+04,2.999999999999999737e-05,5.999999999999999474e-05,1.399999999999999877e-04,3.200000000000000262e-04,2.299999999999999799e-04,4.499999999999999877e-04,8.000000000000000654e-05,1.000000000000000082e-05,4.000000000000000000e+00,7.000000000000000000e+00
1.796100000000000000e+04,2.999999999999999737e-05,5.999999999999999474e-05,1.399999999999999877e-04,3.200000000000000262e-04,2.299999999999999799e-04,4.499999999999999877e-04,8.000000000000000654e-05,1.000000000000000082e-05,4.000000000000000000e+00,7.000000000000000000e+00
1.796200000000000000e+04,2.999999999999999737e-05,5.999999999999999474e-05,1.399999999999999877e-04,3.200000000000000262e-04,2.299999999999999799e-04,4.499999999999999877e-04,8.000000000000000654e-05,1.000000000000000082e-05,4.000000000000000000e+00,7.000000000000000000e+00
1.796300000000000000e+04,1.000000000000000082e-05,-2.000000000000000164e-05,6.999999999999999387e-05,1.100000000000000039e-04,-1.199999999999999895e-04,-1.600000000000000131e-04,-2.999999999999999737e-05,-2.000000000000000164e-05,4.000000000000000000e+00,7.000000000000000000e+00
1.796400000000000000e+04,-1.000000000000000082e-05,-5.000000000000000240e-05,-5.999999999999999474e-05,-1.899999999999999834e-04,-5.000000000000000240e-05,-1.300000000000000157e-04,0.000000000000000000e+00,1.300000000000000157e-04,4.000000000000000000e+00,7.000000000000000000e+00
1.796500000000000000e+04,-1.000000000000000082e-05,-5.000000000000000240e-05,-5.999999999999999474e-05,-1.899999999999999834e-04,-5.000000000000000240e-05,-1.300000000000000157e-04,0.000000000000000000e+00,1.300000000000000157e-04,4.000000000000000000e+00,7.000000000000000000e+00
1.796600000000000000e+04,-1.000000000000000082e-05,-5.000000000000000240e-05,-5.999999999999999474e-05,-1.899999999999999834e-04,-5.000000000000000240e-05,-1.300000000000000157e-04,0.000000000000000000e+00,1.300000000000000157e-04,4.000000000000000000e+00,7.000000000000000000e+00
1.796700000000000000e+04,-1.000000000000000082e-05,-5.000000000000000240e-05,-5.999999999999999474e-05,-1.899999999999999834e-04,-5.000000000000000240e-05,-1.300000000000000157e-04,0.000000000000000000e+00,1.300000000000000157e-04,4.000000000000000000e+00,7.000000000000000000e+00
1.796800000000000000e+04,-1.000000000000000082e-05,-5.000000000000000240e-05,-5.999999999999999474e-05,-1.899999999999999834e-04,-5.000000000000000240e-05,-1.300000000000000157e-04,0.000000000000000000e+00,1.300000000000000157e-04,4.000000000000000000e+00,7.000000000000000000e+00
1.796900000000000000e+04,-1.000000000000000082e-05,-5.000000000000000240e-05,-5.999999999999999474e-05,-1.899999999999999834e-04,-5.000000000000000240e-05,-1.300000000000000157e-04,0.000000000000000000e+00,1.300000000000000157e-04,4.000000000000000000e+00,7.000000000000000000e+00
1.797000000000000000e+04,-1.000000000000000082e-05,-5.000000000000000240e-05,-5.999999999999999474e-05,-1.899999999999999834e-04,-5.000000000000000240e-05,-1.300000000000000157e-04,0.000000000000000000e+00,1.300000000000000157e-04,4.000000000000000000e+00,7.000000000000000000e+00
1.797100000000000000e+04,-1.000000000000000082e-05,-5.000000000000000240e-05,-5.999999999999999474e-05,-1.899999999999999834e-04,-5.000000000000000240e-05,-1.300000000000000157e-04,0.000000000000000000e+00,1.300000000000000157e-04,4.000000000000000000e+00,7.000000000000000000e+00
1.797200000000000000e+04,-1.000000000000000082e-05,-5.000000000000000240e-05,-5.999999999999999474e-05,-1.899999999999999834e-04,-5.000000000000000240e-05,-1.300000000000000157e-04,0.000000000000000000e+00,1.300000000000000157e-04,4.000000000000000000e+00,7.000000000000000000e+00
1.797300000000000000e+04,-1.000000000000000082e-05,-5.000000000000000240e-05,-5.999999999999999474e-05,-1.899999999999999834e-04,-5.000000000000000240e-05,-1.300000000000000157e-04,0.000000000000000000e+00,1.300000000000000157e-04,4.000000000000000000e+00,7.000000000000000000e+00
1.797400000000000000e+04,-1.000000000000000082e-05,-5.000000000000000240e-05,-5.999999999999999474e-05,-1.899999999999999834e-04,-5.000000000000000240e-05,-1.300000000000000157e-04,0.000000000000000000e+00,1.300000000000000157e-04,4.000000000000000000e+00,7.000000000000000000e+00
1.797500000000000000e+04,-1.000000000000000082e-05,-5.000000000000000240e-05,-5.999999999999999474e-05,-1.899999999999999834e-04,-5.000000000000000240e-05,-1.300000000000000157e-04,0.000000000000000000e+00,1.300000000000000157e-04,4.000000000000000000e+00,7.000000000000000000e+00
1.797600000000000000e+04,-1.000000000000000082e-05,-5.000000000000000240e-05,-5.999999999999999474e-05,-1.899999999999999834e-04,-5.000000000000000240e-05,-1.300000000000000157e-04,0.000000000000000000e+00,1.300000000000000157e-04,4.000000000000000000e+00,7.000000000000000000e+00
1.797700000000000000e+04,-6.999999999999999387e-05,-6.999999999999999387e-05,-5.999999999999999474e-05,-1.000000000000000048e-04,-4.799999999999999580e-04,-4.599999999999999597e-04,-2.700000000000000035e-04,-1.499999999999999869e-04,4.000000000000000000e+00,7.000000000000000000e+00
1.797800000000000000e+04,-5.000000000000000240e-05,-1.000000000000000082e-05,0.000000000000000000e+00,-1.800000000000000113e-04,-4.799999999999999580e-04,-4.599999999999999597e-04,-1.699999999999999851e-04,-1.100000000000000039e-04,4.000000000000000000e+00,7.000000000000000000e+00
1.797900000000000000e+04,-5.000000000000000240e-05,-1.000000000000000082e-05,0.000000000000000000e+00,-1.800000000000000113e-04,-4.799999999999999580e-04,-4.599999999999999597e-04,-1.699999999999999851e-04,-1.100000000000000039e-04,4.000000000000000000e+00,7.000000000000000000e+00
1.798000000000000000e+04,-5.000000000000000240e-05,-1.000000000000000082e-05,0.000000000000000000e+00,-1.800000000000000113e-04,-4.799999999999999580e-04,-4.599999999999999597e-04,-1.699999999999999851e-04,-1.100000000000000039e-04,4.000000000000000000e+00,7.000000000000000000e+00
1.798100000000000000e+04,-5.000000000000000240e-05,-1.000000000000000082e-05,0.000000000000000000e+00,-1.800000000000000113e-04,-4.799999999999999580e-04,-4.599999999999999597e-04,-1.699999999999999851e-04,-1.100000000000000039e-04,4.000000000000000000e+00,7.000000000000000000e+00
1.798200000000000000e+04,-5.000000000000000240e-05,-1.000000000000000082e-05,0.000000000000000000e+00,-1.800000000000000113e-04,-4.799999999999999580e-04,-4.599999999999999597e-04,-1.699999999999999851e-04,-1.100000000000000039e-04,4.000000000000000000e+00,7.000000000000000000e+00
1.798300000000000000e+04,-5.000000000000000240e-05,-1.000000000000000082e-05,0.000000000000000000e+00,-1.800000000000000113e-04,-4.799999999999999580e-04,-4.599999999999999597e-04,-1.699999999999999851e-04,-1.100000000000000039e-04,4.000000000000000000e+00,7.000000000000000000e+00
1.798400000000000000e+04,-5.000000000000000240e-05,-1.000000000000000082e-05,0.000000000000000000e+00,-1.800000000000000113e-04,-4.799999999999999580e-04,-4.599999999999999597e-04,-1.699999999999999851e-04,-1.100000000000000039e-04,4.000000000000000000e+00,7.000000000000000000e+00
1.798500000000000000e+04,-5.000000000000000240e-05,-1.000000000000000082e-05,0.000000000000000000e+00,-1.800000000000000113e-04,-4.799999999999999580e-04,-4.599999999999999597e-04,-1.699999999999999851e-04,-1.100000000000000039e-04,4.000000000000000000e+00,7.000000000000000000e+00
1.798600000000000000e+04,-5.000000000000000240e-05,-1.000000000000000082e-05,0.000000000000000000e+00,-1.800000000000000113e-04,-4.799999999999999580e-04,-4.599999999999999597e-04,-1.699999999999999851e-04,-1.100000000000000039e-04,4.000000000000000000e+00,7.000000000000000000e+00
1.798800000000000000e+04,-5.000000000000000240e-05,-1.000000000000000082e-05,0.000000000000000000e+00,-1.800000000000000113e-04,-4.799999999999999580e-04,-4.599999999999999597e-04,-1.699999999999999851e-04,-1.100000000000000039e-04,4.000000000000000000e+00,7.000000000000000000e+00
1.798900000000000000e+04,-5.000000000000000240e-05,-1.000000000000000082e-05,0.000000000000000000e+00,-1.800000000000000113e-04,-4.799999999999999580e-04,-4.599999999999999597e-04,-1.699999999999999851e-04,-1.100000000000000039e-04,4.000000000000000000e+00,7.000000000000000000e+00
1.799000000000000000e+04,-5.000000000000000240e-05,-1.000000000000000082e-05,0.000000000000000000e+00,-1.800000000000000113e-04,-4.799999999999999580e-04,-4.599999999999999597e-04,-1.699999999999999851e-04,-1.100000000000000039e-04,4.000000000000000000e+00,7.000000000000000000e+00
1.799100000000000000e+04,-5.000000000000000240e-05,-1.000000000000000082e-05,0.000000000000000000e+00,-1.800000000000000113e-04,-4.799999999999999580e-04,-4.599999999999999597e-04,-1.699999999999999851e-04,-1.100000000000000039e-04,4.000000000000000000e+00,7.000000000000000000e+00
1.799200000000000000e+04,-5.000000000000000240e-05,-1.000000000000000082e-05,0.000000000000000000e+00,-1.800000000000000113e-04,-4.799999999999999580e-04,-4.599999999999999597e-04,-1.699999999999999851e-04,-1.100000000000000039e-04,4.000000000000000000e+00,7.000000000000000000e+00
1.799300000000000000e+04,-5.000000000000000240e-05,-1.000000000000000082e-05,0.000000000000000000e+00,-1.800000000000000113e-04,-4.799999999999999580e-04,-4.599999999999999597e-04,-1.699999999999999851e-04,-1.100000000000000039e-04,4.000000000000000000e+00,7.000000000000000000e+00
1.799400000000000000e+04,-5.000000000000000240e-05,-1.000000000000000082e-05,0.000000000000000000e+00,-1.800000000000000113e-04,-4.799999999999999580e-04,-4.599999999999999597e-04,-1.699999999999999851e-04,-1.100000000000000039e-04,4.000000000000000000e+00,7.000000000000000000e+00
1.799500000000000000e+04,-5.000000000000000240e-05,-1.000000000000000082e-05,0.000000000000000000e+00,-1.800000000000000113e-04,-4.799999999999999580e-04,-4.599999999999999597e-04,-1.699999999999999851e-04,-1.100000000000000039e-04,4.000000000000000000e+00,7.000000000000000000e+00
1.799600000000000000e+04,-5.000000000000000240e-05,-1.000000000000000082e-05,0.000000000000000000e+00,-1.800000000000000113e-04,-4.799999999999999580e-04,-4.599999999999999597e-04,-1.699999999999999851e-04,-1.100000000000000039e-04,4.000000000000000000e+00,7.000000000000000000e+00
1.799700000000000000e+04,-5.000000000000000240e-05,-1.000000000000000082e-05,0.000000000000000000e+00,-1.800000000000000113e-04,-4.799999999999999580e-04,-4.599999999999999597e-04,-1.699999999999999851e-04,-1.100000000000000039e-04,4.000000000000000000e+00,7.000000000000000000e+00
1.799800000000000000e+04,-5.000000000000000240e-05,-1.000000000000000082e-05,0.000000000000000000e+00,-1.800000000000000113e-04,-4.799999999999999580e-04,-4.599999999999999597e-04,-1.699999999999999851e-04,-1.100000000000000039e-04,4.000000000000000000e+00,7.000000000000000000e+00
1.799900000000000000e+04,-5.000000000000000240e-05,-1.000000000000000082e-05,0.000000000000000000e+00,-1.800000000000000113e-04,-4.799999999999999580e-04,-4.599999999999999597e-04,-1.699999999999999851e-04,-1.100000000000000039e-04,4.000000000000000000e+00,7.000000000000000000e+00
1.800000000000000000e+04,-5.000000000000000240e-05,-1.000000000000000082e-05,0.000000000000000000e+00,-1.800000000000000113e-04,-4.799999999999999580e-04,-4.599999999999999597e-04,-1.699999999999999851e-04,-1.100000000000000039e-04,4.000000000000000000e+00,7.000000000000000000e+00
1.800100000000000000e+04,-2.000000000000000164e-05,0.000000000000000000e+00,4.000000000000000327e-05,2.399999999999999790e-04,1.000000000000000048e-04,2.999999999999999737e-04,1.000000000000000048e-04,-5.999999999999999474e-05,4.000000000000000000e+00,7.000000000000000000e+00
1.800200000000000000e+04,-2.000000000000000164e-05,0.000000000000000000e+00,4.000000000000000327e-05,2.399999999999999790e-04,1.000000000000000048e-04,2.999999999999999737e-04,1.000000000000000048e-04,-5.999999999999999474e-05,4.000000000000000000e+00,7.000000000000000000e+00
1.800300000000000000e+04,-2.000000000000000164e-05,0.000000000000000000e+00,4.000000000000000327e-05,2.399999999999999790e-04,1.000000000000000048e-04,2.999999999999999737e-04,1.000000000000000048e-04,-5.999999999999999474e-05,4.000000000000000000e+00,7.000000000000000000e+00
1.800400000000000000e+04,-2.000000000000000164e-05,0.000000000000000000e+00,4.000000000000000327e-05,2.399999999999999790e-04,1.000000000000000048e-04,2.999999999999999737e-04,1.000000000000000048e-04,-5.999999999999999474e-05,4.000000000000000000e+00,7.000000000000000000e+00
1.800500000000000000e+04,-2.000000000000000164e-05,0.000000000000000000e+00,4.000000000000000327e-05,2.399999999999999790e-04,1.000000000000000048e-04,2.999999999999999737e-04,1.000000000000000048e-04,-5.999999999999999474e-05,4.000000000000000000e+00,7.000000000000000000e+00
1.800600000000000000e+04,-2.000000000000000164e-05,0.000000000000000000e+00,4.000000000000000327e-05,2.399999999999999790e-04,1.000000000000000048e-04,2.999999999999999737e-04,1.000000000000000048e-04,-5.999999999999999474e-05,4.000000000000000000e+00,7.000000000000000000e+00
1.800700000000000000e+04,-2.000000000000000164e-05,0.000000000000000000e+00,4.000000000000000327e-05,2.399999999999999790e-04,1.000000000000000048e-04,2.999999999999999737e-04,1.000000000000000048e-04,-5.999999999999999474e-05,4.000000000000000000e+00,7.000000000000000000e+00
1.800800000000000000e+04,-2.000000000000000164e-05,0.000000000000000000e+00,4.000000000000000327e-05,2.399999999999999790e-04,1.000000000000000048e-04,2.999999999999999737e-04,1.000000000000000048e-04,-5.999999999999999474e-05,4.000000000000000000e+00,7.000000000000000000e+00
1.800900000000000000e+04,-2.000000000000000164e-05,0.000000000000000000e+00,4.000000000000000327e-05,2.399999999999999790e-04,1.000000000000000048e-04,2.999999999999999737e-04,1.000000000000000048e-04,-5.999999999999999474e-05,4.000000000000000000e+00,7.000000000000000000e+00
1.801000000000000000e+04,-2.000000000000000164e-05,0.000000000000000000e+00,4.000000000000000327e-05,2.399999999999999790e-04,1.000000000000000048e-04,2.999999999999999737e-04,1.000000000000000048e-04,-5.999999999999999474e-05,4.000000000000000000e+00,7.000000000000000000e+00
1.801100000000000000e+04,-2.000000000000000164e-05,0.000000000000000000e+00,4.000000000000000327e-05,2.399999999999999790e-04,1.000000000000000048e-04,2.999999999999999737e-04,1.000000000000000048e-04,-5.999999999999999474e-05,4.000000000000000000e+00,7.000000000000000000e+00
1.801200000000000000e+04,-2.000000000000000164e-05,0.000000000000000000e+00,4.000000000000000327e-05,2.399999999999999790e-04,1.000000000000000048e-04,2.999999999999999737e-04,1.000000000000000048e-04,-5.999999999999999474e-05,4.000000000000000000e+00,7.000000000000000000e+00
1.801300000000000000e+04,-2.000000000000000164e-05,0.000000000000000000e+00,4.000000000000000327e-05,2.399999999999999790e-04,1.000000000000000048e-04,2.999999999999999737e-04,1.000000000000000048e-04,-5.999999999999999474e-05,4.000000000000000000e+00,7.000000000000000000e+00
1.801400000000000000e+04,-2.000000000000000164e-05,0.000000000000000000e+00,4.000000000000000327e-05,2.399999999999999790e-04,1.000000000000000048e-04,2.999999999999999737e-04,1.000000000000000048e-04,-5.999999999999999474e-05,4.000000000000000000e+00,7.000000000000000000e+00
1.801500000000000000e+04,-2.000000000000000164e-05,0.000000000000000000e+00,4.000000000000000327e-05,2.399999999999999790e-04,1.000000000000000048e-04,2.999999999999999737e-04,1.000000000000000048e-04,-5.999999999999999474e-05,4.000000000000000000e+00,7.000000000000000000e+00
1.801600000000000000e+04,-2.000000000000000164e-05,0.000000000000000000e+00,4.000000000000000327e-05,2.399999999999999790e-04,1.000000000000000048e-04,2.999999999999999737e-04,1.000000000000000048e-04,-5.999999999999999474e-05,4.000000000000000000e+00,7.000000000000000000e+00
1.801700000000000000e+04,-2.000000000000000164e-05,0.000000000000000000e+00,4.000000000000000327e-05,2.399999999999999790e-04,1.000000000000000048e-04,2.999999999999999737e-04,1.000000000000000048e-04,-5.999999999999999474e-05,4.000000000000000000e+00,7.000000000000000000e+00
1.801800000000000000e+04,-2.000000000000000164e-05,0.000000000000000000e+00,4.000000000000000327e-05,2.399999999999999790e-04,1.000000000000000048e-04,2.999999999999999737e-04,1.000000000000000048e-04,-5.999999999999999474e-05,4.000000000000000000e+00,7.000000000000000000e+00
1.801900000000000000e+04,-2.000000000000000164e-05,0.000000000000000000e+00,4.000000000000000327e-05,2.399999999999999790e-04,1.000000000000000048e-04,2.999999999999999737e-04,1.000000000000000048e-04,-5.999999999999999474e-05,4.000000000000000000e+00,7.000000000000000000e+00
1.802000000000000000e+04,-2.000000000000000164e-05,0.000000000000000000e+00,4.000000000000000327e-05,2.399999999999999790e-04,1.000000000000000048e-04,2.999999999999999737e-04,1.000000000000000048e-04,-5.999999999999999474e-05,4.000000000000000000e+00,7.000000000000000000e+00
1.802100000000000000e+04,-2.000000000000000164e-05,0.000000000000000000e+00,4.000000000000000327e-05,2.399999999999999790e-04,1.000000000000000048e-04,2.999999999999999737e-04,1.000000000000000048e-04,-5.999999999999999474e-05,4.000000000000000000e+00,7.000000000000000000e+00
1.802200000000000000e+04,-2.000000000000000164e-05,0.000000000000000000e+00,4.000000000000000327e-05,2.399999999999999790e-04,1.000000000000000048e-04,2.999999999999999737e-04,1.000000000000000048e-04,-5.999999999999999474e-05,4.000000000000000000e+00,7.000000000000000000e+00
1.802300000000000000e+04,2.999999999999999737e-05,5.999999999999999474e-05,1.399999999999999877e-04,3.200000000000000262e-04,0.000000000000000000e+00,-1.000000000000000048e-04,4.000000000000000327e-05,0.000000000000000000e+00,4.000000000000000000e+00,7.000000000000000000e+00
1.802400000000000000e+04,1.000000000000000082e-05,-2.999999999999999737e-05,-8.000000000000000654e-05,-2.999999999999999737e-04,-3.799999999999999667e-04,4.000000000000000327e-05,1.300000000000000157e-04,3.600000000000000227e-04,4.000000000000000000e+00,7.000000000000000000e+00
1.802500000000000000e+04,1.000000000000000082e-05,-2.999999999999999737e-05,-8.000000000000000654e-05,-2.999999999999999737e-04,-3.799999999999999667e-04,4.000000000000000327e-05,1.300000000000000157e-04,3.600000000000000227e-04,4.000000000000000000e+00,7.000000000000000000e+00
1.802600000000000000e+04,1.000000000000000082e-05,-2.999999999999999737e-05,-8.000000000000000654e-05,-2.999999999999999737e-04,-3.799999999999999667e-04,4.000000000000000327e-05,1.300000000000000157e-04,3.600000000000000227e-04,4.000000000000000000e+00,7.000000000000000000e+00
1.802700000000000000e+04,1.000000000000000082e-05,-2.999999999999999737e-05,-8.000000000000000654e-05,-2.999999999999999737e-04,-3.799999999999999667e-04,4.000000000000000327e-05,1.300000000000000157e-04,3.600000000000000227e-04,4.000000000000000000e+00,7.000000000000000000e+00
1.802800000000000000e+04,1.000000000000000082e-05,-2.999999999999999737e-05,-8.000000000000000654e-05,-2.999999999999999737e-04,-3.799999999999999667e-04,4.000000000000000327e-05,1.300000000000000157e-04,3.600000000000000227e-04,4.000000000000000000e+00,7.000000000000000000e+00
1.802900000000000000e+04,1.000000000000000082e-05,-2.999999999999999737e-05,-8.000000000000000654e-05,-2.999999999999999737e-04,-3.799999999999999667e-04,4.000000000000000327e-05,1.300000000000000157e-04,3.600000000000000227e-04,4.000000000000000000e+00,7.000000000000000000e+00
1.803000000000000000e+04,1.000000000000000082e-05,-2.999999999999999737e-05,-8.000000000000000654e-05,-2.999999999999999737e-04,-3.799999999999999667e-04,4.000000000000000327e-05,1.300000000000000157e-04,3.600000000000000227e-04,4.000000000000000000e+00,7.000000000000000000e+00
1.803100000000000000e+04,1.000000000000000082e-05,-2.999999999999999737e-05,-8.000000000000000654e-05,-2.999999999999999737e-04,-3.799999999999999667e-04,4.000000000000000327e-05,1.300000000000000157e-04,3.600000000000000227e-04,4.000000000000000000e+00,7.000000000000000000e+00
1.803200000000000000e+04,1.000000000000000082e-05,-2.999999999999999737e-05,-8.000000000000000654e-05,-2.999999999999999737e-04,-3.799999999999999667e-04,4.000000000000000327e-05,1.300000000000000157e-04,3.600000000000000227e-04,4.000000000000000000e+00,7.000000000000000000e+00
1.803300000000000000e+04,1.000000000000000082e-05,-2.999999999999999737e-05,-8.000000000000000654e-05,-2.999999999999999737e-04,-3.799999999999999667e-04,4.000000000000000327e-05,1.300000000000000157e-04,3.600000000000000227e-04,4.000000000000000000e+00,7.000000000000000000e+00
1.803400000000000000e+04,1.000000000000000082e-05,-2.999999999999999737e-05,-8.000000000000000654e-05,-2.999999999999999737e-04,-3.799999999999999667e-04,4.000000000000000327e-05,1.300000000000000157e-04,3.600000000000000227e-04,4.000000000000000000e+00,7.000000000000000000e+00
1.803500000000000000e+04,1.000000000000000082e-05,-2.999999999999999737e-05,-8.000000000000000654e-05,-2.999999999999999737e-04,-3.799999999999999667e-04,4.000000000000000327e-05,1.300000000000000157e-04,3.600000000000000227e-04,4.000000000000000000e+00,7.000000000000000000e+00
1.803600000000000000e+04,1.000000000000000082e-05,-2.999999999999999737e-05,-8.000000000000000654e-05,-2.999999999999999737e-04,-3.799999999999999667e-04,4.000000000000000327e-05,1.300000000000000157e-04,3.600000000000000227e-04,4.000000000000000000e+00,7.000000000000000000e+00
1.803900000000000000e+04,-2.000000000000000164e-05,-1.000000000000000082e-05,-2.000000000000000164e-05,-6.999999999999999387e-05,-2.200000000000000078e-04,-2.600000000000000314e-04,-1.000000000000000082e-05,2.999999999999999737e-05,4.000000000000000000e+00,7.000000000000000000e+00
1.804000000000000000e+04,-2.000000000000000164e-05,-1.000000000000000082e-05,-2.000000000000000164e-05,-6.999999999999999387e-05,-2.200000000000000078e-04,-2.600000000000000314e-04,-1.000000000000000082e-05,2.999999999999999737e-05,4.000000000000000000e+00,7.000000000000000000e+00
1.804100000000000000e+04,-2.000000000000000164e-05,-1.000000000000000082e-05,-2.000000000000000164e-05,-6.999999999999999387e-05,-2.200000000000000078e-04,-2.600000000000000314e-04,-1.000000000000000082e-05,2.999999999999999737e-05,4.000000000000000000e+00,7.000000000000000000e+00
1.804200000000000000e+04,-2.000000000000000164e-05,-1.000000000000000082e-05,-2.000000000000000164e-05,-6.999999999999999387e-05,-2.200000000000000078e-04,-2.600000000000000314e-04,-1.000000000000000082e-05,2.999999999999999737e-05,4.000000000000000000e+00,7.000000000000000000e+00
1.804300000000000000e+04,-2.000000000000000164e-05,-1.000000000000000082e-05,-2.000000000000000164e-05,-6.999999999999999387e-05,-2.200000000000000078e-04,-2.600000000000000314e-04,-1.000000000000000082e-05,2.999999999999999737e-05,4.000000000000000000e+00,7.000000000000000000e+00
1.804400000000000000e+04,-2.000000000000000164e-05,-1.000000000000000082e-05,-2.000000000000000164e-05,-6.999999999999999387e-05,-2.200000000000000078e-04,-2.600000000000000314e-04,-1.000000000000000082e-05,2.999999999999999737e-05,4.000000000000000000e+00,7.000000000000000000e+00
1.804500000000000000e+04,-2.000000000000000164e-05,-1.000000000000000082e-05,-2.000000000000000164e-05,-6.999999999999999387e-05,-2.200000000000000078e-04,-2.600000000000000314e-04,-1.000000000000000082e-05,2.999999999999999737e-05,4.000000000000000000e+00,7.000000000000000000e+00
1.804600000000000000e+04,-2.000000000000000164e-05,-1.000000000000000082e-05,-2.000000000000000164e-05,-6.999999999999999387e-05,-2.200000000000000078e-04,-2.600000000000000314e-04,-1.000000000000000082e-05,2.999999999999999737e-05,4.000000000000000000e+00,7.000000000000000000e+00
1.804700000000000000e+04,-2.000000000000000164e-05,-1.000000000000000082e-05,-2.000000000000000164e-05,-6.999999999999999387e-05,-2.200000000000000078e-04,-2.600000000000000314e-04,-1.000000000000000082e-05,2.999999999999999737e-05,4.000000000000000000e+00,7.000000000000000000e+00
1.804800000000000000e+04,-2.000000000000000164e-05,-1.000000000000000082e-05,-2.000000000000000164e-05,-6.999999999999999387e-05,-2.200000000000000078e-04,-2.600000000000000314e-04,-1.000000000000000082e-05,2.999999999999999737e-05,4.000000000000000000e+00,7.000000000000000000e+00
1.804900000000000000e+04,-2.000000000000000164e-05,-1.000000000000000082e-05,-2.000000000000000164e-05,-6.999999999999999387e-05,-2.200000000000000078e-04,-2.600000000000000314e-04,-1.000000000000000082e-05,2.999999999999999737e-05,4.000000000000000000e+00,7.000000000000000000e+00
1.805000000000000000e+04,-2.000000000000000164e-05,-1.000000000000000082e-05,-2.000000000000000164e-05,-6.999999999999999387e-05,-2.200000000000000078e-04,-2.600000000000000314e-04,-1.000000000000000082e-05,2.999999999999999737e-05,4.000000000000000000e+00,7.000000000000000000e+00
1.805100000000000000e+04,-2.000000000000000164e-05,-1.000000000000000082e-05,-2.000000000000000164e-05,-6.999999999999999387e-05,-2.200000000000000078e-04,-2.600000000000000314e-04,-1.000000000000000082e-05,2.999999999999999737e-05,4.000000000000000000e+00,7.000000000000000000e+00
1.805200000000000000e+04,-2.000000000000000164e-05,-1.000000000000000082e-05,-2.000000000000000164e-05,-6.999999999999999387e-05,-2.200000000000000078e-04,-2.600000000000000314e-04,-1.000000000000000082e-05,2.999999999999999737e-05,4.000000000000000000e+00,7.000000000000000000e+00
1.805300000000000000e+04,-2.000000000000000164e-05,-1.000000000000000082e-05,-2.000000000000000164e-05,-6.999999999999999387e-05,-2.200000000000000078e-04,-2.600000000000000314e-04,-1.000000000000000082e-05,2.999999999999999737e-05,4.000000000000000000e+00,7.000000000000000000e+00
1.805400000000000000e+04,-2.000000000000000164e-05,-1.000000000000000082e-05,-2.000000000000000164e-05,-6.999999999999999387e-05,-2.200000000000000078e-04,-2.600000000000000314e-04,-1.000000000000000082e-05,2.999999999999999737e-05,4.000000000000000000e+00,7.000000000000000000e+00
1.805500000000000000e+04,-2.000000000000000164e-05,-1.000000000000000082e-05,-2.000000000000000164e-05,-6.999999999999999387e-05,-2.200000000000000078e-04,-2.600000000000000314e-04,-1.000000000000000082e-05,2.999999999999999737e-05,4.000000000000000000e+00,7.000000000000000000e+00
1.805600000000000000e+04,-2.000000000000000164e-05,-1.000000000000000082e-05,-2.000000000000000164e-05,-6.999999999999999387e-05,-2.200000000000000078e-04,-2.600000000000000314e-04,-1.000000000000000082e-05,2.999999999999999737e-05,4.000000000000000000e+00,7.000000000000000000e+00
1.805700000000000000e+04,-2.000000000000000164e-05,-1.000000000000000082e-05,-2.000000000000000164e-05,-6.999999999999999387e-05,-2.200000000000000078e-04,-2.600000000000000314e-04,-1.000000000000000082e-05,2.999999999999999737e-05,4.000000000000000000e+00,7.000000000000000000e+00
1.805800000000000000e+04,-2.000000000000000164e-05,-1.000000000000000082e-05,-2.000000000000000164e-05,-6.999999999999999387e-05,-2.200000000000000078e-04,-2.600000000000000314e-04,-1.000000000000000082e-05,2.999999999999999737e-05,4.000000000000000000e+00,7.000000000000000000e+00
1.805900000000000000e+04,-2.000000000000000164e-05,-1.000000000000000082e-05,-2.000000000000000164e-05,-6.999999999999999387e-05,-2.200000000000000078e-04,-2.600000000000000314e-04,-1.000000000000000082e-05,2.999999999999999737e-05,4.000000000000000000e+00,7.000000000000000000e+00
1.806000000000000000e+04,-2.000000000000000164e-05,-1.000000000000000082e-05,-2.000000000000000164e-05,-6.999999999999999387e-05,-2.200000000000000078e-04,-2.600000000000000314e-04,-1.000000000000000082e-05,2.999999999999999737e-05,4.000000000000000000e+00,7.000000000000000000e+00
1.806100000000000000e+04,-2.000000000000000164e-05,-1.000000000000000082e-05,-2.000000000000000164e-05,-6.999999999999999387e-05,-2.200000000000000078e-04,-2.600000000000000314e-04,-1.000000000000000082e-05,2.999999999999999737e-05,4.000000000000000000e+00,7.000000000000000000e+00
1.806200000000000000e+04,-5.999999999999999474e-05,-1.100000000000000039e-04,-1.300000000000000157e-04,-2.700000000000000035e-04,1.800000000000000113e-04,2.000000000000000164e-05,-4.000000000000000327e-05,-5.000000000000000240e-05,4.000000000000000000e+00,7.000000000000000000e+00
1.806300000000000000e+04,9.000000000000000567e-05,1.699999999999999851e-04,1.000000000000000048e-04,-1.800000000000000113e-04,-3.099999999999999999e-04,2.200000000000000078e-04,5.999999999999999474e-05,1.000000000000000082e-05,4.000000000000000000e+00,7.000000000000000000e+00
1.806400000000000000e+04,9.000000000000000567e-05,1.699999999999999851e-04,1.000000000000000048e-04,-1.800000000000000113e-04,-3.099999999999999999e-04,2.200000000000000078e-04,5.999999999999999474e-05,1.000000000000000082e-05,4.000000000000000000e+00,7.000000000000000000e+00
1.806500000000000000e+04,9.000000000000000567e-05,1.699999999999999851e-04,1.000000000000000048e-04,-1.800000000000000113e-04,-3.099999999999999999e-04,2.200000000000000078e-04,5.999999999999999474e-05,1.000000000000000082e-05,4.000000000000000000e+00,7.000000000000000000e+00
1.806600000000000000e+04,9.000000000000000567e-05,1.699999999999999851e-04,1.000000000000000048e-04,-1.800000000000000113e-04,-3.099999999999999999e-04,2.200000000000000078e-04,5.999999999999999474e-05,1.000000000000000082e-05,4.000000000000000000e+00,7.000000000000000000e+00
1.806700000000000000e+04,9.000000000000000567e-05,1.699999999999999851e-04,1.000000000000000048e-04,-1.800000000000000113e-04,-3.099999999999999999e-04,2.200000000000000078e-04,5.999999999999999474e-05,1.000000000000000082e-05,4.000000000000000000e+00,7.000000000000000000e+00
1.806800000000000000e+04,9.000000000000000567e-05,1.699999999999999851e-04,1.000000000000000048e-04,-1.800000000000000113e-04,-3.099999999999999999e-04,2.200000000000000078e-04,5.999999999999999474e-05,1.000000000000000082e-05,4.000000000000000000e+00,7.000000000000000000e+00
1.806900000000000000e+04,9.000000000000000567e-05,1.699999999999999851e-04,1.000000000000000048e-04,-1.800000000000000113e-04,-3.099999999999999999e-04,2.200000000000000078e-04,5.999999999999999474e-05,1.000000000000000082e-05,4.000000000000000000e+00,7.000000000000000000e+00
1.807000000000000000e+04,9.000000000000000567e-05,1.699999999999999851e-04,1.000000000000000048e-04,-1.800000000000000113e-04,-3.099999999999999999e-04,2.200000000000000078e-04,5.999999999999999474e-05,1.000000000000000082e-05,4.000000000000000000e+00,7.000000000000000000e+00
1.807100000000000000e+04,9.000000000000000567e-05,1.699999999999999851e-04,1.000000000000000048e-04,-1.800000000000000113e-04,-3.099999999999999999e-04,2.200000000000000078e-04,5.999999999999999474e-05,1.000000000000000082e-05,4.000000000000000000e+00,7.000000000000000000e+00
1.807200000000000000e+04,9.000000000000000567e-05,1.699999999999999851e-04,1.000000000000000048e-04,-1.800000000000000113e-04,-3.099999999999999999e-04,2.200000000000000078e-04,5.999999999999999474e-05,1.000000000000000082e-05,4.000000000000000000e+00,7.000000000000000000e+00
1.807300000000000000e+04,9.000000000000000567e-05,1.699999999999999851e-04,1.000000000000000048e-04,-1.800000000000000113e-04,-3.099999999999999999e-04,2.200000000000000078e-04,5.999999999999999474e-05,1.000000000000000082e-05,4.000000000000000000e+00,7.000000000000000000e+00
1.807400000000000000e+04,9.000000000000000567e-05,1.699999999999999851e-04,1.000000000000000048e-04,-1.800000000000000113e-04,-3.099999999999999999e-04,2.200000000000000078e-04,5.999999999999999474e-05,1.000000000000000082e-05,4.000000000000000000e+00,7.000000000000000000e+00
1.807500000000000000e+04,9.000000000000000567e-05,1.699999999999999851e-04,1.000000000000000048e-04,-1.800000000000000113e-04,-3.099999999999999999e-04,2.200000000000000078e-04,5.999999999999999474e-05,1.000000000000000082e-05,4.000000000000000000e+00,7.000000000000000000e+00
1.807600000000000000e+04,9.000000000000000567e-05,1.699999999999999851e-04,1.000000000000000048e-04,-1.800000000000000113e-04,-3.099999999999999999e-04,2.200000000000000078e-04,5.999999999999999474e-05,1.000000000000000082e-05,4.000000000000000000e+00,7.000000000000000000e+00
1.807700000000000000e+04,9.000000000000000567e-05,1.699999999999999851e-04,1.000000000000000048e-04,-1.800000000000000113e-04,-3.099999999999999999e-04,2.200000000000000078e-04,5.999999999999999474e-05,1.000000000000000082e-05,4.000000000000000000e+00,7.000000000000000000e+00
1.807800000000000000e+04,9.000000000000000567e-05,1.699999999999999851e-04,1.000000000000000048e-04,-1.800000000000000113e-04,-3.099999999999999999e-04,2.200000000000000078e-04,5.999999999999999474e-05,1.000000000000000082e-05,4.000000000000000000e+00,7.000000000000000000e+00
1.807900000000000000e+04,9.000000000000000567e-05,1.699999999999999851e-04,1.000000000000000048e-04,-1.800000000000000113e-04,-3.099999999999999999e-04,2.200000000000000078e-04,5.999999999999999474e-05,1.000000000000000082e-05,4.000000000000000000e+00,7.000000000000000000e+00
1.808000000000000000e+04,9.000000000000000567e-05,1.699999999999999851e-04,1.000000000000000048e-04,-1.800000000000000113e-04,-3.099999999999999999e-04,2.200000000000000078e-04,5.999999999999999474e-05,1.000000000000000082e-05,4.000000000000000000e+00,7.000000000000000000e+00
1.808100000000000000e+04,9.000000000000000567e-05,1.699999999999999851e-04,1.000000000000000048e-04,-1.800000000000000113e-04,-3.099999999999999999e-04,2.200000000000000078e-04,5.999999999999999474e-05,1.000000000000000082e-05,4.000000000000000000e+00,7.000000000000000000e+00
1.808200000000000000e+04,9.000000000000000567e-05,1.699999999999999851e-04,1.000000000000000048e-04,-1.800000000000000113e-04,-3.099999999999999999e-04,2.200000000000000078e-04,5.999999999999999474e-05,1.000000000000000082e-05,4.000000000000000000e+00,7.000000000000000000e+00
1.808300000000000000e+04,-1.000000000000000082e-05,1.000000000000000082e-05,9.000000000000000567e-05,-2.999999999999999737e-05,-2.299999999999999799e-04,-2.799999999999999755e-04,-1.000000000000000082e-05,-8.000000000000000654e-05,4.000000000000000000e+00,7.000000000000000000e+00
1.808400000000000000e+04,-9.000000000000000567e-05,-1.699999999999999851e-04,-1.600000000000000131e-04,-2.999999999999999737e-05,-4.799999999999999580e-04,-8.900000000000000576e-04,-2.600000000000000314e-04,-2.999999999999999737e-05,4.000000000000000000e+00,7.000000000000000000e+00
1.808500000000000000e+04,-9.000000000000000567e-05,-1.699999999999999851e-04,-1.600000000000000131e-04,-2.999999999999999737e-05,-4.799999999999999580e-04,-8.900000000000000576e-04,-2.600000000000000314e-04,-2.999999999999999737e-05,4.000000000000000000e+00,7.000000000000000000e+00
1.808600000000000000e+04,-9.000000000000000567e-05,-1.699999999999999851e-04,-1.600000000000000131e-04,-2.999999999999999737e-05,-4.799999999999999580e-04,-8.900000000000000576e-04,-2.600000000000000314e-04,-2.999999999999999737e-05,4.000000000000000000e+00,7.000000000000000000e+00
1.808900000000000000e+04,-9.000000000000000567e-05,-1.699999999999999851e-04,-1.600000000000000131e-04,-2.999999999999999737e-05,-4.799999999999999580e-04,-8.900000000000000576e-04,-2.600000000000000314e-04,-2.999999999999999737e-05,4.000000000000000000e+00,7.000000000000000000e+00
1.809000000000000000e+04,-9.000000000000000567e-05,-1.699999999999999851e-04,-1.600000000000000131e-04,-2.999999999999999737e-05,-4.799999999999999580e-04,-8.900000000000000576e-04,-2.600000000000000314e-04,-2.999999999999999737e-05,4.000000000000000000e+00,7.000000000000000000e+00
1.809100000000000000e+04,-9.000000000000000567e-05,-1.699999999999999851e-04,-1.600000000000000131e-04,-2.999999999999999737e-05,-4.799999999999999580e-04,-8.900000000000000576e-04,-2.600000000000000314e-04,-2.999999999999999737e-05,4.000000000000000000e+00,7.000000000000000000e+00
1.809200000000000000e+04,-9.000000000000000567e-05,-1.699999999999999851e-04,-1.600000000000000131e-04,-2.999999999999999737e-05,-4.799999999999999580e-04,-8.900000000000000576e-04,-2.600000000000000314e-04,-2.999999999999999737e-05,4.000000000000000000e+00,7.000000000000000000e+00
1.809300000000000000e+04,-9.000000000000000567e-05,-1.699999999999999851e-04,-1.600000000000000131e-04,-2.999999999999999737e-05,-4.799999999999999580e-04,-8.900000000000000576e-04,-2.600000000000000314e-04,-2.999999999999999737e-05,4.000000000000000000e+00,7.000000000000000000e+00
1.809400000000000000e+04,-9.000000000000000567e-05,-1.699999999999999851e-04,-1.600000000000000131e-04,-2.999999999999999737e-05,-4.799999999999999580e-04,-8.900000000000000576e-04,-2.600000000000000314e-04,-2.999999999999999737e-05,4.000000000000000000e+00,7.000000000000000000e+00
1.809500000000000000e+04,-9.000000000000000567e-05,-1.699999999999999851e-04,-1.600000000000000131e-04,-2.999999999999999737e-05,-4.799999999999999580e-04,-8.900000000000000576e-04,-2.600000000000000314e-04,-2.999999999999999737e-05,4.000000000000000000e+00,7.000000000000000000e+00
1.809600000000000000e+04,-9.000000000000000567e-05,-1.699999999999999851e-04,-1.600000000000000131e-04,-2.999999999999999737e-05,-4.799999999999999580e-04,-8.900000000000000576e-04,-2.600000000000000314e-04,-2.999999999999999737e-05,4.000000000000000000e+00,7.000000000000000000e+00
1.809700000000000000e+04,4.000000000000000327e-05,2.999999999999999737e-05,2.000000000000000164e-05,-2.999999999999999737e-05,6.999999999999999387e-05,4.799999999999999580e-04,1.300000000000000157e-04,6.999999999999999387e-05,4.000000000000000000e+00,7.000000000000000000e+00
1.809800000000000000e+04,-2.000000000000000164e-05,0.000000000000000000e+00,4.000000000000000327e-05,1.899999999999999834e-04,-1.899999999999999834e-04,-1.000000000000000048e-04,-5.000000000000000240e-05,8.000000000000000654e-05,4.000000000000000000e+00,7.000000000000000000e+00
1.809900000000000000e+04,-2.000000000000000164e-05,0.000000000000000000e+00,4.000000000000000327e-05,1.899999999999999834e-04,-1.899999999999999834e-04,-1.000000000000000048e-04,-5.000000000000000240e-05,8.000000000000000654e-05,4.000000000000000000e+00,7.000000000000000000e+00
1.810000000000000000e+04,-2.000000000000000164e-05,0.000000000000000000e+00,4.000000000000000327e-05,1.899999999999999834e-04,-1.899999999999999834e-04,-1.000000000000000048e-04,-5.000000000000000240e-05,8.000000000000000654e-05,4.000000000000000000e+00,7.000000000000000000e+00
1.810100000000000000e+04,-2.000000000000000164e-05,0.000000000000000000e+00,4.000000000000000327e-05,1.899999999999999834e-04,-1.899999999999999834e-04,-1.000000000000000048e-04,-5.000000000000000240e-05,8.000000000000000654e-05,4.000000000000000000e+00,7.000000000000000000e+00
1.810200000000000000e+04,-2.000000000000000164e-05,0.000000000000000000e+00,4.000000000000000327e-05,1.899999999999999834e-04,-1.899999999999999834e-04,-1.000000000000000048e-04,-5.000000000000000240e-05,8.000000000000000654e-05,4.000000000000000000e+00,7.000000000000000000e+00
1.810300000000000000e+04,-2.000000000000000164e-05,0.000000000000000000e+00,4.000000000000000327e-05,1.899999999999999834e-04,-1.899999999999999834e-04,-1.000000000000000048e-04,-5.000000000000000240e-05,8.000000000000000654e-05,4.000000000000000000e+00,7.000000000000000000e+00
1.810400000000000000e+04,-2.000000000000000164e-05,0.000000000000000000e+00,4.000000000000000327e-05,1.899999999999999834e-04,-1.899999999999999834e-04,-1.000000000000000048e-04,-5.000000000000000240e-05,8.000000000000000654e-05,4.000000000000000000e+00,7.000000000000000000e+00
1.810500000000000000e+04,-2.000000000000000164e-05,0.000000000000000000e+00,4.000000000000000327e-05,1.899999999999999834e-04,-1.899999999999999834e-04,-1.000000000000000048e-04,-5.000000000000000240e-05,8.000000000000000654e-05,4.000000000000000000e+00,7.000000000000000000e+00
1.810600000000000000e+04,-2.000000000000000164e-05,0.000000000000000000e+00,4.000000000000000327e-05,1.899999999999999834e-04,-1.899999999999999834e-04,-1.000000000000000048e-04,-5.000000000000000240e-05,8.000000000000000654e-05,4.000000000000000000e+00,7.000000000000000000e+00
1.810700000000000000e+04,-2.000000000000000164e-05,0.000000000000000000e+00,4.000000000000000327e-05,1.899999999999999834e-04,-1.899999999999999834e-04,-1.000000000000000048e-04,-5.000000000000000240e-05,8.000000000000000654e-05,4.000000000000000000e+00,7.000000000000000000e+00
1.810800000000000000e+04,-2.000000000000000164e-05,0.000000000000000000e+00,4.000000000000000327e-05,1.899999999999999834e-04,-1.899999999999999834e-04,-1.000000000000000048e-04,-5.000000000000000240e-05,8.000000000000000654e-05,4.000000000000000000e+00,7.000000000000000000e+00
1.810900000000000000e+04,-2.000000000000000164e-05,0.000000000000000000e+00,4.000000000000000327e-05,1.899999999999999834e-04,-1.899999999999999834e-04,-1.000000000000000048e-04,-5.000000000000000240e-05,8.000000000000000654e-05,4.000000000000000000e+00,7.000000000000000000e+00
1.811000000000000000e+04,-2.000000000000000164e-05,0.000000000000000000e+00,4.000000000000000327e-05,1.899999999999999834e-04,-1.899999999999999834e-04,-1.000000000000000048e-04,-5.000000000000000240e-05,8.000000000000000654e-05,4.000000000000000000e+00,7.000000000000000000e+00
1.811100000000000000e+04,-2.000000000000000164e-05,0.000000000000000000e+00,4.000000000000000327e-05,1.899999999999999834e-04,-1.899999999999999834e-04,-1.000000000000000048e-04,-5.000000000000000240e-05,8.000000000000000654e-05,4.000000000000000000e+00,7.000000000000000000e+00
1.811200000000000000e+04,-2.000000000000000164e-05,0.000000000000000000e+00,4.000000000000000327e-05,1.899999999999999834e-04,-1.899999999999999834e-04,-1.000000000000000048e-04,-5.000000000000000240e-05,8.000000000000000654e-05,4.000000000000000000e+00,7.000000000000000000e+00
1.811300000000000000e+04,-2.000000000000000164e-05,0.000000000000000000e+00,4.000000000000000327e-05,1.899999999999999834e-04,-1.899999999999999834e-04,-1.000000000000000048e-04,-5.000000000000000240e-05,8.000000000000000654e-05,4.000000000000000000e+00,7.000000000000000000e+00
1.811400000000000000e+04,-2.000000000000000164e-05,0.000000000000000000e+00,4.000000000000000327e-05,1.899999999999999834e-04,-1.899999999999999834e-04,-1.000000000000000048e-04,-5.000000000000000240e-05,8.000000000000000654e-05,4.000000000000000000e+00,7.000000000000000000e+00
1.811500000000000000e+04,-2.000000000000000164e-05,0.000000000000000000e+00,4.000000000000000327e-05,1.899999999999999834e-04,-1.899999999999999834e-04,-1.000000000000000048e-04,-5.000000000000000240e-05,8.000000000000000654e-05,4.000000000000000000e+00,7.000000000000000000e+00
1.811600000000000000e+04,-2.000000000000000164e-05,0.000000000000000000e+00,4.000000000000000327e-05,1.899999999999999834e-04,-1.899999999999999834e-04,-1.000000000000000048e-04,-5.000000000000000240e-05,8.000000000000000654e-05,4.000000000000000000e+00,7.000000000000000000e+00
1.811700000000000000e+04,-2.000000000000000164e-05,0.000000000000000000e+00,4.000000000000000327e-05,1.899999999999999834e-04,-1.899999999999999834e-04,-1.000000000000000048e-04,-5.000000000000000240e-05,8.000000000000000654e-05,4.000000000000000000e+00,7.000000000000000000e+00
1.811800000000000000e+04,-2.000000000000000164e-05,0.000000000000000000e+00,4.000000000000000327e-05,1.899999999999999834e-04,-1.899999999999999834e-04,-1.000000000000000048e-04,-5.000000000000000240e-05,8.000000000000000654e-05,4.000000000000000000e+00,7.000000000000000000e+00
1.811900000000000000e+04,-2.000000000000000164e-05,0.000000000000000000e+00,4.000000000000000327e-05,1.899999999999999834e-04,-1.899999999999999834e-04,-1.000000000000000048e-04,-5.000000000000000240e-05,8.000000000000000654e-05,4.000000000000000000e+00,7.000000000000000000e+00
1.812000000000000000e+04,-2.000000000000000164e-05,0.000000000000000000e+00,4.000000000000000327e-05,1.899999999999999834e-04,-1.899999999999999834e-04,-1.000000000000000048e-04,-5.000000000000000240e-05,8.000000000000000654e-05,4.000000000000000000e+00,7.000000000000000000e+00
1.812100000000000000e+04,-1.100000000000000039e-04,-1.300000000000000157e-04,-1.800000000000000113e-04,-3.399999999999999702e-04,-3.600000000000000227e-04,-5.000000000000000240e-05,-5.999999999999999474e-05,-2.999999999999999737e-05,4.000000000000000000e+00,7.000000000000000000e+00
1.812200000000000000e+04,1.399999999999999877e-04,1.800000000000000113e-04,2.299999999999999799e-04,3.099999999999999999e-04,-9.000000000000000567e-05,3.200000000000000262e-04,1.300000000000000157e-04,1.199999999999999895e-04,4.000000000000000000e+00,7.000000000000000000e+00
1.812300000000000000e+04,1.399999999999999877e-04,1.800000000000000113e-04,2.299999999999999799e-04,3.099999999999999999e-04,-9.000000000000000567e-05,3.200000000000000262e-04,1.300000000000000157e-04,1.199999999999999895e-04,4.000000000000000000e+00,7.000000000000000000e+00
1.812400000000000000e+04,1.399999999999999877e-04,1.800000000000000113e-04,2.299999999999999799e-04,3.099999999999999999e-04,-9.000000000000000567e-05,3.200000000000000262e-04,1.300000000000000157e-04,1.199999999999999895e-04,4.000000000000000000e+00,7.000000000000000000e+00
1.812500000000000000e+04,1.399999999999999877e-04,1.800000000000000113e-04,2.299999999999999799e-04,3.099999999999999999e-04,-9.000000000000000567e-05,3.200000000000000262e-04,1.300000000000000157e-04,1.199999999999999895e-04,4.000000000000000000e+00,7.000000000000000000e+00
1.812600000000000000e+04,1.399999999999999877e-04,1.800000000000000113e-04,2.299999999999999799e-04,3.099999999999999999e-04,-9.000000000000000567e-05,3.200000000000000262e-04,1.300000000000000157e-04,1.199999999999999895e-04,4.000000000000000000e+00,7.000000000000000000e+00
1.812700000000000000e+04,1.399999999999999877e-04,1.800000000000000113e-04,2.299999999999999799e-04,3.099999999999999999e-04,-9.000000000000000567e-05,3.200000000000000262e-04,1.300000000000000157e-04,1.199999999999999895e-04,4.000000000000000000e+00,7.000000000000000000e+00
1.812800000000000000e+04,1.399999999999999877e-04,1.800000000000000113e-04,2.299999999999999799e-04,3.099999999999999999e-04,-9.000000000000000567e-05,3.200000000000000262e-04,1.300000000000000157e-04,1.199999999999999895e-04,4.000000000000000000e+00,7.000000000000000000e+00
1.812900000000000000e+04,1.399999999999999877e-04,1.800000000000000113e-04,2.299999999999999799e-04,3.099999999999999999e-04,-9.000000000000000567e-05,3.200000000000000262e-04,1.300000000000000157e-04,1.199999999999999895e-04,4.000000000000000000e+00,7.000000000000000000e+00
1.813000000000000000e+04,1.399999999999999877e-04,1.800000000000000113e-04,2.299999999999999799e-04,3.099999999999999999e-04,-9.000000000000000567e-05,3.200000000000000262e-04,1.300000000000000157e-04,1.199999999999999895e-04,4.000000000000000000e+00,7.000000000000000000e+00
1.813100000000000000e+04,1.399999999999999877e-04,1.800000000000000113e-04,2.299999999999999799e-04,3.099999999999999999e-04,-9.000000000000000567e-05,3.200000000000000262e-04,1.300000000000000157e-04,1.199999999999999895e-04,4.000000000000000000e+00,7.000000000000000000e+00
1.813200000000000000e+04,1.399999999999999877e-04,1.800000000000000113e-04,2.299999999999999799e-04,3.099999999999999999e-04,-9.000000000000000567e-05,3.200000000000000262e-04,1.300000000000000157e-04,1.199999999999999895e-04,4.000000000000000000e+00,7.000000000000000000e+00
1.813300000000000000e+04,1.399999999999999877e-04,1.800000000000000113e-04,2.299999999999999799e-04,3.099999999999999999e-04,-9.000000000000000567e-05,3.200000000000000262e-04,1.300000000000000157e-04,1.199999999999999895e-04,4.000000000000000000e+00,7.000000000000000000e+00
1.813400000000000000e+04,1.399999999999999877e-04,1.800000000000000113e-04,2.299999999999999799e-04,3.099999999999999999e-04,-9.000000000000000567e-05,3.200000000000000262e-04,1.300000000000000157e-04,1.199999999999999895e-04,4.000000000000000000e+00,7.000000000000000000e+00
1.813500000000000000e+04,1.399999999999999877e-04,1.800000000000000113e-04,2.299999999999999799e-04,3.099999999999999999e-04,-9.000000000000000567e-05,3.200000000000000262e-04,1.300000000000000157e-04,1.199999999999999895e-04,4.000000000000000000e+00,7.000000000000000000e+00
1.813600000000000000e+04,1.399999999999999877e-04,1.800000000000000113e-04,2.299999999999999799e-04,3.099999999999999999e-04,-9.000000000000000567e-05,3.200000000000000262e-04,1.300000000000000157e-04,1.199999999999999895e-04,4.000000000000000000e+00,7.000000000000000000e+00
1.814000000000000000e+04,1.399999999999999877e-04,1.800000000000000113e-04,2.299999999999999799e-04,3.099999999999999999e-04,-9.000000000000000567e-05,3.200000000000000262e-04,1.300000000000000157e-04,1.199999999999999895e-04,4.000000000000000000e+00,7.000000000000000000e+00
1.814100000000000000e+04,1.399999999999999877e-04,1.800000000000000113e-04,2.299999999999999799e-04,3.099999999999999999e-04,-9.000000000000000567e-05,3.200000000000000262e-04,1.300000000000000157e-04,1.199999999999999895e-04,4.000000000000000000e+00,7.000000000000000000e+00
1.814200000000000000e+04,1.399999999999999877e-04,1.800000000000000113e-04,2.299999999999999799e-04,3.099999999999999999e-04,-9.000000000000000567e-05,3.200000000000000262e-04,1.300000000000000157e-04,1.199999999999999895e-04,4.000000000000000000e+00,7.000000000000000000e+00
1.814300000000000000e+04,-4.000000000000000327e-05,-4.000000000000000327e-05,-5.000000000000000240e-05,5.000000000000000240e-05,1.600000000000000131e-04,-8.000000000000000654e-05,1.000000000000000082e-05,-1.399999999999999877e-04,4.000000000000000000e+00,7.000000000000000000e+00
1.814400000000000000e+04,8.000000000000000654e-05,2.999999999999999737e-05,1.100000000000000039e-04,1.000000000000000082e-05,4.799999999999999580e-04,3.499999999999999964e-04,2.900000000000000017e-04,2.399999999999999790e-04,4.000000000000000000e+00,7.000000000000000000e+00
1.814500000000000000e+04,8.000000000000000654e-05,2.999999999999999737e-05,1.100000000000000039e-04,1.000000000000000082e-05,4.799999999999999580e-04,3.499999999999999964e-04,2.900000000000000017e-04,2.399999999999999790e-04,4.000000000000000000e+00,7.000000000000000000e+00
1.814600000000000000e+04,8.000000000000000654e-05,2.999999999999999737e-05,1.100000000000000039e-04,1.000000000000000082e-05,4.799999999999999580e-04,3.499999999999999964e-04,2.900000000000000017e-04,2.399999999999999790e-04,4.000000000000000000e+00,7.000000000000000000e+00
1.814700000000000000e+04,8.000000000000000654e-05,2.999999999999999737e-05,1.100000000000000039e-04,1.000000000000000082e-05,4.799999999999999580e-04,3.499999999999999964e-04,2.900000000000000017e-04,2.399999999999999790e-04,4.000000000000000000e+00,7.000000000000000000e+00
1.814800000000000000e+04,8.000000000000000654e-05,2.999999999999999737e-05,1.100000000000000039e-04,1.000000000000000082e-05,4.799999999999999580e-04,3.499999999999999964e-04,2.900000000000000017e-04,2.399999999999999790e-04,4.000000000000000000e+00,7.000000000000000000e+00
1.814900000000000000e+04,8.000000000000000654e-05,2.999999999999999737e-05,1.100000000000000039e-04,1.000000000000000082e-05,4.799999999999999580e-04,3.499999999999999964e-04,2.900000000000000017e-04,2.399999999999999790e-04,4.000000000000000000e+00,7.000000000000000000e+00
1.815000000000000000e+04,8.000000000000000654e-05,2.999999999999999737e-05,1.100000000000000039e-04,1.000000000000000082e-05,4.799999999999999580e-04,3.499999999999999964e-04,2.900000000000000017e-04,2.399999999999999790e-04,4.000000000000000000e+00,7.000000000000000000e+00
1.815100000000000000e+04,8.000000000000000654e-05,2.999999999999999737e-05,1.100000000000000039e-04,1.000000000000000082e-05,4.799999999999999580e-04,3.499999999999999964e-04,2.900000000000000017e-04,2.399999999999999790e-04,4.000000000000000000e+00,7.000000000000000000e+00
1.815200000000000000e+04,8.000000000000000654e-05,2.999999999999999737e-05,1.100000000000000039e-04,1.000000000000000082e-05,4.799999999999999580e-04,3.499999999999999964e-04,2.900000000000000017e-04,2.399999999999999790e-04,4.000000000000000000e+00,7.000000000000000000e+00
1.815300000000000000e+04,8.000000000000000654e-05,2.999999999999999737e-05,1.100000000000000039e-04,1.000000000000000082e-05,4.799999999999999580e-04,3.499999999999999964e-04,2.900000000000000017e-04,2.399999999999999790e-04,4.000000000000000000e+00,7.000000000000000000e+00
1.815400000000000000e+04,8.000000000000000654e-05,2.999999999999999737e-05,1.100000000000000039e-04,1.000000000000000082e-05,4.799999999999999580e-04,3.499999999999999964e-04,2.900000000000000017e-04,2.399999999999999790e-04,4.000000000000000000e+00,7.000000000000000000e+00
1.815500000000000000e+04,8.000000000000000654e-05,2.999999999999999737e-05,1.100000000000000039e-04,1.000000000000000082e-05,4.799999999999999580e-04,3.499999999999999964e-04,2.900000000000000017e-04,2.399999999999999790e-04,4.000000000000000000e+00,7.000000000000000000e+00
1.815600000000000000e+04,8.000000000000000654e-05,2.999999999999999737e-05,1.100000000000000039e-04,1.000000000000000082e-05,4.799999999999999580e-04,3.499999999999999964e-04,2.900000000000000017e-04,2.399999999999999790e-04,4.000000000000000000e+00,7.000000000000000000e+00
1.815700000000000000e+04,4.000000000000000327e-05,5.000000000000000240e-05,4.000000000000000327e-05,-1.399999999999999877e-04,-1.399999999999999877e-04,-1.499999999999999869e-04,8.000000000000000654e-05,5.000000000000000240e-05,4.000000000000000000e+00,7.000000000000000000e+00
1.815800000000000000e+04,4.000000000000000327e-05,5.000000000000000240e-05,4.000000000000000327e-05,-1.399999999999999877e-04,-1.399999999999999877e-04,-1.499999999999999869e-04,8.000000000000000654e-05,5.000000000000000240e-05,4.000000000000000000e+00,7.000000000000000000e+00
1.815900000000000000e+04,4.000000000000000327e-05,5.000000000000000240e-05,4.000000000000000327e-05,-1.399999999999999877e-04,-1.399999999999999877e-04,-1.499999999999999869e-04,8.000000000000000654e-05,5.000000000000000240e-05,4.000000000000000000e+00,7.000000000000000000e+00
1.816000000000000000e+04,4.000000000000000327e-05,5.000000000000000240e-05,4.000000000000000327e-05,-1.399999999999999877e-04,-1.399999999999999877e-04,-1.499999999999999869e-04,8.000000000000000654e-05,5.000000000000000240e-05,4.000000000000000000e+00,7.000000000000000000e+00
1.816100000000000000e+04,4.000000000000000327e-05,5.000000000000000240e-05,4.000000000000000327e-05,-1.399999999999999877e-04,-1.399999999999999877e-04,-1.499999999999999869e-04,8.000000000000000654e-05,5.000000000000000240e-05,4.000000000000000000e+00,7.000000000000000000e+00
1.816200000000000000e+04,4.000000000000000327e-05,5.000000000000000240e-05,4.000000000000000327e-05,-1.399999999999999877e-04,-1.399999999999999877e-04,-1.499999999999999869e-04,8.000000000000000654e-05,5.000000000000000240e-05,4.000000000000000000e+00,7.000000000000000000e+00
1.816300000000000000e+04,4.000000000000000327e-05,5.000000000000000240e-05,4.000000000000000327e-05,-1.399999999999999877e-04,-1.399999999999999877e-04,-1.499999999999999869e-04,8.000000000000000654e-05,5.000000000000000240e-05,4.000000000000000000e+00,7.000000000000000000e+00
1.816400000000000000e+04,4.000000000000000327e-05,5.000000000000000240e-05,4.000000000000000327e-05,-1.399999999999999877e-04,-1.399999999999999877e-04,-1.499999999999999869e-04,8.000000000000000654e-05,5.000000000000000240e-05,4.000000000000000000e+00,7.000000000000000000e+00
1.816500000000000000e+04,-4.000000000000000327e-05,-5.999999999999999474e-05,-2.100000000000000087e-04,-4.400000000000000157e-04,-3.499999999999999964e-04,1.000000000000000082e-05,1.000000000000000082e-05,-1.100000000000000039e-04,4.000000000000000000e+00,7.000000000000000000e+00
1.816600000000000000e+04,-4.000000000000000327e-05,-5.999999999999999474e-05,-2.100000000000000087e-04,-4.400000000000000157e-04,-3.499999999999999964e-04,1.000000000000000082e-05,1.000000000000000082e-05,-1.100000000000000039e-04,4.000000000000000000e+00,7.000000000000000000e+00
1.816700000000000000e+04,-4.000000000000000327e-05,-5.999999999999999474e-05,-2.100000000000000087e-04,-4.400000000000000157e-04,-3.499999999999999964e-04,1.000000000000000082e-05,1.000000000000000082e-05,-1.100000000000000039e-04,4.000000000000000000e+00,7.000000000000000000e+00
1.816800000000000000e+04,-4.000000000000000327e-05,-5.999999999999999474e-05,-2.100000000000000087e-04,-4.400000000000000157e-04,-3.499999999999999964e-04,1.000000000000000082e-05,1.000000000000000082e-05,-1.100000000000000039e-04,4.000000000000000000e+00,7.000000000000000000e+00
1.816900000000000000e+04,-4.000000000000000327e-05,-5.999999999999999474e-05,-2.100000000000000087e-04,-4.400000000000000157e-04,-3.499999999999999964e-04,1.000000000000000082e-05,1.000000000000000082e-05,-1.100000000000000039e-04,4.000000000000000000e+00,7.000000000000000000e+00
1.817000000000000000e+04,-4.000000000000000327e-05,-5.999999999999999474e-05,-2.100000000000000087e-04,-4.400000000000000157e-04,-3.499999999999999964e-04,1.000000000000000082e-05,1.000000000000000082e-05,-1.100000000000000039e-04,4.000000000000000000e+00,7.000000000000000000e+00
1.817100000000000000e+04,-4.000000000000000327e-05,-5.999999999999999474e-05,-2.100000000000000087e-04,-4.400000000000000157e-04,-3.499999999999999964e-04,1.000000000000000082e-05,1.000000000000000082e-05,-1.100000000000000039e-04,4.000000000000000000e+00,7.000000000000000000e+00
1.817200000000000000e+04,-4.000000000000000327e-05,-5.999999999999999474e-05,-2.100000000000000087e-04,-4.400000000000000157e-04,-3.499999999999999964e-04,1.000000000000000082e-05,1.000000000000000082e-05,-1.100000000000000039e-04,4.000000000000000000e+00,7.000000000000000000e+00
1.817300000000000000e+04,-4.000000000000000327e-05,-5.999999999999999474e-05,-2.100000000000000087e-04,-4.400000000000000157e-04,-3.499999999999999964e-04,1.000000000000000082e-05,1.000000000000000082e-05,-1.100000000000000039e-04,4.000000000000000000e+00,7.000000000000000000e+00
