6.064100000000000000e+04,4.599999999999999597e-04,7.399999999999999894e-04,-2.000000000000000164e-05,-6.700000000000000226e-04,-4.799999999999999580e-04,-2.200000000000000078e-04,1.000000000000000082e-05,9.000000000000000567e-05,5.000000000000000000e+00,2.300000000000000000e+01
6.064200000000000000e+04,4.599999999999999597e-04,7.399999999999999894e-04,-2.000000000000000164e-05,-6.700000000000000226e-04,-4.799999999999999580e-04,-2.200000000000000078e-04,1.000000000000000082e-05,9.000000000000000567e-05,5.000000000000000000e+00,2.300000000000000000e+01
6.064300000000000000e+04,4.599999999999999597e-04,7.399999999999999894e-04,-2.000000000000000164e-05,-6.700000000000000226e-04,-4.799999999999999580e-04,-2.200000000000000078e-04,1.000000000000000082e-05,9.000000000000000567e-05,5.000000000000000000e+00,2.300000000000000000e+01
6.064400000000000000e+04,4.599999999999999597e-04,7.399999999999999894e-04,-2.000000000000000164e-05,-6.700000000000000226e-04,-4.799999999999999580e-04,-2.200000000000000078e-04,1.000000000000000082e-05,9.000000000000000567e-05,5.000000000000000000e+00,2.300000000000000000e+01
6.064500000000000000e+04,4.599999999999999597e-04,7.399999999999999894e-04,-2.000000000000000164e-05,-6.700000000000000226e-04,-4.799999999999999580e-04,-2.200000000000000078e-04,1.000000000000000082e-05,9.000000000000000567e-05,5.000000000000000000e+00,2.300000000000000000e+01
6.064600000000000000e+04,4.599999999999999597e-04,7.399999999999999894e-04,-2.000000000000000164e-05,-6.700000000000000226e-04,-4.799999999999999580e-04,-2.200000000000000078e-04,1.000000000000000082e-05,9.000000000000000567e-05,5.000000000000000000e+00,2.300000000000000000e+01
6.064700000000000000e+04,4.599999999999999597e-04,7.399999999999999894e-04,-2.000000000000000164e-05,-6.700000000000000226e-04,-4.799999999999999580e-04,-2.200000000000000078e-04,1.000000000000000082e-05,9.000000000000000567e-05,5.000000000000000000e+00,2.300000000000000000e+01
6.064800000000000000e+04,4.599999999999999597e-04,7.399999999999999894e-04,-2.000000000000000164e-05,-6.700000000000000226e-04,-4.799999999999999580e-04,-2.200000000000000078e-04,1.000000000000000082e-05,9.000000000000000567e-05,5.000000000000000000e+00,2.300000000000000000e+01
6.064900000000000000e+04,4.599999999999999597e-04,7.399999999999999894e-04,-2.000000000000000164e-05,-6.700000000000000226e-04,-4.799999999999999580e-04,-2.200000000000000078e-04,1.000000000000000082e-05,9.000000000000000567e-05,5.000000000000000000e+00,2.300000000000000000e+01
6.065000000000000000e+04,4.599999999999999597e-04,7.399999999999999894e-04,-2.000000000000000164e-05,-6.700000000000000226e-04,-4.799999999999999580e-04,-2.200000000000000078e-04,1.000000000000000082e-05,9.000000000000000567e-05,5.000000000000000000e+00,2.300000000000000000e+01
6.065100000000000000e+04,4.599999999999999597e-04,7.399999999999999894e-04,-2.000000000000000164e-05,-6.700000000000000226e-04,-4.799999999999999580e-04,-2.200000000000000078e-04,1.000000000000000082e-05,9.000000000000000567e-05,5.000000000000000000e+00,2.300000000000000000e+01
6.065200000000000000e+04,4.599999999999999597e-04,7.399999999999999894e-04,-2.000000000000000164e-05,-6.700000000000000226e-04,-4.799999999999999580e-04,-2.200000000000000078e-04,1.000000000000000082e-05,9.000000000000000567e-05,5.000000000000000000e+00,2.300000000000000000e+01
6.065300000000000000e+04,4.599999999999999597e-04,7.399999999999999894e-04,-2.000000000000000164e-05,-6.700000000000000226e-04,-4.799999999999999580e-04,-2.200000000000000078e-04,1.000000000000000082e-05,9.000000000000000567e-05,5.000000000000000000e+00,2.300000000000000000e+01
6.065400000000000000e+04,4.599999999999999597e-04,7.399999999999999894e-04,-2.000000000000000164e-05,-6.700000000000000226e-04,-4.799999999999999580e-04,-2.200000000000000078e-04,1.000000000000000082e-05,9.000000000000000567e-05,5.000000000000000000e+00,2.300000000000000000e+01
6.065500000000000000e+04,4.599999999999999597e-04,7.399999999999999894e-04,-2.000000000000000164e-05,-6.700000000000000226e-04,-4.799999999999999580e-04,-2.200000000000000078e-04,1.000000000000000082e-05,9.000000000000000567e-05,5.000000000000000000e+00,2.300000000000000000e+01
6.065600000000000000e+04,4.599999999999999597e-04,7.399999999999999894e-04,-2.000000000000000164e-05,-6.700000000000000226e-04,-4.799999999999999580e-04,-2.200000000000000078e-04,1.000000000000000082e-05,9.000000000000000567e-05,5.000000000000000000e+00,2.300000000000000000e+01
6.065700000000000000e+04,4.599999999999999597e-04,7.399999999999999894e-04,-2.000000000000000164e-05,-6.700000000000000226e-04,-4.799999999999999580e-04,-2.200000000000000078e-04,1.000000000000000082e-05,9.000000000000000567e-05,5.000000000000000000e+00,2.300000000000000000e+01
6.065800000000000000e+04,4.599999999999999597e-04,7.399999999999999894e-04,-2.000000000000000164e-05,-6.700000000000000226e-04,-4.799999999999999580e-04,-2.200000000000000078e-04,1.000000000000000082e-05,9.000000000000000567e-05,5.000000000000000000e+00,2.300000000000000000e+01
6.065900000000000000e+04,4.599999999999999597e-04,7.399999999999999894e-04,-2.000000000000000164e-05,-6.700000000000000226e-04,-4.799999999999999580e-04,-2.200000000000000078e-04,1.000000000000000082e-05,9.000000000000000567e-05,5.000000000000000000e+00,2.300000000000000000e+01
6.066000000000000000e+04,4.599999999999999597e-04,7.399999999999999894e-04,-2.000000000000000164e-05,-6.700000000000000226e-04,-4.799999999999999580e-04,-2.200000000000000078e-04,1.000000000000000082e-05,9.000000000000000567e-05,5.000000000000000000e+00,2.300000000000000000e+01
6.066100000000000000e+04,4.099999999999999912e-04,-5.400000000000000069e-04,6.999999999999999387e-05,5.099999999999999282e-04,3.600000000000000227e-04,1.899999999999999834e-04,-1.000000000000000082e-05,-4.000000000000000327e-05,5.000000000000000000e+00,2.300000000000000000e+01
6.066200000000000000e+04,-2.999999999999999737e-04,-2.100000000000000087e-04,-1.499999999999999869e-04,-9.000000000000000567e-05,8.999999999999999754e-04,2.200000000000000078e-04,-1.000000000000000082e-05,-8.000000000000000654e-05,5.000000000000000000e+00,2.300000000000000000e+01
6.066300000000000000e+04,-2.999999999999999737e-04,-2.100000000000000087e-04,-1.499999999999999869e-04,-9.000000000000000567e-05,8.999999999999999754e-04,2.200000000000000078e-04,-1.000000000000000082e-05,-8.000000000000000654e-05,5.000000000000000000e+00,2.300000000000000000e+01
6.066400000000000000e+04,-2.999999999999999737e-04,-2.100000000000000087e-04,-1.499999999999999869e-04,-9.000000000000000567e-05,8.999999999999999754e-04,2.200000000000000078e-04,-1.000000000000000082e-05,-8.000000000000000654e-05,5.000000000000000000e+00,2.300000000000000000e+01
6.066500000000000000e+04,-2.999999999999999737e-04,-2.100000000000000087e-04,-1.499999999999999869e-04,-9.000000000000000567e-05,8.999999999999999754e-04,2.200000000000000078e-04,-1.000000000000000082e-05,-8.000000000000000654e-05,5.000000000000000000e+00,2.300000000000000000e+01
6.066600000000000000e+04,-2.999999999999999737e-04,-2.100000000000000087e-04,-1.499999999999999869e-04,-9.000000000000000567e-05,8.999999999999999754e-04,2.200000000000000078e-04,-1.000000000000000082e-05,-8.000000000000000654e-05,5.000000000000000000e+00,2.300000000000000000e+01
6.066700000000000000e+04,-2.999999999999999737e-04,-2.100000000000000087e-04,-1.499999999999999869e-04,-9.000000000000000567e-05,8.999999999999999754e-04,2.200000000000000078e-04,-1.000000000000000082e-05,-8.000000000000000654e-05,5.000000000000000000e+00,2.300000000000000000e+01
6.066800000000000000e+04,-2.999999999999999737e-04,-2.100000000000000087e-04,-1.499999999999999869e-04,-9.000000000000000567e-05,8.999999999999999754e-04,2.200000000000000078e-04,-1.000000000000000082e-05,-8.000000000000000654e-05,5.000000000000000000e+00,2.300000000000000000e+01
6.066900000000000000e+04,-2.999999999999999737e-04,-2.100000000000000087e-04,-1.499999999999999869e-04,-9.000000000000000567e-05,8.999999999999999754e-04,2.200000000000000078e-04,-1.000000000000000082e-05,-8.000000000000000654e-05,5.000000000000000000e+00,2.300000000000000000e+01
6.067000000000000000e+04,-2.999999999999999737e-04,-2.100000000000000087e-04,-1.499999999999999869e-04,-9.000000000000000567e-05,8.999999999999999754e-04,2.200000000000000078e-04,-1.000000000000000082e-05,-8.000000000000000654e-05,5.000000000000000000e+00,2.300000000000000000e+01
6.067100000000000000e+04,-2.999999999999999737e-04,-2.100000000000000087e-04,-1.499999999999999869e-04,-9.000000000000000567e-05,8.999999999999999754e-04,2.200000000000000078e-04,-1.000000000000000082e-05,-8.000000000000000654e-05,5.000000000000000000e+00,2.300000000000000000e+01
6.067200000000000000e+04,-2.999999999999999737e-04,-2.100000000000000087e-04,-1.499999999999999869e-04,-9.000000000000000567e-05,8.999999999999999754e-04,2.200000000000000078e-04,-1.000000000000000082e-05,-8.000000000000000654e-05,5.000000000000000000e+00,2.300000000000000000e+01
6.067300000000000000e+04,-2.999999999999999737e-04,-2.100000000000000087e-04,-1.499999999999999869e-04,-9.000000000000000567e-05,8.999999999999999754e-04,2.200000000000000078e-04,-1.000000000000000082e-05,-8.000000000000000654e-05,5.000000000000000000e+00,2.300000000000000000e+01
6.067400000000000000e+04,-2.999999999999999737e-04,-2.100000000000000087e-04,-1.499999999999999869e-04,-9.000000000000000567e-05,8.999999999999999754e-04,2.200000000000000078e-04,-1.000000000000000082e-05,-8.000000000000000654e-05,5.000000000000000000e+00,2.300000000000000000e+01
6.067500000000000000e+04,4.599999999999999597e-04,6.099999999999999737e-04,2.999999999999999737e-05,1.399999999999999877e-04,-4.700000000000000401e-04,-3.200000000000000262e-04,-1.000000000000000082e-05,-2.999999999999999737e-05,5.000000000000000000e+00,2.300000000000000000e+01
6.067600000000000000e+04,6.799999999999999404e-04,-1.800000000000000113e-04,-1.199999999999999895e-04,-1.699999999999999851e-04,-2.000000000000000164e-05,-2.399999999999999790e-04,1.000000000000000082e-05,-2.999999999999999737e-05,5.000000000000000000e+00,2.300000000000000000e+01
6.067700000000000000e+04,6.799999999999999404e-04,-1.800000000000000113e-04,-1.199999999999999895e-04,-1.699999999999999851e-04,-2.000000000000000164e-05,-2.399999999999999790e-04,1.000000000000000082e-05,-2.999999999999999737e-05,5.000000000000000000e+00,2.300000000000000000e+01
6.067800000000000000e+04,6.799999999999999404e-04,-1.800000000000000113e-04,-1.199999999999999895e-04,-1.699999999999999851e-04,-2.000000000000000164e-05,-2.399999999999999790e-04,1.000000000000000082e-05,-2.999999999999999737e-05,5.000000000000000000e+00,2.300000000000000000e+01
6.067900000000000000e+04,6.799999999999999404e-04,-1.800000000000000113e-04,-1.199999999999999895e-04,-1.699999999999999851e-04,-2.000000000000000164e-05,-2.399999999999999790e-04,1.000000000000000082e-05,-2.999999999999999737e-05,5.000000000000000000e+00,2.300000000000000000e+01
6.068000000000000000e+04,6.799999999999999404e-04,-1.800000000000000113e-04,-1.199999999999999895e-04,-1.699999999999999851e-04,-2.000000000000000164e-05,-2.399999999999999790e-04,1.000000000000000082e-05,-2.999999999999999737e-05,5.000000000000000000e+00,2.300000000000000000e+01
6.068100000000000000e+04,6.799999999999999404e-04,-1.800000000000000113e-04,-1.199999999999999895e-04,-1.699999999999999851e-04,-2.000000000000000164e-05,-2.399999999999999790e-04,1.000000000000000082e-05,-2.999999999999999737e-05,5.000000000000000000e+00,2.300000000000000000e+01
6.068200000000000000e+04,6.799999999999999404e-04,-1.800000000000000113e-04,-1.199999999999999895e-04,-1.699999999999999851e-04,-2.000000000000000164e-05,-2.399999999999999790e-04,1.000000000000000082e-05,-2.999999999999999737e-05,5.000000000000000000e+00,2.300000000000000000e+01
6.068300000000000000e+04,6.799999999999999404e-04,-1.800000000000000113e-04,-1.199999999999999895e-04,-1.699999999999999851e-04,-2.000000000000000164e-05,-2.399999999999999790e-04,1.000000000000000082e-05,-2.999999999999999737e-05,5.000000000000000000e+00,2.300000000000000000e+01
6.068400000000000000e+04,6.799999999999999404e-04,-1.800000000000000113e-04,-1.199999999999999895e-04,-1.699999999999999851e-04,-2.000000000000000164e-05,-2.399999999999999790e-04,1.000000000000000082e-05,-2.999999999999999737e-05,5.000000000000000000e+00,2.300000000000000000e+01
6.068500000000000000e+04,6.799999999999999404e-04,-1.800000000000000113e-04,-1.199999999999999895e-04,-1.699999999999999851e-04,-2.000000000000000164e-05,-2.399999999999999790e-04,1.000000000000000082e-05,-2.999999999999999737e-05,5.000000000000000000e+00,2.300000000000000000e+01
6.068700000000000000e+04,6.799999999999999404e-04,-1.800000000000000113e-04,-1.199999999999999895e-04,-1.699999999999999851e-04,-2.000000000000000164e-05,-2.399999999999999790e-04,1.000000000000000082e-05,-2.999999999999999737e-05,5.000000000000000000e+00,2.300000000000000000e+01
6.068900000000000000e+04,6.799999999999999404e-04,-1.800000000000000113e-04,-1.199999999999999895e-04,-1.699999999999999851e-04,-2.000000000000000164e-05,-2.399999999999999790e-04,1.000000000000000082e-05,-2.999999999999999737e-05,5.000000000000000000e+00,2.300000000000000000e+01
6.069100000000000000e+04,6.799999999999999404e-04,-1.800000000000000113e-04,-1.199999999999999895e-04,-1.699999999999999851e-04,-2.000000000000000164e-05,-2.399999999999999790e-04,1.000000000000000082e-05,-2.999999999999999737e-05,5.000000000000000000e+00,2.300000000000000000e+01
6.069200000000000000e+04,6.799999999999999404e-04,-1.800000000000000113e-04,-1.199999999999999895e-04,-1.699999999999999851e-04,-2.000000000000000164e-05,-2.399999999999999790e-04,1.000000000000000082e-05,-2.999999999999999737e-05,5.000000000000000000e+00,2.300000000000000000e+01
6.069300000000000000e+04,6.799999999999999404e-04,-1.800000000000000113e-04,-1.199999999999999895e-04,-1.699999999999999851e-04,-2.000000000000000164e-05,-2.399999999999999790e-04,1.000000000000000082e-05,-2.999999999999999737e-05,5.000000000000000000e+00,2.300000000000000000e+01
6.069400000000000000e+04,6.799999999999999404e-04,-1.800000000000000113e-04,-1.199999999999999895e-04,-1.699999999999999851e-04,-2.000000000000000164e-05,-2.399999999999999790e-04,1.000000000000000082e-05,-2.999999999999999737e-05,5.000000000000000000e+00,2.300000000000000000e+01
6.069500000000000000e+04,6.799999999999999404e-04,-1.800000000000000113e-04,-1.199999999999999895e-04,-1.699999999999999851e-04,-2.000000000000000164e-05,-2.399999999999999790e-04,1.000000000000000082e-05,-2.999999999999999737e-05,5.000000000000000000e+00,2.300000000000000000e+01
6.069600000000000000e+04,6.799999999999999404e-04,-1.800000000000000113e-04,-1.199999999999999895e-04,-1.699999999999999851e-04,-2.000000000000000164e-05,-2.399999999999999790e-04,1.000000000000000082e-05,-2.999999999999999737e-05,5.000000000000000000e+00,2.300000000000000000e+01
6.069700000000000000e+04,6.799999999999999404e-04,-1.800000000000000113e-04,-1.199999999999999895e-04,-1.699999999999999851e-04,-2.000000000000000164e-05,-2.399999999999999790e-04,1.000000000000000082e-05,-2.999999999999999737e-05,5.000000000000000000e+00,2.300000000000000000e+01
6.069800000000000000e+04,2.399999999999999790e-04,-5.500000000000000331e-04,-5.999999999999999474e-05,-1.600000000000000131e-04,1.499999999999999869e-04,-5.000000000000000240e-05,-6.999999999999999387e-05,-5.000000000000000240e-05,5.000000000000000000e+00,2.300000000000000000e+01
6.069900000000000000e+04,-3.899999999999999929e-04,-2.999999999999999737e-05,-2.900000000000000017e-04,-4.799999999999999580e-04,8.599999999999999789e-04,2.000000000000000164e-05,-4.000000000000000327e-05,-4.000000000000000327e-05,5.000000000000000000e+00,2.300000000000000000e+01
6.070000000000000000e+04,-3.899999999999999929e-04,-2.999999999999999737e-05,-2.900000000000000017e-04,-4.799999999999999580e-04,8.599999999999999789e-04,2.000000000000000164e-05,-4.000000000000000327e-05,-4.000000000000000327e-05,5.000000000000000000e+00,2.300000000000000000e+01
6.070100000000000000e+04,-3.899999999999999929e-04,-2.999999999999999737e-05,-2.900000000000000017e-04,-4.799999999999999580e-04,8.599999999999999789e-04,2.000000000000000164e-05,-4.000000000000000327e-05,-4.000000000000000327e-05,5.000000000000000000e+00,2.300000000000000000e+01
6.070200000000000000e+04,-3.899999999999999929e-04,-2.999999999999999737e-05,-2.900000000000000017e-04,-4.799999999999999580e-04,8.599999999999999789e-04,2.000000000000000164e-05,-4.000000000000000327e-05,-4.000000000000000327e-05,5.000000000000000000e+00,2.300000000000000000e+01
6.070300000000000000e+04,-3.899999999999999929e-04,-2.999999999999999737e-05,-2.900000000000000017e-04,-4.799999999999999580e-04,8.599999999999999789e-04,2.000000000000000164e-05,-4.000000000000000327e-05,-4.000000000000000327e-05,5.000000000000000000e+00,2.300000000000000000e+01
6.070400000000000000e+04,-3.899999999999999929e-04,-2.999999999999999737e-05,-2.900000000000000017e-04,-4.799999999999999580e-04,8.599999999999999789e-04,2.000000000000000164e-05,-4.000000000000000327e-05,-4.000000000000000327e-05,5.000000000000000000e+00,2.300000000000000000e+01
6.070500000000000000e+04,-3.899999999999999929e-04,-2.999999999999999737e-05,-2.900000000000000017e-04,-4.799999999999999580e-04,8.599999999999999789e-04,2.000000000000000164e-05,-4.000000000000000327e-05,-4.000000000000000327e-05,5.000000000000000000e+00,2.300000000000000000e+01
6.070600000000000000e+04,-3.899999999999999929e-04,-2.999999999999999737e-05,-2.900000000000000017e-04,-4.799999999999999580e-04,8.599999999999999789e-04,2.000000000000000164e-05,-4.000000000000000327e-05,-4.000000000000000327e-05,5.000000000000000000e+00,2.300000000000000000e+01
6.070700000000000000e+04,-3.899999999999999929e-04,-2.999999999999999737e-05,-2.900000000000000017e-04,-4.799999999999999580e-04,8.599999999999999789e-04,2.000000000000000164e-05,-4.000000000000000327e-05,-4.000000000000000327e-05,5.000000000000000000e+00,2.300000000000000000e+01
6.070800000000000000e+04,-3.899999999999999929e-04,-2.999999999999999737e-05,-2.900000000000000017e-04,-4.799999999999999580e-04,8.599999999999999789e-04,2.000000000000000164e-05,-4.000000000000000327e-05,-4.000000000000000327e-05,5.000000000000000000e+00,2.300000000000000000e+01
6.070900000000000000e+04,-3.899999999999999929e-04,-2.999999999999999737e-05,-2.900000000000000017e-04,-4.799999999999999580e-04,8.599999999999999789e-04,2.000000000000000164e-05,-4.000000000000000327e-05,-4.000000000000000327e-05,5.000000000000000000e+00,2.300000000000000000e+01
6.071000000000000000e+04,-3.899999999999999929e-04,-2.999999999999999737e-05,-2.900000000000000017e-04,-4.799999999999999580e-04,8.599999999999999789e-04,2.000000000000000164e-05,-4.000000000000000327e-05,-4.000000000000000327e-05,5.000000000000000000e+00,2.300000000000000000e+01
6.071100000000000000e+04,-3.899999999999999929e-04,-2.999999999999999737e-05,-2.900000000000000017e-04,-4.799999999999999580e-04,8.599999999999999789e-04,2.000000000000000164e-05,-4.000000000000000327e-05,-4.000000000000000327e-05,5.000000000000000000e+00,2.300000000000000000e+01
6.071200000000000000e+04,-3.899999999999999929e-04,-2.999999999999999737e-05,-2.900000000000000017e-04,-4.799999999999999580e-04,8.599999999999999789e-04,2.000000000000000164e-05,-4.000000000000000327e-05,-4.000000000000000327e-05,5.000000000000000000e+00,2.300000000000000000e+01
6.071300000000000000e+04,-3.899999999999999929e-04,-2.999999999999999737e-05,-2.900000000000000017e-04,-4.799999999999999580e-04,8.599999999999999789e-04,2.000000000000000164e-05,-4.000000000000000327e-05,-4.000000000000000327e-05,5.000000000000000000e+00,2.300000000000000000e+01
6.071400000000000000e+04,-3.899999999999999929e-04,-2.999999999999999737e-05,-2.900000000000000017e-04,-4.799999999999999580e-04,8.599999999999999789e-04,2.000000000000000164e-05,-4.000000000000000327e-05,-4.000000000000000327e-05,5.000000000000000000e+00,2.300000000000000000e+01
6.071500000000000000e+04,-3.899999999999999929e-04,-2.999999999999999737e-05,-2.900000000000000017e-04,-4.799999999999999580e-04,8.599999999999999789e-04,2.000000000000000164e-05,-4.000000000000000327e-05,-4.000000000000000327e-05,5.000000000000000000e+00,2.300000000000000000e+01
6.071600000000000000e+04,-3.899999999999999929e-04,-2.999999999999999737e-05,-2.900000000000000017e-04,-4.799999999999999580e-04,8.599999999999999789e-04,2.000000000000000164e-05,-4.000000000000000327e-05,-4.000000000000000327e-05,5.000000000000000000e+00,2.300000000000000000e+01
6.071700000000000000e+04,-3.899999999999999929e-04,-2.999999999999999737e-05,-2.900000000000000017e-04,-4.799999999999999580e-04,8.599999999999999789e-04,2.000000000000000164e-05,-4.000000000000000327e-05,-4.000000000000000327e-05,5.000000000000000000e+00,2.300000000000000000e+01
6.071800000000000000e+04,-3.899999999999999929e-04,-2.999999999999999737e-05,-2.900000000000000017e-04,-4.799999999999999580e-04,8.599999999999999789e-04,2.000000000000000164e-05,-4.000000000000000327e-05,-4.000000000000000327e-05,5.000000000000000000e+00,2.300000000000000000e+01
6.071900000000000000e+04,-3.899999999999999929e-04,-2.999999999999999737e-05,-2.900000000000000017e-04,-4.799999999999999580e-04,8.599999999999999789e-04,2.000000000000000164e-05,-4.000000000000000327e-05,-4.000000000000000327e-05,5.000000000000000000e+00,2.300000000000000000e+01
6.072000000000000000e+04,-3.899999999999999929e-04,-2.999999999999999737e-05,-2.900000000000000017e-04,-4.799999999999999580e-04,8.599999999999999789e-04,2.000000000000000164e-05,-4.000000000000000327e-05,-4.000000000000000327e-05,5.000000000000000000e+00,2.300000000000000000e+01
6.072100000000000000e+04,-1.899999999999999834e-04,-2.900000000000000017e-04,1.199999999999999895e-04,8.300000000000001170e-04,-6.700000000000000226e-04,2.999999999999999737e-05,6.999999999999999387e-05,4.000000000000000327e-05,5.000000000000000000e+00,2.300000000000000000e+01
6.072200000000000000e+04,4.499999999999999877e-04,4.700000000000000401e-04,5.000000000000000240e-05,-8.000000000000000654e-05,-2.000000000000000164e-05,2.000000000000000164e-05,5.000000000000000240e-05,5.999999999999999474e-05,5.000000000000000000e+00,2.300000000000000000e+01
6.072300000000000000e+04,4.499999999999999877e-04,4.700000000000000401e-04,5.000000000000000240e-05,-8.000000000000000654e-05,-2.000000000000000164e-05,2.000000000000000164e-05,5.000000000000000240e-05,5.999999999999999474e-05,5.000000000000000000e+00,2.300000000000000000e+01
6.072400000000000000e+04,4.499999999999999877e-04,4.700000000000000401e-04,5.000000000000000240e-05,-8.000000000000000654e-05,-2.000000000000000164e-05,2.000000000000000164e-05,5.000000000000000240e-05,5.999999999999999474e-05,5.000000000000000000e+00,2.300000000000000000e+01
6.072500000000000000e+04,4.499999999999999877e-04,4.700000000000000401e-04,5.000000000000000240e-05,-8.000000000000000654e-05,-2.000000000000000164e-05,2.000000000000000164e-05,5.000000000000000240e-05,5.999999999999999474e-05,5.000000000000000000e+00,2.300000000000000000e+01
6.072600000000000000e+04,4.499999999999999877e-04,4.700000000000000401e-04,5.000000000000000240e-05,-8.000000000000000654e-05,-2.000000000000000164e-05,2.000000000000000164e-05,5.000000000000000240e-05,5.999999999999999474e-05,5.000000000000000000e+00,2.300000000000000000e+01
6.072700000000000000e+04,4.499999999999999877e-04,4.700000000000000401e-04,5.000000000000000240e-05,-8.000000000000000654e-05,-2.000000000000000164e-05,2.000000000000000164e-05,5.000000000000000240e-05,5.999999999999999474e-05,5.000000000000000000e+00,2.300000000000000000e+01
6.072800000000000000e+04,4.499999999999999877e-04,4.700000000000000401e-04,5.000000000000000240e-05,-8.000000000000000654e-05,-2.000000000000000164e-05,2.000000000000000164e-05,5.000000000000000240e-05,5.999999999999999474e-05,5.000000000000000000e+00,2.300000000000000000e+01
6.072900000000000000e+04,4.499999999999999877e-04,4.700000000000000401e-04,5.000000000000000240e-05,-8.000000000000000654e-05,-2.000000000000000164e-05,2.000000000000000164e-05,5.000000000000000240e-05,5.999999999999999474e-05,5.000000000000000000e+00,2.300000000000000000e+01
6.073000000000000000e+04,4.499999999999999877e-04,4.700000000000000401e-04,5.000000000000000240e-05,-8.000000000000000654e-05,-2.000000000000000164e-05,2.000000000000000164e-05,5.000000000000000240e-05,5.999999999999999474e-05,5.000000000000000000e+00,2.300000000000000000e+01
6.073100000000000000e+04,4.499999999999999877e-04,4.700000000000000401e-04,5.000000000000000240e-05,-8.000000000000000654e-05,-2.000000000000000164e-05,2.000000000000000164e-05,5.000000000000000240e-05,5.999999999999999474e-05,5.000000000000000000e+00,2.300000000000000000e+01
6.073200000000000000e+04,4.499999999999999877e-04,4.700000000000000401e-04,5.000000000000000240e-05,-8.000000000000000654e-05,-2.000000000000000164e-05,2.000000000000000164e-05,5.000000000000000240e-05,5.999999999999999474e-05,5.000000000000000000e+00,2.300000000000000000e+01
6.073300000000000000e+04,4.499999999999999877e-04,4.700000000000000401e-04,5.000000000000000240e-05,-8.000000000000000654e-05,-2.000000000000000164e-05,2.000000000000000164e-05,5.000000000000000240e-05,5.999999999999999474e-05,5.000000000000000000e+00,2.300000000000000000e+01
6.073400000000000000e+04,4.499999999999999877e-04,4.700000000000000401e-04,5.000000000000000240e-05,-8.000000000000000654e-05,-2.000000000000000164e-05,2.000000000000000164e-05,5.000000000000000240e-05,5.999999999999999474e-05,5.000000000000000000e+00,2.300000000000000000e+01
6.073500000000000000e+04,6.999999999999999387e-05,1.109999999999999876e-03,-5.000000000000000240e-05,0.000000000000000000e+00,-3.799999999999999667e-04,-5.299999999999999807e-04,-1.899999999999999834e-04,-4.000000000000000327e-05,5.000000000000000000e+00,2.300000000000000000e+01
6.073600000000000000e+04,3.899999999999999929e-04,-8.000000000000000383e-04,5.000000000000000240e-05,1.199999999999999895e-04,-5.200000000000000629e-04,-5.999999999999999474e-05,6.999999999999999387e-05,-1.000000000000000082e-05,5.000000000000000000e+00,2.300000000000000000e+01
6.073900000000000000e+04,3.899999999999999929e-04,-8.000000000000000383e-04,5.000000000000000240e-05,1.199999999999999895e-04,-5.200000000000000629e-04,-5.999999999999999474e-05,6.999999999999999387e-05,-1.000000000000000082e-05,5.000000000000000000e+00,2.300000000000000000e+01
6.074000000000000000e+04,3.899999999999999929e-04,-8.000000000000000383e-04,5.000000000000000240e-05,1.199999999999999895e-04,-5.200000000000000629e-04,-5.999999999999999474e-05,6.999999999999999387e-05,-1.000000000000000082e-05,5.000000000000000000e+00,2.300000000000000000e+01
6.074100000000000000e+04,3.899999999999999929e-04,-8.000000000000000383e-04,5.000000000000000240e-05,1.199999999999999895e-04,-5.200000000000000629e-04,-5.999999999999999474e-05,6.999999999999999387e-05,-1.000000000000000082e-05,5.000000000000000000e+00,2.300000000000000000e+01
6.074200000000000000e+04,3.899999999999999929e-04,-8.000000000000000383e-04,5.000000000000000240e-05,1.199999999999999895e-04,-5.200000000000000629e-04,-5.999999999999999474e-05,6.999999999999999387e-05,-1.000000000000000082e-05,5.000000000000000000e+00,2.300000000000000000e+01
6.074300000000000000e+04,3.899999999999999929e-04,-8.000000000000000383e-04,5.000000000000000240e-05,1.199999999999999895e-04,-5.200000000000000629e-04,-5.999999999999999474e-05,6.999999999999999387e-05,-1.000000000000000082e-05,5.000000000000000000e+00,2.300000000000000000e+01
6.074400000000000000e+04,3.899999999999999929e-04,-8.000000000000000383e-04,5.000000000000000240e-05,1.199999999999999895e-04,-5.200000000000000629e-04,-5.999999999999999474e-05,6.999999999999999387e-05,-1.000000000000000082e-05,5.000000000000000000e+00,2.300000000000000000e+01
6.074500000000000000e+04,3.899999999999999929e-04,-8.000000000000000383e-04,5.000000000000000240e-05,1.199999999999999895e-04,-5.200000000000000629e-04,-5.999999999999999474e-05,6.999999999999999387e-05,-1.000000000000000082e-05,5.000000000000000000e+00,2.300000000000000000e+01
6.074600000000000000e+04,3.899999999999999929e-04,-8.000000000000000383e-04,5.000000000000000240e-05,1.199999999999999895e-04,-5.200000000000000629e-04,-5.999999999999999474e-05,6.999999999999999387e-05,-1.000000000000000082e-05,5.000000000000000000e+00,2.300000000000000000e+01
6.074700000000000000e+04,3.899999999999999929e-04,-8.000000000000000383e-04,5.000000000000000240e-05,1.199999999999999895e-04,-5.200000000000000629e-04,-5.999999999999999474e-05,6.999999999999999387e-05,-1.000000000000000082e-05,5.000000000000000000e+00,2.300000000000000000e+01
6.074800000000000000e+04,3.899999999999999929e-04,-8.000000000000000383e-04,5.000000000000000240e-05,1.199999999999999895e-04,-5.200000000000000629e-04,-5.999999999999999474e-05,6.999999999999999387e-05,-1.000000000000000082e-05,5.000000000000000000e+00,2.300000000000000000e+01
6.074900000000000000e+04,3.899999999999999929e-04,-8.000000000000000383e-04,5.000000000000000240e-05,1.199999999999999895e-04,-5.200000000000000629e-04,-5.999999999999999474e-05,6.999999999999999387e-05,-1.000000000000000082e-05,5.000000000000000000e+00,2.300000000000000000e+01
6.075000000000000000e+04,3.899999999999999929e-04,-8.000000000000000383e-04,5.000000000000000240e-05,1.199999999999999895e-04,-5.200000000000000629e-04,-5.999999999999999474e-05,6.999999999999999387e-05,-1.000000000000000082e-05,5.000000000000000000e+00,2.300000000000000000e+01
6.075100000000000000e+04,3.899999999999999929e-04,-8.000000000000000383e-04,5.000000000000000240e-05,1.199999999999999895e-04,-5.200000000000000629e-04,-5.999999999999999474e-05,6.999999999999999387e-05,-1.000000000000000082e-05,5.000000000000000000e+00,2.300000000000000000e+01
6.075200000000000000e+04,3.899999999999999929e-04,-8.000000000000000383e-04,5.000000000000000240e-05,1.199999999999999895e-04,-5.200000000000000629e-04,-5.999999999999999474e-05,6.999999999999999387e-05,-1.000000000000000082e-05,5.000000000000000000e+00,2.300000000000000000e+01
6.075300000000000000e+04,3.899999999999999929e-04,-8.000000000000000383e-04,5.000000000000000240e-05,1.199999999999999895e-04,-5.200000000000000629e-04,-5.999999999999999474e-05,6.999999999999999387e-05,-1.000000000000000082e-05,5.000000000000000000e+00,2.300000000000000000e+01
6.075400000000000000e+04,3.899999999999999929e-04,-8.000000000000000383e-04,5.000000000000000240e-05,1.199999999999999895e-04,-5.200000000000000629e-04,-5.999999999999999474e-05,6.999999999999999387e-05,-1.000000000000000082e-05,5.000000000000000000e+00,2.300000000000000000e+01
6.075500000000000000e+04,3.899999999999999929e-04,-8.000000000000000383e-04,5.000000000000000240e-05,1.199999999999999895e-04,-5.200000000000000629e-04,-5.999999999999999474e-05,6.999999999999999387e-05,-1.000000000000000082e-05,5.000000000000000000e+00,2.300000000000000000e+01
6.075600000000000000e+04,3.899999999999999929e-04,-8.000000000000000383e-04,5.000000000000000240e-05,1.199999999999999895e-04,-5.200000000000000629e-04,-5.999999999999999474e-05,6.999999999999999387e-05,-1.000000000000000082e-05,5.000000000000000000e+00,2.300000000000000000e+01
6.075700000000000000e+04,3.899999999999999929e-04,-8.000000000000000383e-04,5.000000000000000240e-05,1.199999999999999895e-04,-5.200000000000000629e-04,-5.999999999999999474e-05,6.999999999999999387e-05,-1.000000000000000082e-05,5.000000000000000000e+00,2.300000000000000000e+01
6.075800000000000000e+04,-1.399999999999999877e-04,-1.399999999999999877e-04,-6.999999999999999387e-05,8.000000000000000654e-05,1.000000000000000082e-05,-2.200000000000000078e-04,2.000000000000000164e-05,-5.000000000000000240e-05,5.000000000000000000e+00,2.300000000000000000e+01
6.075900000000000000e+04,-5.000000000000000240e-05,1.000000000000000048e-04,1.300000000000000157e-04,2.299999999999999799e-04,-5.599999999999999509e-04,5.000000000000000240e-05,2.999999999999999737e-05,-6.999999999999999387e-05,5.000000000000000000e+00,2.300000000000000000e+01
6.076000000000000000e+04,-5.000000000000000240e-05,1.000000000000000048e-04,1.300000000000000157e-04,2.299999999999999799e-04,-5.599999999999999509e-04,5.000000000000000240e-05,2.999999999999999737e-05,-6.999999999999999387e-05,5.000000000000000000e+00,2.300000000000000000e+01
6.076100000000000000e+04,-5.000000000000000240e-05,1.000000000000000048e-04,1.300000000000000157e-04,2.299999999999999799e-04,-5.599999999999999509e-04,5.000000000000000240e-05,2.999999999999999737e-05,-6.999999999999999387e-05,5.000000000000000000e+00,2.300000000000000000e+01
6.076200000000000000e+04,-5.000000000000000240e-05,1.000000000000000048e-04,1.300000000000000157e-04,2.299999999999999799e-04,-5.599999999999999509e-04,5.000000000000000240e-05,2.999999999999999737e-05,-6.999999999999999387e-05,5.000000000000000000e+00,2.300000000000000000e+01
6.076300000000000000e+04,-5.000000000000000240e-05,1.000000000000000048e-04,1.300000000000000157e-04,2.299999999999999799e-04,-5.599999999999999509e-04,5.000000000000000240e-05,2.999999999999999737e-05,-6.999999999999999387e-05,5.000000000000000000e+00,2.300000000000000000e+01
6.076400000000000000e+04,-5.000000000000000240e-05,1.000000000000000048e-04,1.300000000000000157e-04,2.299999999999999799e-04,-5.599999999999999509e-04,5.000000000000000240e-05,2.999999999999999737e-05,-6.999999999999999387e-05,5.000000000000000000e+00,2.300000000000000000e+01
6.076500000000000000e+04,-5.000000000000000240e-05,1.000000000000000048e-04,1.300000000000000157e-04,2.299999999999999799e-04,-5.599999999999999509e-04,5.000000000000000240e-05,2.999999999999999737e-05,-6.999999999999999387e-05,5.000000000000000000e+00,2.300000000000000000e+01
6.076600000000000000e+04,-5.000000000000000240e-05,1.000000000000000048e-04,1.300000000000000157e-04,2.299999999999999799e-04,-5.599999999999999509e-04,5.000000000000000240e-05,2.999999999999999737e-05,-6.999999999999999387e-05,5.000000000000000000e+00,2.300000000000000000e+01
6.076700000000000000e+04,-5.000000000000000240e-05,1.000000000000000048e-04,1.300000000000000157e-04,2.299999999999999799e-04,-5.599999999999999509e-04,5.000000000000000240e-05,2.999999999999999737e-05,-6.999999999999999387e-05,5.000000000000000000e+00,2.300000000000000000e+01
6.076800000000000000e+04,-5.000000000000000240e-05,1.000000000000000048e-04,1.300000000000000157e-04,2.299999999999999799e-04,-5.599999999999999509e-04,5.000000000000000240e-05,2.999999999999999737e-05,-6.999999999999999387e-05,5.000000000000000000e+00,2.300000000000000000e+01
6.076900000000000000e+04,-5.000000000000000240e-05,1.000000000000000048e-04,1.300000000000000157e-04,2.299999999999999799e-04,-5.599999999999999509e-04,5.000000000000000240e-05,2.999999999999999737e-05,-6.999999999999999387e-05,5.000000000000000000e+00,2.300000000000000000e+01
6.077000000000000000e+04,-5.000000000000000240e-05,1.000000000000000048e-04,1.300000000000000157e-04,2.299999999999999799e-04,-5.599999999999999509e-04,5.000000000000000240e-05,2.999999999999999737e-05,-6.999999999999999387e-05,5.000000000000000000e+00,2.300000000000000000e+01
6.077100000000000000e+04,-5.000000000000000240e-05,1.000000000000000048e-04,1.300000000000000157e-04,2.299999999999999799e-04,-5.599999999999999509e-04,5.000000000000000240e-05,2.999999999999999737e-05,-6.999999999999999387e-05,5.000000000000000000e+00,2.300000000000000000e+01
6.077200000000000000e+04,-5.000000000000000240e-05,1.000000000000000048e-04,1.300000000000000157e-04,2.299999999999999799e-04,-5.599999999999999509e-04,5.000000000000000240e-05,2.999999999999999737e-05,-6.999999999999999387e-05,5.000000000000000000e+00,2.300000000000000000e+01
6.077300000000000000e+04,-5.000000000000000240e-05,1.000000000000000048e-04,1.300000000000000157e-04,2.299999999999999799e-04,-5.599999999999999509e-04,5.000000000000000240e-05,2.999999999999999737e-05,-6.999999999999999387e-05,5.000000000000000000e+00,2.300000000000000000e+01
6.077400000000000000e+04,-5.000000000000000240e-05,1.000000000000000048e-04,1.300000000000000157e-04,2.299999999999999799e-04,-5.599999999999999509e-04,5.000000000000000240e-05,2.999999999999999737e-05,-6.999999999999999387e-05,5.000000000000000000e+00,2.300000000000000000e+01
6.077500000000000000e+04,-5.000000000000000240e-05,1.000000000000000048e-04,1.300000000000000157e-04,2.299999999999999799e-04,-5.599999999999999509e-04,5.000000000000000240e-05,2.999999999999999737e-05,-6.999999999999999387e-05,5.000000000000000000e+00,2.300000000000000000e+01
6.077600000000000000e+04,-5.000000000000000240e-05,1.000000000000000048e-04,1.300000000000000157e-04,2.299999999999999799e-04,-5.599999999999999509e-04,5.000000000000000240e-05,2.999999999999999737e-05,-6.999999999999999387e-05,5.000000000000000000e+00,2.300000000000000000e+01
6.077700000000000000e+04,-5.000000000000000240e-05,1.000000000000000048e-04,1.300000000000000157e-04,2.299999999999999799e-04,-5.599999999999999509e-04,5.000000000000000240e-05,2.999999999999999737e-05,-6.999999999999999387e-05,5.000000000000000000e+00,2.300000000000000000e+01
6.077800000000000000e+04,-5.000000000000000240e-05,1.000000000000000048e-04,1.300000000000000157e-04,2.299999999999999799e-04,-5.599999999999999509e-04,5.000000000000000240e-05,2.999999999999999737e-05,-6.999999999999999387e-05,5.000000000000000000e+00,2.300000000000000000e+01
6.077900000000000000e+04,-5.000000000000000240e-05,1.000000000000000048e-04,1.300000000000000157e-04,2.299999999999999799e-04,-5.599999999999999509e-04,5.000000000000000240e-05,2.999999999999999737e-05,-6.999999999999999387e-05,5.000000000000000000e+00,2.300000000000000000e+01
6.078000000000000000e+04,-5.000000000000000240e-05,1.000000000000000048e-04,1.300000000000000157e-04,2.299999999999999799e-04,-5.599999999999999509e-04,5.000000000000000240e-05,2.999999999999999737e-05,-6.999999999999999387e-05,5.000000000000000000e+00,2.300000000000000000e+01
6.078100000000000000e+04,-5.000000000000000240e-05,1.000000000000000048e-04,1.300000000000000157e-04,2.299999999999999799e-04,-5.599999999999999509e-04,5.000000000000000240e-05,2.999999999999999737e-05,-6.999999999999999387e-05,5.000000000000000000e+00,2.300000000000000000e+01
6.078200000000000000e+04,-5.000000000000000240e-05,1.899999999999999834e-04,-3.299999999999999982e-04,-4.200000000000000174e-04,2.399999999999999790e-04,-6.999999999999999387e-05,-1.100000000000000039e-04,-2.999999999999999737e-05,5.000000000000000000e+00,2.300000000000000000e+01
6.078300000000000000e+04,-4.799999999999999580e-04,2.000000000000000096e-04,5.000000000000000240e-05,2.799999999999999755e-04,6.400000000000000524e-04,1.499999999999999869e-04,0.000000000000000000e+00,5.999999999999999474e-05,5.000000000000000000e+00,2.300000000000000000e+01
6.078400000000000000e+04,-4.799999999999999580e-04,2.000000000000000096e-04,5.000000000000000240e-05,2.799999999999999755e-04,6.400000000000000524e-04,1.499999999999999869e-04,0.000000000000000000e+00,5.999999999999999474e-05,5.000000000000000000e+00,2.300000000000000000e+01
6.078500000000000000e+04,-4.799999999999999580e-04,2.000000000000000096e-04,5.000000000000000240e-05,2.799999999999999755e-04,6.400000000000000524e-04,1.499999999999999869e-04,0.000000000000000000e+00,5.999999999999999474e-05,5.000000000000000000e+00,2.300000000000000000e+01
6.078600000000000000e+04,-4.799999999999999580e-04,2.000000000000000096e-04,5.000000000000000240e-05,2.799999999999999755e-04,6.400000000000000524e-04,1.499999999999999869e-04,0.000000000000000000e+00,5.999999999999999474e-05,5.000000000000000000e+00,2.300000000000000000e+01
6.078800000000000000e+04,-4.799999999999999580e-04,2.000000000000000096e-04,5.000000000000000240e-05,2.799999999999999755e-04,6.400000000000000524e-04,1.499999999999999869e-04,0.000000000000000000e+00,5.999999999999999474e-05,5.000000000000000000e+00,2.300000000000000000e+01
6.079000000000000000e+04,-4.799999999999999580e-04,2.000000000000000096e-04,5.000000000000000240e-05,2.799999999999999755e-04,6.400000000000000524e-04,1.499999999999999869e-04,0.000000000000000000e+00,5.999999999999999474e-05,5.000000000000000000e+00,2.300000000000000000e+01
6.079200000000000000e+04,-4.799999999999999580e-04,2.000000000000000096e-04,5.000000000000000240e-05,2.799999999999999755e-04,6.400000000000000524e-04,1.499999999999999869e-04,0.000000000000000000e+00,5.999999999999999474e-05,5.000000000000000000e+00,2.300000000000000000e+01
6.079300000000000000e+04,-4.799999999999999580e-04,2.000000000000000096e-04,5.000000000000000240e-05,2.799999999999999755e-04,6.400000000000000524e-04,1.499999999999999869e-04,0.000000000000000000e+00,5.999999999999999474e-05,5.000000000000000000e+00,2.300000000000000000e+01
6.079400000000000000e+04,-4.799999999999999580e-04,2.000000000000000096e-04,5.000000000000000240e-05,2.799999999999999755e-04,6.400000000000000524e-04,1.499999999999999869e-04,0.000000000000000000e+00,5.999999999999999474e-05,5.000000000000000000e+00,2.300000000000000000e+01
6.079500000000000000e+04,-5.999999999999999474e-05,6.499999999999999702e-04,-2.200000000000000078e-04,-8.000000000000000654e-05,8.400000000000000348e-04,5.099999999999999282e-04,2.299999999999999799e-04,2.999999999999999737e-05,5.000000000000000000e+00,2.300000000000000000e+01
6.079600000000000000e+04,2.000000000000000096e-04,-7.500000000000000156e-04,6.999999999999999387e-05,2.999999999999999737e-04,2.200000000000000078e-04,2.999999999999999737e-05,0.000000000000000000e+00,6.999999999999999387e-05,5.000000000000000000e+00,2.300000000000000000e+01
6.079700000000000000e+04,2.000000000000000096e-04,-7.500000000000000156e-04,6.999999999999999387e-05,2.999999999999999737e-04,2.200000000000000078e-04,2.999999999999999737e-05,0.000000000000000000e+00,6.999999999999999387e-05,5.000000000000000000e+00,2.300000000000000000e+01
6.079800000000000000e+04,2.000000000000000096e-04,-7.500000000000000156e-04,6.999999999999999387e-05,2.999999999999999737e-04,2.200000000000000078e-04,2.999999999999999737e-05,0.000000000000000000e+00,6.999999999999999387e-05,5.000000000000000000e+00,2.300000000000000000e+01
6.079900000000000000e+04,2.000000000000000096e-04,-7.500000000000000156e-04,6.999999999999999387e-05,2.999999999999999737e-04,2.200000000000000078e-04,2.999999999999999737e-05,0.000000000000000000e+00,6.999999999999999387e-05,5.000000000000000000e+00,2.300000000000000000e+01
6.080000000000000000e+04,2.000000000000000096e-04,-7.500000000000000156e-04,6.999999999999999387e-05,2.999999999999999737e-04,2.200000000000000078e-04,2.999999999999999737e-05,0.000000000000000000e+00,6.999999999999999387e-05,5.000000000000000000e+00,2.300000000000000000e+01
6.080100000000000000e+04,2.000000000000000096e-04,-7.500000000000000156e-04,6.999999999999999387e-05,2.999999999999999737e-04,2.200000000000000078e-04,2.999999999999999737e-05,0.000000000000000000e+00,6.999999999999999387e-05,5.000000000000000000e+00,2.300000000000000000e+01
6.080200000000000000e+04,2.000000000000000096e-04,-7.500000000000000156e-04,6.999999999999999387e-05,2.999999999999999737e-04,2.200000000000000078e-04,2.999999999999999737e-05,0.000000000000000000e+00,6.999999999999999387e-05,5.000000000000000000e+00,2.300000000000000000e+01
6.080300000000000000e+04,2.000000000000000096e-04,-7.500000000000000156e-04,6.999999999999999387e-05,2.999999999999999737e-04,2.200000000000000078e-04,2.999999999999999737e-05,0.000000000000000000e+00,6.999999999999999387e-05,5.000000000000000000e+00,2.300000000000000000e+01
6.080400000000000000e+04,2.000000000000000096e-04,-7.500000000000000156e-04,6.999999999999999387e-05,2.999999999999999737e-04,2.200000000000000078e-04,2.999999999999999737e-05,0.000000000000000000e+00,6.999999999999999387e-05,5.000000000000000000e+00,2.300000000000000000e+01
6.080500000000000000e+04,2.000000000000000096e-04,-7.500000000000000156e-04,6.999999999999999387e-05,2.999999999999999737e-04,2.200000000000000078e-04,2.999999999999999737e-05,0.000000000000000000e+00,6.999999999999999387e-05,5.000000000000000000e+00,2.300000000000000000e+01
6.080600000000000000e+04,2.000000000000000096e-04,-7.500000000000000156e-04,6.999999999999999387e-05,2.999999999999999737e-04,2.200000000000000078e-04,2.999999999999999737e-05,0.000000000000000000e+00,6.999999999999999387e-05,5.000000000000000000e+00,2.300000000000000000e+01
6.080700000000000000e+04,2.000000000000000096e-04,-7.500000000000000156e-04,6.999999999999999387e-05,2.999999999999999737e-04,2.200000000000000078e-04,2.999999999999999737e-05,0.000000000000000000e+00,6.999999999999999387e-05,5.000000000000000000e+00,2.300000000000000000e+01
6.080800000000000000e+04,2.000000000000000096e-04,-7.500000000000000156e-04,6.999999999999999387e-05,2.999999999999999737e-04,2.200000000000000078e-04,2.999999999999999737e-05,0.000000000000000000e+00,6.999999999999999387e-05,5.000000000000000000e+00,2.300000000000000000e+01
6.080900000000000000e+04,2.000000000000000096e-04,-7.500000000000000156e-04,6.999999999999999387e-05,2.999999999999999737e-04,2.200000000000000078e-04,2.999999999999999737e-05,0.000000000000000000e+00,6.999999999999999387e-05,5.000000000000000000e+00,2.300000000000000000e+01
6.081000000000000000e+04,2.000000000000000096e-04,-7.500000000000000156e-04,6.999999999999999387e-05,2.999999999999999737e-04,2.200000000000000078e-04,2.999999999999999737e-05,0.000000000000000000e+00,6.999999999999999387e-05,5.000000000000000000e+00,2.300000000000000000e+01
6.081100000000000000e+04,2.000000000000000096e-04,-7.500000000000000156e-04,6.999999999999999387e-05,2.999999999999999737e-04,2.200000000000000078e-04,2.999999999999999737e-05,0.000000000000000000e+00,6.999999999999999387e-05,5.000000000000000000e+00,2.300000000000000000e+01
6.081200000000000000e+04,2.000000000000000096e-04,-7.500000000000000156e-04,6.999999999999999387e-05,2.999999999999999737e-04,2.200000000000000078e-04,2.999999999999999737e-05,0.000000000000000000e+00,6.999999999999999387e-05,5.000000000000000000e+00,2.300000000000000000e+01
6.081300000000000000e+04,2.000000000000000096e-04,-7.500000000000000156e-04,6.999999999999999387e-05,2.999999999999999737e-04,2.200000000000000078e-04,2.999999999999999737e-05,0.000000000000000000e+00,6.999999999999999387e-05,5.000000000000000000e+00,2.300000000000000000e+01
6.081400000000000000e+04,2.000000000000000096e-04,-7.500000000000000156e-04,6.999999999999999387e-05,2.999999999999999737e-04,2.200000000000000078e-04,2.999999999999999737e-05,0.000000000000000000e+00,6.999999999999999387e-05,5.000000000000000000e+00,2.300000000000000000e+01
6.081500000000000000e+04,2.000000000000000096e-04,-7.500000000000000156e-04,6.999999999999999387e-05,2.999999999999999737e-04,2.200000000000000078e-04,2.999999999999999737e-05,0.000000000000000000e+00,6.999999999999999387e-05,5.000000000000000000e+00,2.300000000000000000e+01
6.081600000000000000e+04,2.000000000000000096e-04,-7.500000000000000156e-04,6.999999999999999387e-05,2.999999999999999737e-04,2.200000000000000078e-04,2.999999999999999737e-05,0.000000000000000000e+00,6.999999999999999387e-05,5.000000000000000000e+00,2.300000000000000000e+01
6.081700000000000000e+04,2.000000000000000096e-04,-7.500000000000000156e-04,6.999999999999999387e-05,2.999999999999999737e-04,2.200000000000000078e-04,2.999999999999999737e-05,0.000000000000000000e+00,6.999999999999999387e-05,5.000000000000000000e+00,2.300000000000000000e+01
6.081800000000000000e+04,-1.800000000000000113e-04,3.699999999999999947e-04,4.000000000000000327e-05,-4.499999999999999877e-04,-8.900000000000000576e-04,-1.000000000000000082e-05,-1.000000000000000048e-04,-5.000000000000000240e-05,5.000000000000000000e+00,2.300000000000000000e+01
6.081900000000000000e+04,-1.800000000000000113e-04,3.699999999999999947e-04,4.000000000000000327e-05,-4.499999999999999877e-04,-8.900000000000000576e-04,-1.000000000000000082e-05,-1.000000000000000048e-04,-5.000000000000000240e-05,5.000000000000000000e+00,2.300000000000000000e+01
6.082000000000000000e+04,-1.800000000000000113e-04,3.699999999999999947e-04,4.000000000000000327e-05,-4.499999999999999877e-04,-8.900000000000000576e-04,-1.000000000000000082e-05,-1.000000000000000048e-04,-5.000000000000000240e-05,5.000000000000000000e+00,2.300000000000000000e+01
6.082100000000000000e+04,-1.800000000000000113e-04,3.699999999999999947e-04,4.000000000000000327e-05,-4.499999999999999877e-04,-8.900000000000000576e-04,-1.000000000000000082e-05,-1.000000000000000048e-04,-5.000000000000000240e-05,5.000000000000000000e+00,2.300000000000000000e+01
6.082200000000000000e+04,-1.800000000000000113e-04,3.699999999999999947e-04,4.000000000000000327e-05,-4.499999999999999877e-04,-8.900000000000000576e-04,-1.000000000000000082e-05,-1.000000000000000048e-04,-5.000000000000000240e-05,5.000000000000000000e+00,2.300000000000000000e+01
6.082300000000000000e+04,-1.800000000000000113e-04,3.699999999999999947e-04,4.000000000000000327e-05,-4.499999999999999877e-04,-8.900000000000000576e-04,-1.000000000000000082e-05,-1.000000000000000048e-04,-5.000000000000000240e-05,5.000000000000000000e+00,2.300000000000000000e+01
6.082400000000000000e+04,-1.800000000000000113e-04,3.699999999999999947e-04,4.000000000000000327e-05,-4.499999999999999877e-04,-8.900000000000000576e-04,-1.000000000000000082e-05,-1.000000000000000048e-04,-5.000000000000000240e-05,5.000000000000000000e+00,2.300000000000000000e+01
6.082500000000000000e+04,-1.800000000000000113e-04,3.699999999999999947e-04,4.000000000000000327e-05,-4.499999999999999877e-04,-8.900000000000000576e-04,-1.000000000000000082e-05,-1.000000000000000048e-04,-5.000000000000000240e-05,5.000000000000000000e+00,2.300000000000000000e+01
6.082600000000000000e+04,-1.800000000000000113e-04,3.699999999999999947e-04,4.000000000000000327e-05,-4.499999999999999877e-04,-8.900000000000000576e-04,-1.000000000000000082e-05,-1.000000000000000048e-04,-5.000000000000000240e-05,5.000000000000000000e+00,2.300000000000000000e+01
6.082700000000000000e+04,-1.800000000000000113e-04,3.699999999999999947e-04,4.000000000000000327e-05,-4.499999999999999877e-04,-8.900000000000000576e-04,-1.000000000000000082e-05,-1.000000000000000048e-04,-5.000000000000000240e-05,5.000000000000000000e+00,2.300000000000000000e+01
6.082800000000000000e+04,-1.800000000000000113e-04,3.699999999999999947e-04,4.000000000000000327e-05,-4.499999999999999877e-04,-8.900000000000000576e-04,-1.000000000000000082e-05,-1.000000000000000048e-04,-5.000000000000000240e-05,5.000000000000000000e+00,2.300000000000000000e+01
6.082900000000000000e+04,-1.800000000000000113e-04,3.699999999999999947e-04,4.000000000000000327e-05,-4.499999999999999877e-04,-8.900000000000000576e-04,-1.000000000000000082e-05,-1.000000000000000048e-04,-5.000000000000000240e-05,5.000000000000000000e+00,2.300000000000000000e+01
6.083000000000000000e+04,-1.800000000000000113e-04,3.699999999999999947e-04,4.000000000000000327e-05,-4.499999999999999877e-04,-8.900000000000000576e-04,-1.000000000000000082e-05,-1.000000000000000048e-04,-5.000000000000000240e-05,5.000000000000000000e+00,2.300000000000000000e+01
6.083100000000000000e+04,-1.800000000000000113e-04,3.699999999999999947e-04,4.000000000000000327e-05,-4.499999999999999877e-04,-8.900000000000000576e-04,-1.000000000000000082e-05,-1.000000000000000048e-04,-5.000000000000000240e-05,5.000000000000000000e+00,2.300000000000000000e+01
6.083200000000000000e+04,-1.800000000000000113e-04,3.699999999999999947e-04,4.000000000000000327e-05,-4.499999999999999877e-04,-8.900000000000000576e-04,-1.000000000000000082e-05,-1.000000000000000048e-04,-5.000000000000000240e-05,5.000000000000000000e+00,2.300000000000000000e+01
6.083300000000000000e+04,-1.800000000000000113e-04,3.699999999999999947e-04,4.000000000000000327e-05,-4.499999999999999877e-04,-8.900000000000000576e-04,-1.000000000000000082e-05,-1.000000000000000048e-04,-5.000000000000000240e-05,5.000000000000000000e+00,2.300000000000000000e+01
6.083400000000000000e+04,-1.800000000000000113e-04,3.699999999999999947e-04,4.000000000000000327e-05,-4.499999999999999877e-04,-8.900000000000000576e-04,-1.000000000000000082e-05,-1.000000000000000048e-04,-5.000000000000000240e-05,5.000000000000000000e+00,2.300000000000000000e+01
6.083500000000000000e+04,-1.800000000000000113e-04,3.699999999999999947e-04,4.000000000000000327e-05,-4.499999999999999877e-04,-8.900000000000000576e-04,-1.000000000000000082e-05,-1.000000000000000048e-04,-5.000000000000000240e-05,5.000000000000000000e+00,2.300000000000000000e+01
6.083600000000000000e+04,-1.800000000000000113e-04,3.699999999999999947e-04,4.000000000000000327e-05,-4.499999999999999877e-04,-8.900000000000000576e-04,-1.000000000000000082e-05,-1.000000000000000048e-04,-5.000000000000000240e-05,5.000000000000000000e+00,2.300000000000000000e+01
6.083800000000000000e+04,-1.800000000000000113e-04,3.699999999999999947e-04,4.000000000000000327e-05,-4.499999999999999877e-04,-8.900000000000000576e-04,-1.000000000000000082e-05,-1.000000000000000048e-04,-5.000000000000000240e-05,5.000000000000000000e+00,2.300000000000000000e+01
6.083900000000000000e+04,-1.800000000000000113e-04,3.699999999999999947e-04,4.000000000000000327e-05,-4.499999999999999877e-04,-8.900000000000000576e-04,-1.000000000000000082e-05,-1.000000000000000048e-04,-5.000000000000000240e-05,5.000000000000000000e+00,2.300000000000000000e+01
6.084000000000000000e+04,-1.800000000000000113e-04,3.699999999999999947e-04,4.000000000000000327e-05,-4.499999999999999877e-04,-8.900000000000000576e-04,-1.000000000000000082e-05,-1.000000000000000048e-04,-5.000000000000000240e-05,5.000000000000000000e+00,2.300000000000000000e+01
6.084200000000000000e+04,-1.699999999999999851e-04,-1.499999999999999869e-04,5.999999999999999474e-05,-4.000000000000000327e-05,-5.599999999999999509e-04,-2.999999999999999737e-04,-1.600000000000000131e-04,-6.999999999999999387e-05,5.000000000000000000e+00,2.300000000000000000e+01
6.084300000000000000e+04,-1.800000000000000113e-04,-3.899999999999999929e-04,2.600000000000000314e-04,7.099999999999999107e-04,4.000000000000000192e-04,2.999999999999999737e-05,-6.999999999999999387e-05,5.000000000000000240e-05,5.000000000000000000e+00,2.300000000000000000e+01
6.084400000000000000e+04,-1.800000000000000113e-04,-3.899999999999999929e-04,2.600000000000000314e-04,7.099999999999999107e-04,4.000000000000000192e-04,2.999999999999999737e-05,-6.999999999999999387e-05,5.000000000000000240e-05,5.000000000000000000e+00,2.300000000000000000e+01
6.084500000000000000e+04,-1.800000000000000113e-04,-3.899999999999999929e-04,2.600000000000000314e-04,7.099999999999999107e-04,4.000000000000000192e-04,2.999999999999999737e-05,-6.999999999999999387e-05,5.000000000000000240e-05,5.000000000000000000e+00,2.300000000000000000e+01
6.084600000000000000e+04,-1.800000000000000113e-04,-3.899999999999999929e-04,2.600000000000000314e-04,7.099999999999999107e-04,4.000000000000000192e-04,2.999999999999999737e-05,-6.999999999999999387e-05,5.000000000000000240e-05,5.000000000000000000e+00,2.300000000000000000e+01
6.084700000000000000e+04,-1.800000000000000113e-04,-3.899999999999999929e-04,2.600000000000000314e-04,7.099999999999999107e-04,4.000000000000000192e-04,2.999999999999999737e-05,-6.999999999999999387e-05,5.000000000000000240e-05,5.000000000000000000e+00,2.300000000000000000e+01
6.084800000000000000e+04,-1.800000000000000113e-04,-3.899999999999999929e-04,2.600000000000000314e-04,7.099999999999999107e-04,4.000000000000000192e-04,2.999999999999999737e-05,-6.999999999999999387e-05,5.000000000000000240e-05,5.000000000000000000e+00,2.300000000000000000e+01
6.084900000000000000e+04,-1.800000000000000113e-04,-3.899999999999999929e-04,2.600000000000000314e-04,7.099999999999999107e-04,4.000000000000000192e-04,2.999999999999999737e-05,-6.999999999999999387e-05,5.000000000000000240e-05,5.000000000000000000e+00,2.300000000000000000e+01
6.085000000000000000e+04,-1.800000000000000113e-04,-3.899999999999999929e-04,2.600000000000000314e-04,7.099999999999999107e-04,4.000000000000000192e-04,2.999999999999999737e-05,-6.999999999999999387e-05,5.000000000000000240e-05,5.000000000000000000e+00,2.300000000000000000e+01
6.085100000000000000e+04,-1.800000000000000113e-04,-3.899999999999999929e-04,2.600000000000000314e-04,7.099999999999999107e-04,4.000000000000000192e-04,2.999999999999999737e-05,-6.999999999999999387e-05,5.000000000000000240e-05,5.000000000000000000e+00,2.300000000000000000e+01
6.085200000000000000e+04,-1.800000000000000113e-04,-3.899999999999999929e-04,2.600000000000000314e-04,7.099999999999999107e-04,4.000000000000000192e-04,2.999999999999999737e-05,-6.999999999999999387e-05,5.000000000000000240e-05,5.000000000000000000e+00,2.300000000000000000e+01
6.085300000000000000e+04,-1.800000000000000113e-04,-3.899999999999999929e-04,2.600000000000000314e-04,7.099999999999999107e-04,4.000000000000000192e-04,2.999999999999999737e-05,-6.999999999999999387e-05,5.000000000000000240e-05,5.000000000000000000e+00,2.300000000000000000e+01
6.085400000000000000e+04,-1.800000000000000113e-04,-3.899999999999999929e-04,2.600000000000000314e-04,7.099999999999999107e-04,4.000000000000000192e-04,2.999999999999999737e-05,-6.999999999999999387e-05,5.000000000000000240e-05,5.000000000000000000e+00,2.300000000000000000e+01
6.085500000000000000e+04,-9.000000000000000567e-05,-5.299999999999999807e-04,-1.699999999999999851e-04,6.300000000000000261e-04,-5.200000000000000629e-04,-1.399999999999999877e-04,-1.199999999999999895e-04,-9.000000000000000567e-05,5.000000000000000000e+00,2.300000000000000000e+01
6.085600000000000000e+04,4.299999999999999894e-04,9.000000000000000567e-05,-2.799999999999999755e-04,-5.400000000000000069e-04,1.000000000000000082e-05,-2.600000000000000314e-04,-4.000000000000000327e-05,1.000000000000000082e-05,5.000000000000000000e+00,2.300000000000000000e+01
6.085700000000000000e+04,4.299999999999999894e-04,9.000000000000000567e-05,-2.799999999999999755e-04,-5.400000000000000069e-04,1.000000000000000082e-05,-2.600000000000000314e-04,-4.000000000000000327e-05,1.000000000000000082e-05,5.000000000000000000e+00,2.300000000000000000e+01
6.085800000000000000e+04,4.299999999999999894e-04,9.000000000000000567e-05,-2.799999999999999755e-04,-5.400000000000000069e-04,1.000000000000000082e-05,-2.600000000000000314e-04,-4.000000000000000327e-05,1.000000000000000082e-05,5.000000000000000000e+00,2.300000000000000000e+01
6.085900000000000000e+04,4.299999999999999894e-04,9.000000000000000567e-05,-2.799999999999999755e-04,-5.400000000000000069e-04,1.000000000000000082e-05,-2.600000000000000314e-04,-4.000000000000000327e-05,1.000000000000000082e-05,5.000000000000000000e+00,2.300000000000000000e+01
6.086000000000000000e+04,4.299999999999999894e-04,9.000000000000000567e-05,-2.799999999999999755e-04,-5.400000000000000069e-04,1.000000000000000082e-05,-2.600000000000000314e-04,-4.000000000000000327e-05,1.000000000000000082e-05,5.000000000000000000e+00,2.300000000000000000e+01
6.086100000000000000e+04,4.299999999999999894e-04,9.000000000000000567e-05,-2.799999999999999755e-04,-5.400000000000000069e-04,1.000000000000000082e-05,-2.600000000000000314e-04,-4.000000000000000327e-05,1.000000000000000082e-05,5.000000000000000000e+00,2.300000000000000000e+01
6.086200000000000000e+04,4.299999999999999894e-04,9.000000000000000567e-05,-2.799999999999999755e-04,-5.400000000000000069e-04,1.000000000000000082e-05,-2.600000000000000314e-04,-4.000000000000000327e-05,1.000000000000000082e-05,5.000000000000000000e+00,2.300000000000000000e+01
6.086300000000000000e+04,4.299999999999999894e-04,9.000000000000000567e-05,-2.799999999999999755e-04,-5.400000000000000069e-04,1.000000000000000082e-05,-2.600000000000000314e-04,-4.000000000000000327e-05,1.000000000000000082e-05,5.000000000000000000e+00,2.300000000000000000e+01
6.086400000000000000e+04,4.299999999999999894e-04,9.000000000000000567e-05,-2.799999999999999755e-04,-5.400000000000000069e-04,1.000000000000000082e-05,-2.600000000000000314e-04,-4.000000000000000327e-05,1.000000000000000082e-05,5.000000000000000000e+00,2.300000000000000000e+01
6.086500000000000000e+04,4.299999999999999894e-04,9.000000000000000567e-05,-2.799999999999999755e-04,-5.400000000000000069e-04,1.000000000000000082e-05,-2.600000000000000314e-04,-4.000000000000000327e-05,1.000000000000000082e-05,5.000000000000000000e+00,2.300000000000000000e+01
6.086600000000000000e+04,4.299999999999999894e-04,9.000000000000000567e-05,-2.799999999999999755e-04,-5.400000000000000069e-04,1.000000000000000082e-05,-2.600000000000000314e-04,-4.000000000000000327e-05,1.000000000000000082e-05,5.000000000000000000e+00,2.300000000000000000e+01
6.086700000000000000e+04,4.299999999999999894e-04,9.000000000000000567e-05,-2.799999999999999755e-04,-5.400000000000000069e-04,1.000000000000000082e-05,-2.600000000000000314e-04,-4.000000000000000327e-05,1.000000000000000082e-05,5.000000000000000000e+00,2.300000000000000000e+01
6.086800000000000000e+04,4.299999999999999894e-04,9.000000000000000567e-05,-2.799999999999999755e-04,-5.400000000000000069e-04,1.000000000000000082e-05,-2.600000000000000314e-04,-4.000000000000000327e-05,1.000000000000000082e-05,5.000000000000000000e+00,2.300000000000000000e+01
6.086900000000000000e+04,4.299999999999999894e-04,9.000000000000000567e-05,-2.799999999999999755e-04,-5.400000000000000069e-04,1.000000000000000082e-05,-2.600000000000000314e-04,-4.000000000000000327e-05,1.000000000000000082e-05,5.000000000000000000e+00,2.300000000000000000e+01
6.087000000000000000e+04,4.299999999999999894e-04,9.000000000000000567e-05,-2.799999999999999755e-04,-5.400000000000000069e-04,1.000000000000000082e-05,-2.600000000000000314e-04,-4.000000000000000327e-05,1.000000000000000082e-05,5.000000000000000000e+00,2.300000000000000000e+01
6.087100000000000000e+04,4.299999999999999894e-04,9.000000000000000567e-05,-2.799999999999999755e-04,-5.400000000000000069e-04,1.000000000000000082e-05,-2.600000000000000314e-04,-4.000000000000000327e-05,1.000000000000000082e-05,5.000000000000000000e+00,2.300000000000000000e+01
6.087200000000000000e+04,4.299999999999999894e-04,9.000000000000000567e-05,-2.799999999999999755e-04,-5.400000000000000069e-04,1.000000000000000082e-05,-2.600000000000000314e-04,-4.000000000000000327e-05,1.000000000000000082e-05,5.000000000000000000e+00,2.300000000000000000e+01
6.087300000000000000e+04,4.299999999999999894e-04,9.000000000000000567e-05,-2.799999999999999755e-04,-5.400000000000000069e-04,1.000000000000000082e-05,-2.600000000000000314e-04,-4.000000000000000327e-05,1.000000000000000082e-05,5.000000000000000000e+00,2.300000000000000000e+01
6.087400000000000000e+04,4.299999999999999894e-04,9.000000000000000567e-05,-2.799999999999999755e-04,-5.400000000000000069e-04,1.000000000000000082e-05,-2.600000000000000314e-04,-4.000000000000000327e-05,1.000000000000000082e-05,5.000000000000000000e+00,2.300000000000000000e+01
6.087500000000000000e+04,4.299999999999999894e-04,9.000000000000000567e-05,-2.799999999999999755e-04,-5.400000000000000069e-04,1.000000000000000082e-05,-2.600000000000000314e-04,-4.000000000000000327e-05,1.000000000000000082e-05,5.000000000000000000e+00,2.300000000000000000e+01
6.087600000000000000e+04,4.299999999999999894e-04,9.000000000000000567e-05,-2.799999999999999755e-04,-5.400000000000000069e-04,1.000000000000000082e-05,-2.600000000000000314e-04,-4.000000000000000327e-05,1.000000000000000082e-05,5.000000000000000000e+00,2.300000000000000000e+01
6.087700000000000000e+04,4.299999999999999894e-04,9.000000000000000567e-05,-2.799999999999999755e-04,-5.400000000000000069e-04,1.000000000000000082e-05,-2.600000000000000314e-04,-4.000000000000000327e-05,1.000000000000000082e-05,5.000000000000000000e+00,2.300000000000000000e+01
6.087800000000000000e+04,4.299999999999999894e-04,9.000000000000000567e-05,-2.799999999999999755e-04,-5.400000000000000069e-04,1.000000000000000082e-05,-2.600000000000000314e-04,-4.000000000000000327e-05,1.000000000000000082e-05,5.000000000000000000e+00,2.300000000000000000e+01
6.087900000000000000e+04,4.299999999999999894e-04,9.000000000000000567e-05,-2.799999999999999755e-04,-5.400000000000000069e-04,1.000000000000000082e-05,-2.600000000000000314e-04,-4.000000000000000327e-05,1.000000000000000082e-05,5.000000000000000000e+00,2.300000000000000000e+01
6.088000000000000000e+04,4.299999999999999894e-04,9.000000000000000567e-05,-2.799999999999999755e-04,-5.400000000000000069e-04,1.000000000000000082e-05,-2.600000000000000314e-04,-4.000000000000000327e-05,1.000000000000000082e-05,5.000000000000000000e+00,2.300000000000000000e+01
6.088100000000000000e+04,4.299999999999999894e-04,9.000000000000000567e-05,-2.799999999999999755e-04,-5.400000000000000069e-04,1.000000000000000082e-05,-2.600000000000000314e-04,-4.000000000000000327e-05,1.000000000000000082e-05,5.000000000000000000e+00,2.300000000000000000e+01
6.088200000000000000e+04,4.299999999999999894e-04,9.000000000000000567e-05,-2.799999999999999755e-04,-5.400000000000000069e-04,1.000000000000000082e-05,-2.600000000000000314e-04,-4.000000000000000327e-05,1.000000000000000082e-05,5.000000000000000000e+00,2.300000000000000000e+01
6.088300000000000000e+04,4.299999999999999894e-04,9.000000000000000567e-05,-2.799999999999999755e-04,-5.400000000000000069e-04,1.000000000000000082e-05,-2.600000000000000314e-04,-4.000000000000000327e-05,1.000000000000000082e-05,5.000000000000000000e+00,2.300000000000000000e+01
6.088400000000000000e+04,4.299999999999999894e-04,9.000000000000000567e-05,-2.799999999999999755e-04,-5.400000000000000069e-04,1.000000000000000082e-05,-2.600000000000000314e-04,-4.000000000000000327e-05,1.000000000000000082e-05,5.000000000000000000e+00,2.300000000000000000e+01
6.088500000000000000e+04,4.299999999999999894e-04,9.000000000000000567e-05,-2.799999999999999755e-04,-5.400000000000000069e-04,1.000000000000000082e-05,-2.600000000000000314e-04,-4.000000000000000327e-05,1.000000000000000082e-05,5.000000000000000000e+00,2.300000000000000000e+01
6.088600000000000000e+04,5.699999999999999772e-04,2.299999999999999799e-04,-8.000000000000000654e-05,-7.900000000000000121e-04,-6.199999999999999999e-04,-3.499999999999999964e-04,-1.199999999999999895e-04,2.000000000000000164e-05,5.000000000000000000e+00,2.300000000000000000e+01
6.088900000000000000e+04,-2.999999999999999737e-04,-2.000000000000000164e-05,2.000000000000000164e-05,-1.800000000000000113e-04,-6.099999999999999737e-04,-4.000000000000000192e-04,-1.499999999999999869e-04,-1.000000000000000082e-05,5.000000000000000000e+00,2.300000000000000000e+01
6.089000000000000000e+04,-2.999999999999999737e-04,-2.000000000000000164e-05,2.000000000000000164e-05,-1.800000000000000113e-04,-6.099999999999999737e-04,-4.000000000000000192e-04,-1.499999999999999869e-04,-1.000000000000000082e-05,5.000000000000000000e+00,2.300000000000000000e+01
6.089100000000000000e+04,-2.999999999999999737e-04,-2.000000000000000164e-05,2.000000000000000164e-05,-1.800000000000000113e-04,-6.099999999999999737e-04,-4.000000000000000192e-04,-1.499999999999999869e-04,-1.000000000000000082e-05,5.000000000000000000e+00,2.300000000000000000e+01
6.089200000000000000e+04,-2.999999999999999737e-04,-2.000000000000000164e-05,2.000000000000000164e-05,-1.800000000000000113e-04,-6.099999999999999737e-04,-4.000000000000000192e-04,-1.499999999999999869e-04,-1.000000000000000082e-05,5.000000000000000000e+00,2.300000000000000000e+01
6.089300000000000000e+04,-2.999999999999999737e-04,-2.000000000000000164e-05,2.000000000000000164e-05,-1.800000000000000113e-04,-6.099999999999999737e-04,-4.000000000000000192e-04,-1.499999999999999869e-04,-1.000000000000000082e-05,5.000000000000000000e+00,2.300000000000000000e+01
6.089400000000000000e+04,-2.999999999999999737e-04,-2.000000000000000164e-05,2.000000000000000164e-05,-1.800000000000000113e-04,-6.099999999999999737e-04,-4.000000000000000192e-04,-1.499999999999999869e-04,-1.000000000000000082e-05,5.000000000000000000e+00,2.300000000000000000e+01
6.089500000000000000e+04,-2.999999999999999737e-04,-2.000000000000000164e-05,2.000000000000000164e-05,-1.800000000000000113e-04,-6.099999999999999737e-04,-4.000000000000000192e-04,-1.499999999999999869e-04,-1.000000000000000082e-05,5.000000000000000000e+00,2.300000000000000000e+01
6.089600000000000000e+04,-2.999999999999999737e-04,-2.000000000000000164e-05,2.000000000000000164e-05,-1.800000000000000113e-04,-6.099999999999999737e-04,-4.000000000000000192e-04,-1.499999999999999869e-04,-1.000000000000000082e-05,5.000000000000000000e+00,2.300000000000000000e+01
6.089700000000000000e+04,-2.999999999999999737e-04,-2.000000000000000164e-05,2.000000000000000164e-05,-1.800000000000000113e-04,-6.099999999999999737e-04,-4.000000000000000192e-04,-1.499999999999999869e-04,-1.000000000000000082e-05,5.000000000000000000e+00,2.300000000000000000e+01
6.089800000000000000e+04,-2.999999999999999737e-04,-2.000000000000000164e-05,2.000000000000000164e-05,-1.800000000000000113e-04,-6.099999999999999737e-04,-4.000000000000000192e-04,-1.499999999999999869e-04,-1.000000000000000082e-05,5.000000000000000000e+00,2.300000000000000000e+01
6.089900000000000000e+04,-2.999999999999999737e-04,-2.000000000000000164e-05,2.000000000000000164e-05,-1.800000000000000113e-04,-6.099999999999999737e-04,-4.000000000000000192e-04,-1.499999999999999869e-04,-1.000000000000000082e-05,5.000000000000000000e+00,2.300000000000000000e+01
6.090000000000000000e+04,-2.999999999999999737e-04,-2.000000000000000164e-05,2.000000000000000164e-05,-1.800000000000000113e-04,-6.099999999999999737e-04,-4.000000000000000192e-04,-1.499999999999999869e-04,-1.000000000000000082e-05,5.000000000000000000e+00,2.300000000000000000e+01
6.090100000000000000e+04,-7.200000000000000453e-04,-8.300000000000001170e-04,-1.600000000000000131e-04,-3.799999999999999667e-04,-1.600000000000000131e-04,2.700000000000000035e-04,1.000000000000000082e-05,-2.999999999999999737e-05,5.000000000000000000e+00,2.300000000000000000e+01
6.090200000000000000e+04,5.099999999999999282e-04,4.799999999999999580e-04,2.000000000000000164e-05,-3.600000000000000227e-04,-1.149999999999999981e-03,-1.399999999999999877e-04,8.000000000000000654e-05,5.000000000000000240e-05,5.000000000000000000e+00,2.300000000000000000e+01
6.090300000000000000e+04,5.099999999999999282e-04,4.799999999999999580e-04,2.000000000000000164e-05,-3.600000000000000227e-04,-1.149999999999999981e-03,-1.399999999999999877e-04,8.000000000000000654e-05,5.000000000000000240e-05,5.000000000000000000e+00,2.300000000000000000e+01
6.090400000000000000e+04,5.099999999999999282e-04,4.799999999999999580e-04,2.000000000000000164e-05,-3.600000000000000227e-04,-1.149999999999999981e-03,-1.399999999999999877e-04,8.000000000000000654e-05,5.000000000000000240e-05,5.000000000000000000e+00,2.300000000000000000e+01
6.090500000000000000e+04,5.099999999999999282e-04,4.799999999999999580e-04,2.000000000000000164e-05,-3.600000000000000227e-04,-1.149999999999999981e-03,-1.399999999999999877e-04,8.000000000000000654e-05,5.000000000000000240e-05,5.000000000000000000e+00,2.300000000000000000e+01
6.090600000000000000e+04,5.099999999999999282e-04,4.799999999999999580e-04,2.000000000000000164e-05,-3.600000000000000227e-04,-1.149999999999999981e-03,-1.399999999999999877e-04,8.000000000000000654e-05,5.000000000000000240e-05,5.000000000000000000e+00,2.300000000000000000e+01
6.090700000000000000e+04,5.099999999999999282e-04,4.799999999999999580e-04,2.000000000000000164e-05,-3.600000000000000227e-04,-1.149999999999999981e-03,-1.399999999999999877e-04,8.000000000000000654e-05,5.000000000000000240e-05,5.000000000000000000e+00,2.300000000000000000e+01
6.090800000000000000e+04,5.099999999999999282e-04,4.799999999999999580e-04,2.000000000000000164e-05,-3.600000000000000227e-04,-1.149999999999999981e-03,-1.399999999999999877e-04,8.000000000000000654e-05,5.000000000000000240e-05,5.000000000000000000e+00,2.300000000000000000e+01
6.090900000000000000e+04,5.099999999999999282e-04,4.799999999999999580e-04,2.000000000000000164e-05,-3.600000000000000227e-04,-1.149999999999999981e-03,-1.399999999999999877e-04,8.000000000000000654e-05,5.000000000000000240e-05,5.000000000000000000e+00,2.300000000000000000e+01
6.091000000000000000e+04,5.099999999999999282e-04,4.799999999999999580e-04,2.000000000000000164e-05,-3.600000000000000227e-04,-1.149999999999999981e-03,-1.399999999999999877e-04,8.000000000000000654e-05,5.000000000000000240e-05,5.000000000000000000e+00,2.300000000000000000e+01
6.091100000000000000e+04,5.099999999999999282e-04,4.799999999999999580e-04,2.000000000000000164e-05,-3.600000000000000227e-04,-1.149999999999999981e-03,-1.399999999999999877e-04,8.000000000000000654e-05,5.000000000000000240e-05,5.000000000000000000e+00,2.300000000000000000e+01
6.091200000000000000e+04,5.099999999999999282e-04,4.799999999999999580e-04,2.000000000000000164e-05,-3.600000000000000227e-04,-1.149999999999999981e-03,-1.399999999999999877e-04,8.000000000000000654e-05,5.000000000000000240e-05,5.000000000000000000e+00,2.300000000000000000e+01
6.091300000000000000e+04,5.099999999999999282e-04,4.799999999999999580e-04,2.000000000000000164e-05,-3.600000000000000227e-04,-1.149999999999999981e-03,-1.399999999999999877e-04,8.000000000000000654e-05,5.000000000000000240e-05,5.000000000000000000e+00,2.300000000000000000e+01
6.091400000000000000e+04,-9.699999999999999421e-04,5.999999999999999474e-05,1.100000000000000039e-04,2.700000000000000035e-04,5.699999999999999772e-04,5.999999999999999474e-05,-5.000000000000000240e-05,-1.100000000000000039e-04,5.000000000000000000e+00,2.300000000000000000e+01
6.091500000000000000e+04,-9.699999999999999421e-04,5.999999999999999474e-05,1.100000000000000039e-04,2.700000000000000035e-04,5.699999999999999772e-04,5.999999999999999474e-05,-5.000000000000000240e-05,-1.100000000000000039e-04,5.000000000000000000e+00,2.300000000000000000e+01
6.091600000000000000e+04,-9.699999999999999421e-04,5.999999999999999474e-05,1.100000000000000039e-04,2.700000000000000035e-04,5.699999999999999772e-04,5.999999999999999474e-05,-5.000000000000000240e-05,-1.100000000000000039e-04,5.000000000000000000e+00,2.300000000000000000e+01
6.091700000000000000e+04,-9.699999999999999421e-04,5.999999999999999474e-05,1.100000000000000039e-04,2.700000000000000035e-04,5.699999999999999772e-04,5.999999999999999474e-05,-5.000000000000000240e-05,-1.100000000000000039e-04,5.000000000000000000e+00,2.300000000000000000e+01
6.091800000000000000e+04,-9.699999999999999421e-04,5.999999999999999474e-05,1.100000000000000039e-04,2.700000000000000035e-04,5.699999999999999772e-04,5.999999999999999474e-05,-5.000000000000000240e-05,-1.100000000000000039e-04,5.000000000000000000e+00,2.300000000000000000e+01
6.091900000000000000e+04,-9.699999999999999421e-04,5.999999999999999474e-05,1.100000000000000039e-04,2.700000000000000035e-04,5.699999999999999772e-04,5.999999999999999474e-05,-5.000000000000000240e-05,-1.100000000000000039e-04,5.000000000000000000e+00,2.300000000000000000e+01
6.092000000000000000e+04,-9.699999999999999421e-04,5.999999999999999474e-05,1.100000000000000039e-04,2.700000000000000035e-04,5.699999999999999772e-04,5.999999999999999474e-05,-5.000000000000000240e-05,-1.100000000000000039e-04,5.000000000000000000e+00,2.300000000000000000e+01
6.092100000000000000e+04,-9.699999999999999421e-04,5.999999999999999474e-05,1.100000000000000039e-04,2.700000000000000035e-04,5.699999999999999772e-04,5.999999999999999474e-05,-5.000000000000000240e-05,-1.100000000000000039e-04,5.000000000000000000e+00,2.300000000000000000e+01
6.092200000000000000e+04,4.499999999999999877e-04,2.799999999999999755e-04,4.000000000000000327e-05,-4.299999999999999894e-04,2.000000000000000096e-04,1.899999999999999834e-04,2.200000000000000078e-04,5.000000000000000240e-05,5.000000000000000000e+00,2.300000000000000000e+01
6.092300000000000000e+04,-1.499999999999999869e-04,-6.900000000000000751e-04,5.999999999999999474e-05,3.200000000000000262e-04,-6.099999999999999737e-04,-4.000000000000000327e-05,-8.000000000000000654e-05,6.999999999999999387e-05,5.000000000000000000e+00,2.300000000000000000e+01
6.092500000000000000e+04,-1.499999999999999869e-04,-6.900000000000000751e-04,5.999999999999999474e-05,3.200000000000000262e-04,-6.099999999999999737e-04,-4.000000000000000327e-05,-8.000000000000000654e-05,6.999999999999999387e-05,5.000000000000000000e+00,2.300000000000000000e+01
6.092600000000000000e+04,-1.499999999999999869e-04,-6.900000000000000751e-04,5.999999999999999474e-05,3.200000000000000262e-04,-6.099999999999999737e-04,-4.000000000000000327e-05,-8.000000000000000654e-05,6.999999999999999387e-05,5.000000000000000000e+00,2.300000000000000000e+01
6.092700000000000000e+04,-1.499999999999999869e-04,-6.900000000000000751e-04,5.999999999999999474e-05,3.200000000000000262e-04,-6.099999999999999737e-04,-4.000000000000000327e-05,-8.000000000000000654e-05,6.999999999999999387e-05,5.000000000000000000e+00,2.300000000000000000e+01
6.092800000000000000e+04,-1.499999999999999869e-04,-6.900000000000000751e-04,5.999999999999999474e-05,3.200000000000000262e-04,-6.099999999999999737e-04,-4.000000000000000327e-05,-8.000000000000000654e-05,6.999999999999999387e-05,5.000000000000000000e+00,2.300000000000000000e+01
6.092900000000000000e+04,-1.499999999999999869e-04,-6.900000000000000751e-04,5.999999999999999474e-05,3.200000000000000262e-04,-6.099999999999999737e-04,-4.000000000000000327e-05,-8.000000000000000654e-05,6.999999999999999387e-05,5.000000000000000000e+00,2.300000000000000000e+01
6.093000000000000000e+04,-1.499999999999999869e-04,-6.900000000000000751e-04,5.999999999999999474e-05,3.200000000000000262e-04,-6.099999999999999737e-04,-4.000000000000000327e-05,-8.000000000000000654e-05,6.999999999999999387e-05,5.000000000000000000e+00,2.300000000000000000e+01
6.093100000000000000e+04,-1.499999999999999869e-04,-6.900000000000000751e-04,5.999999999999999474e-05,3.200000000000000262e-04,-6.099999999999999737e-04,-4.000000000000000327e-05,-8.000000000000000654e-05,6.999999999999999387e-05,5.000000000000000000e+00,2.300000000000000000e+01
6.093200000000000000e+04,-1.499999999999999869e-04,-6.900000000000000751e-04,5.999999999999999474e-05,3.200000000000000262e-04,-6.099999999999999737e-04,-4.000000000000000327e-05,-8.000000000000000654e-05,6.999999999999999387e-05,5.000000000000000000e+00,2.300000000000000000e+01
6.093300000000000000e+04,-1.499999999999999869e-04,-6.900000000000000751e-04,5.999999999999999474e-05,3.200000000000000262e-04,-6.099999999999999737e-04,-4.000000000000000327e-05,-8.000000000000000654e-05,6.999999999999999387e-05,5.000000000000000000e+00,2.300000000000000000e+01
6.093400000000000000e+04,-1.499999999999999869e-04,-6.900000000000000751e-04,5.999999999999999474e-05,3.200000000000000262e-04,-6.099999999999999737e-04,-4.000000000000000327e-05,-8.000000000000000654e-05,6.999999999999999387e-05,5.000000000000000000e+00,2.300000000000000000e+01
6.093500000000000000e+04,-1.499999999999999869e-04,-6.900000000000000751e-04,5.999999999999999474e-05,3.200000000000000262e-04,-6.099999999999999737e-04,-4.000000000000000327e-05,-8.000000000000000654e-05,6.999999999999999387e-05,5.000000000000000000e+00,2.300000000000000000e+01
6.093600000000000000e+04,-1.499999999999999869e-04,-6.900000000000000751e-04,5.999999999999999474e-05,3.200000000000000262e-04,-6.099999999999999737e-04,-4.000000000000000327e-05,-8.000000000000000654e-05,6.999999999999999387e-05,5.000000000000000000e+00,2.300000000000000000e+01
6.093900000000000000e+04,-1.699999999999999851e-04,1.699999999999999851e-04,-2.799999999999999755e-04,-3.899999999999999929e-04,5.200000000000000629e-04,-5.999999999999999474e-05,2.999999999999999737e-05,-1.399999999999999877e-04,5.000000000000000000e+00,2.300000000000000000e+01
6.094000000000000000e+04,-1.699999999999999851e-04,1.699999999999999851e-04,-2.799999999999999755e-04,-3.899999999999999929e-04,5.200000000000000629e-04,-5.999999999999999474e-05,2.999999999999999737e-05,-1.399999999999999877e-04,5.000000000000000000e+00,2.300000000000000000e+01
6.094100000000000000e+04,-1.699999999999999851e-04,1.699999999999999851e-04,-2.799999999999999755e-04,-3.899999999999999929e-04,5.200000000000000629e-04,-5.999999999999999474e-05,2.999999999999999737e-05,-1.399999999999999877e-04,5.000000000000000000e+00,2.300000000000000000e+01
6.094200000000000000e+04,-1.699999999999999851e-04,1.699999999999999851e-04,-2.799999999999999755e-04,-3.899999999999999929e-04,5.200000000000000629e-04,-5.999999999999999474e-05,2.999999999999999737e-05,-1.399999999999999877e-04,5.000000000000000000e+00,2.300000000000000000e+01
6.094300000000000000e+04,-1.699999999999999851e-04,1.699999999999999851e-04,-2.799999999999999755e-04,-3.899999999999999929e-04,5.200000000000000629e-04,-5.999999999999999474e-05,2.999999999999999737e-05,-1.399999999999999877e-04,5.000000000000000000e+00,2.300000000000000000e+01
6.094400000000000000e+04,-1.699999999999999851e-04,1.699999999999999851e-04,-2.799999999999999755e-04,-3.899999999999999929e-04,5.200000000000000629e-04,-5.999999999999999474e-05,2.999999999999999737e-05,-1.399999999999999877e-04,5.000000000000000000e+00,2.300000000000000000e+01
6.094600000000000000e+04,-1.699999999999999851e-04,1.699999999999999851e-04,-2.799999999999999755e-04,-3.899999999999999929e-04,5.200000000000000629e-04,-5.999999999999999474e-05,2.999999999999999737e-05,-1.399999999999999877e-04,5.000000000000000000e+00,2.300000000000000000e+01
6.094700000000000000e+04,-1.699999999999999851e-04,1.699999999999999851e-04,-2.799999999999999755e-04,-3.899999999999999929e-04,5.200000000000000629e-04,-5.999999999999999474e-05,2.999999999999999737e-05,-1.399999999999999877e-04,5.000000000000000000e+00,2.300000000000000000e+01
6.094800000000000000e+04,-1.699999999999999851e-04,1.699999999999999851e-04,-2.799999999999999755e-04,-3.899999999999999929e-04,5.200000000000000629e-04,-5.999999999999999474e-05,2.999999999999999737e-05,-1.399999999999999877e-04,5.000000000000000000e+00,2.300000000000000000e+01
6.094900000000000000e+04,-1.699999999999999851e-04,1.699999999999999851e-04,-2.799999999999999755e-04,-3.899999999999999929e-04,5.200000000000000629e-04,-5.999999999999999474e-05,2.999999999999999737e-05,-1.399999999999999877e-04,5.000000000000000000e+00,2.300000000000000000e+01
6.095000000000000000e+04,-1.699999999999999851e-04,1.699999999999999851e-04,-2.799999999999999755e-04,-3.899999999999999929e-04,5.200000000000000629e-04,-5.999999999999999474e-05,2.999999999999999737e-05,-1.399999999999999877e-04,5.000000000000000000e+00,2.300000000000000000e+01
6.095100000000000000e+04,-1.699999999999999851e-04,1.699999999999999851e-04,-2.799999999999999755e-04,-3.899999999999999929e-04,5.200000000000000629e-04,-5.999999999999999474e-05,2.999999999999999737e-05,-1.399999999999999877e-04,5.000000000000000000e+00,2.300000000000000000e+01
6.095200000000000000e+04,-1.699999999999999851e-04,1.699999999999999851e-04,-2.799999999999999755e-04,-3.899999999999999929e-04,5.200000000000000629e-04,-5.999999999999999474e-05,2.999999999999999737e-05,-1.399999999999999877e-04,5.000000000000000000e+00,2.300000000000000000e+01
6.095300000000000000e+04,-1.699999999999999851e-04,1.699999999999999851e-04,-2.799999999999999755e-04,-3.899999999999999929e-04,5.200000000000000629e-04,-5.999999999999999474e-05,2.999999999999999737e-05,-1.399999999999999877e-04,5.000000000000000000e+00,2.300000000000000000e+01
6.095400000000000000e+04,-1.699999999999999851e-04,1.699999999999999851e-04,-2.799999999999999755e-04,-3.899999999999999929e-04,5.200000000000000629e-04,-5.999999999999999474e-05,2.999999999999999737e-05,-1.399999999999999877e-04,5.000000000000000000e+00,2.300000000000000000e+01
6.095500000000000000e+04,-1.699999999999999851e-04,1.699999999999999851e-04,-2.799999999999999755e-04,-3.899999999999999929e-04,5.200000000000000629e-04,-5.999999999999999474e-05,2.999999999999999737e-05,-1.399999999999999877e-04,5.000000000000000000e+00,2.300000000000000000e+01
6.095600000000000000e+04,-1.699999999999999851e-04,1.699999999999999851e-04,-2.799999999999999755e-04,-3.899999999999999929e-04,5.200000000000000629e-04,-5.999999999999999474e-05,2.999999999999999737e-05,-1.399999999999999877e-04,5.000000000000000000e+00,2.300000000000000000e+01
6.095700000000000000e+04,-1.699999999999999851e-04,1.699999999999999851e-04,-2.799999999999999755e-04,-3.899999999999999929e-04,5.200000000000000629e-04,-5.999999999999999474e-05,2.999999999999999737e-05,-1.399999999999999877e-04,5.000000000000000000e+00,2.300000000000000000e+01
6.095800000000000000e+04,-1.699999999999999851e-04,1.699999999999999851e-04,-2.799999999999999755e-04,-3.899999999999999929e-04,5.200000000000000629e-04,-5.999999999999999474e-05,2.999999999999999737e-05,-1.399999999999999877e-04,5.000000000000000000e+00,2.300000000000000000e+01
6.095900000000000000e+04,-1.699999999999999851e-04,1.699999999999999851e-04,-2.799999999999999755e-04,-3.899999999999999929e-04,5.200000000000000629e-04,-5.999999999999999474e-05,2.999999999999999737e-05,-1.399999999999999877e-04,5.000000000000000000e+00,2.300000000000000000e+01
6.096000000000000000e+04,-1.699999999999999851e-04,1.699999999999999851e-04,-2.799999999999999755e-04,-3.899999999999999929e-04,5.200000000000000629e-04,-5.999999999999999474e-05,2.999999999999999737e-05,-1.399999999999999877e-04,5.000000000000000000e+00,2.300000000000000000e+01
6.096100000000000000e+04,-5.999999999999999474e-05,-4.799999999999999580e-04,-5.999999999999999474e-05,1.300000000000000157e-04,4.299999999999999894e-04,1.499999999999999869e-04,-4.000000000000000327e-05,5.000000000000000240e-05,5.000000000000000000e+00,2.300000000000000000e+01
6.096200000000000000e+04,1.800000000000000113e-04,8.699999999999998967e-04,8.000000000000000654e-05,2.999999999999999737e-05,6.900000000000000751e-04,9.000000000000000567e-05,2.999999999999999737e-05,5.000000000000000240e-05,5.000000000000000000e+00,2.300000000000000000e+01
6.096400000000000000e+04,1.800000000000000113e-04,8.699999999999998967e-04,8.000000000000000654e-05,2.999999999999999737e-05,6.900000000000000751e-04,9.000000000000000567e-05,2.999999999999999737e-05,5.000000000000000240e-05,5.000000000000000000e+00,2.300000000000000000e+01
6.096500000000000000e+04,1.800000000000000113e-04,8.699999999999998967e-04,8.000000000000000654e-05,2.999999999999999737e-05,6.900000000000000751e-04,9.000000000000000567e-05,2.999999999999999737e-05,5.000000000000000240e-05,5.000000000000000000e+00,2.300000000000000000e+01
6.096600000000000000e+04,1.800000000000000113e-04,8.699999999999998967e-04,8.000000000000000654e-05,2.999999999999999737e-05,6.900000000000000751e-04,9.000000000000000567e-05,2.999999999999999737e-05,5.000000000000000240e-05,5.000000000000000000e+00,2.300000000000000000e+01
6.096700000000000000e+04,1.800000000000000113e-04,8.699999999999998967e-04,8.000000000000000654e-05,2.999999999999999737e-05,6.900000000000000751e-04,9.000000000000000567e-05,2.999999999999999737e-05,5.000000000000000240e-05,5.000000000000000000e+00,2.300000000000000000e+01
6.096800000000000000e+04,1.800000000000000113e-04,8.699999999999998967e-04,8.000000000000000654e-05,2.999999999999999737e-05,6.900000000000000751e-04,9.000000000000000567e-05,2.999999999999999737e-05,5.000000000000000240e-05,5.000000000000000000e+00,2.300000000000000000e+01
6.096900000000000000e+04,1.800000000000000113e-04,8.699999999999998967e-04,8.000000000000000654e-05,2.999999999999999737e-05,6.900000000000000751e-04,9.000000000000000567e-05,2.999999999999999737e-05,5.000000000000000240e-05,5.000000000000000000e+00,2.300000000000000000e+01
6.097000000000000000e+04,1.800000000000000113e-04,8.699999999999998967e-04,8.000000000000000654e-05,2.999999999999999737e-05,6.900000000000000751e-04,9.000000000000000567e-05,2.999999999999999737e-05,5.000000000000000240e-05,5.000000000000000000e+00,2.300000000000000000e+01
6.097100000000000000e+04,1.800000000000000113e-04,8.699999999999998967e-04,8.000000000000000654e-05,2.999999999999999737e-05,6.900000000000000751e-04,9.000000000000000567e-05,2.999999999999999737e-05,5.000000000000000240e-05,5.000000000000000000e+00,2.300000000000000000e+01
6.097200000000000000e+04,1.800000000000000113e-04,8.699999999999998967e-04,8.000000000000000654e-05,2.999999999999999737e-05,6.900000000000000751e-04,9.000000000000000567e-05,2.999999999999999737e-05,5.000000000000000240e-05,5.000000000000000000e+00,2.300000000000000000e+01
6.097300000000000000e+04,1.800000000000000113e-04,8.699999999999998967e-04,8.000000000000000654e-05,2.999999999999999737e-05,6.900000000000000751e-04,9.000000000000000567e-05,2.999999999999999737e-05,5.000000000000000240e-05,5.000000000000000000e+00,2.300000000000000000e+01
6.097400000000000000e+04,1.800000000000000113e-04,8.699999999999998967e-04,8.000000000000000654e-05,2.999999999999999737e-05,6.900000000000000751e-04,9.000000000000000567e-05,2.999999999999999737e-05,5.000000000000000240e-05,5.000000000000000000e+00,2.300000000000000000e+01
6.097500000000000000e+04,1.800000000000000113e-04,8.699999999999998967e-04,8.000000000000000654e-05,2.999999999999999737e-05,6.900000000000000751e-04,9.000000000000000567e-05,2.999999999999999737e-05,5.000000000000000240e-05,5.000000000000000000e+00,2.300000000000000000e+01
6.097600000000000000e+04,1.800000000000000113e-04,8.699999999999998967e-04,8.000000000000000654e-05,2.999999999999999737e-05,6.900000000000000751e-04,9.000000000000000567e-05,2.999999999999999737e-05,5.000000000000000240e-05,5.000000000000000000e+00,2.300000000000000000e+01
6.097700000000000000e+04,1.800000000000000113e-04,8.699999999999998967e-04,8.000000000000000654e-05,2.999999999999999737e-05,6.900000000000000751e-04,9.000000000000000567e-05,2.999999999999999737e-05,5.000000000000000240e-05,5.000000000000000000e+00,2.300000000000000000e+01
6.097800000000000000e+04,1.800000000000000113e-04,8.699999999999998967e-04,8.000000000000000654e-05,2.999999999999999737e-05,6.900000000000000751e-04,9.000000000000000567e-05,2.999999999999999737e-05,5.000000000000000240e-05,5.000000000000000000e+00,2.300000000000000000e+01
6.097900000000000000e+04,1.800000000000000113e-04,8.699999999999998967e-04,8.000000000000000654e-05,2.999999999999999737e-05,6.900000000000000751e-04,9.000000000000000567e-05,2.999999999999999737e-05,5.000000000000000240e-05,5.000000000000000000e+00,2.300000000000000000e+01
6.098000000000000000e+04,1.800000000000000113e-04,8.699999999999998967e-04,8.000000000000000654e-05,2.999999999999999737e-05,6.900000000000000751e-04,9.000000000000000567e-05,2.999999999999999737e-05,5.000000000000000240e-05,5.000000000000000000e+00,2.300000000000000000e+01
6.098100000000000000e+04,1.800000000000000113e-04,8.699999999999998967e-04,8.000000000000000654e-05,2.999999999999999737e-05,6.900000000000000751e-04,9.000000000000000567e-05,2.999999999999999737e-05,5.000000000000000240e-05,5.000000000000000000e+00,2.300000000000000000e+01
6.098200000000000000e+04,1.800000000000000113e-04,8.699999999999998967e-04,8.000000000000000654e-05,2.999999999999999737e-05,6.900000000000000751e-04,9.000000000000000567e-05,2.999999999999999737e-05,5.000000000000000240e-05,5.000000000000000000e+00,2.300000000000000000e+01
6.098300000000000000e+04,6.999999999999999929e-04,-1.100000000000000039e-04,1.499999999999999869e-04,4.000000000000000192e-04,8.099999999999999561e-04,1.100000000000000039e-04,6.999999999999999387e-05,8.000000000000000654e-05,5.000000000000000000e+00,2.300000000000000000e+01
6.098400000000000000e+04,-2.100000000000000087e-04,-2.999999999999999737e-05,-1.199999999999999895e-04,-5.000000000000000240e-05,4.099999999999999912e-04,-4.000000000000000327e-05,-1.699999999999999851e-04,-1.499999999999999869e-04,5.000000000000000000e+00,2.300000000000000000e+01
6.098500000000000000e+04,9.000000000000000567e-05,4.099999999999999912e-04,1.000000000000000082e-05,-2.399999999999999790e-04,-7.299999999999999632e-04,-1.300000000000000157e-04,-6.999999999999999387e-05,-8.000000000000000654e-05,5.000000000000000000e+00,2.300000000000000000e+01
6.098600000000000000e+04,9.000000000000000567e-05,4.099999999999999912e-04,1.000000000000000082e-05,-2.399999999999999790e-04,-7.299999999999999632e-04,-1.300000000000000157e-04,-6.999999999999999387e-05,-8.000000000000000654e-05,5.000000000000000000e+00,2.300000000000000000e+01
6.098800000000000000e+04,9.000000000000000567e-05,4.099999999999999912e-04,1.000000000000000082e-05,-2.399999999999999790e-04,-7.299999999999999632e-04,-1.300000000000000157e-04,-6.999999999999999387e-05,-8.000000000000000654e-05,5.000000000000000000e+00,2.300000000000000000e+01
6.099000000000000000e+04,9.000000000000000567e-05,4.099999999999999912e-04,1.000000000000000082e-05,-2.399999999999999790e-04,-7.299999999999999632e-04,-1.300000000000000157e-04,-6.999999999999999387e-05,-8.000000000000000654e-05,5.000000000000000000e+00,2.300000000000000000e+01
6.099100000000000000e+04,9.000000000000000567e-05,4.099999999999999912e-04,1.000000000000000082e-05,-2.399999999999999790e-04,-7.299999999999999632e-04,-1.300000000000000157e-04,-6.999999999999999387e-05,-8.000000000000000654e-05,5.000000000000000000e+00,2.300000000000000000e+01
6.099200000000000000e+04,9.000000000000000567e-05,4.099999999999999912e-04,1.000000000000000082e-05,-2.399999999999999790e-04,-7.299999999999999632e-04,-1.300000000000000157e-04,-6.999999999999999387e-05,-8.000000000000000654e-05,5.000000000000000000e+00,2.300000000000000000e+01
6.099300000000000000e+04,9.000000000000000567e-05,4.099999999999999912e-04,1.000000000000000082e-05,-2.399999999999999790e-04,-7.299999999999999632e-04,-1.300000000000000157e-04,-6.999999999999999387e-05,-8.000000000000000654e-05,5.000000000000000000e+00,2.300000000000000000e+01
6.099400000000000000e+04,9.000000000000000567e-05,4.099999999999999912e-04,1.000000000000000082e-05,-2.399999999999999790e-04,-7.299999999999999632e-04,-1.300000000000000157e-04,-6.999999999999999387e-05,-8.000000000000000654e-05,5.000000000000000000e+00,2.300000000000000000e+01
6.099500000000000000e+04,9.000000000000000567e-05,4.099999999999999912e-04,1.000000000000000082e-05,-2.399999999999999790e-04,-7.299999999999999632e-04,-1.300000000000000157e-04,-6.999999999999999387e-05,-8.000000000000000654e-05,5.000000000000000000e+00,2.300000000000000000e+01
6.099600000000000000e+04,9.000000000000000567e-05,4.099999999999999912e-04,1.000000000000000082e-05,-2.399999999999999790e-04,-7.299999999999999632e-04,-1.300000000000000157e-04,-6.999999999999999387e-05,-8.000000000000000654e-05,5.000000000000000000e+00,2.300000000000000000e+01
6.099700000000000000e+04,9.000000000000000567e-05,4.099999999999999912e-04,1.000000000000000082e-05,-2.399999999999999790e-04,-7.299999999999999632e-04,-1.300000000000000157e-04,-6.999999999999999387e-05,-8.000000000000000654e-05,5.000000000000000000e+00,2.300000000000000000e+01
6.099800000000000000e+04,9.000000000000000567e-05,4.099999999999999912e-04,1.000000000000000082e-05,-2.399999999999999790e-04,-7.299999999999999632e-04,-1.300000000000000157e-04,-6.999999999999999387e-05,-8.000000000000000654e-05,5.000000000000000000e+00,2.300000000000000000e+01
6.099900000000000000e+04,9.000000000000000567e-05,4.099999999999999912e-04,1.000000000000000082e-05,-2.399999999999999790e-04,-7.299999999999999632e-04,-1.300000000000000157e-04,-6.999999999999999387e-05,-8.000000000000000654e-05,5.000000000000000000e+00,2.300000000000000000e+01
6.100000000000000000e+04,9.000000000000000567e-05,4.099999999999999912e-04,1.000000000000000082e-05,-2.399999999999999790e-04,-7.299999999999999632e-04,-1.300000000000000157e-04,-6.999999999999999387e-05,-8.000000000000000654e-05,5.000000000000000000e+00,2.300000000000000000e+01
6.100100000000000000e+04,9.000000000000000567e-05,4.099999999999999912e-04,1.000000000000000082e-05,-2.399999999999999790e-04,-7.299999999999999632e-04,-1.300000000000000157e-04,-6.999999999999999387e-05,-8.000000000000000654e-05,5.000000000000000000e+00,2.300000000000000000e+01
6.100200000000000000e+04,9.000000000000000567e-05,4.099999999999999912e-04,1.000000000000000082e-05,-2.399999999999999790e-04,-7.299999999999999632e-04,-1.300000000000000157e-04,-6.999999999999999387e-05,-8.000000000000000654e-05,5.000000000000000000e+00,2.300000000000000000e+01
6.100300000000000000e+04,9.000000000000000567e-05,4.099999999999999912e-04,1.000000000000000082e-05,-2.399999999999999790e-04,-7.299999999999999632e-04,-1.300000000000000157e-04,-6.999999999999999387e-05,-8.000000000000000654e-05,5.000000000000000000e+00,2.300000000000000000e+01
6.100400000000000000e+04,9.000000000000000567e-05,4.099999999999999912e-04,1.000000000000000082e-05,-2.399999999999999790e-04,-7.299999999999999632e-04,-1.300000000000000157e-04,-6.999999999999999387e-05,-8.000000000000000654e-05,5.000000000000000000e+00,2.300000000000000000e+01
6.100500000000000000e+04,9.000000000000000567e-05,4.099999999999999912e-04,1.000000000000000082e-05,-2.399999999999999790e-04,-7.299999999999999632e-04,-1.300000000000000157e-04,-6.999999999999999387e-05,-8.000000000000000654e-05,5.000000000000000000e+00,2.300000000000000000e+01
6.100600000000000000e+04,1.199999999999999895e-04,-1.280000000000000105e-03,-4.000000000000000327e-05,4.099999999999999912e-04,-4.899999999999999842e-04,2.999999999999999737e-05,-2.999999999999999737e-05,2.000000000000000164e-05,5.000000000000000000e+00,2.300000000000000000e+01
6.100700000000000000e+04,-1.800000000000000113e-04,-2.799999999999999755e-04,-4.299999999999999894e-04,1.399999999999999877e-04,-2.000000000000000164e-05,-2.999999999999999737e-05,2.000000000000000164e-05,-4.000000000000000327e-05,5.000000000000000000e+00,2.300000000000000000e+01
6.100900000000000000e+04,-1.800000000000000113e-04,-2.799999999999999755e-04,-4.299999999999999894e-04,1.399999999999999877e-04,-2.000000000000000164e-05,-2.999999999999999737e-05,2.000000000000000164e-05,-4.000000000000000327e-05,5.000000000000000000e+00,2.300000000000000000e+01
6.101000000000000000e+04,-1.800000000000000113e-04,-2.799999999999999755e-04,-4.299999999999999894e-04,1.399999999999999877e-04,-2.000000000000000164e-05,-2.999999999999999737e-05,2.000000000000000164e-05,-4.000000000000000327e-05,5.000000000000000000e+00,2.300000000000000000e+01
6.101100000000000000e+04,-1.800000000000000113e-04,-2.799999999999999755e-04,-4.299999999999999894e-04,1.399999999999999877e-04,-2.000000000000000164e-05,-2.999999999999999737e-05,2.000000000000000164e-05,-4.000000000000000327e-05,5.000000000000000000e+00,2.300000000000000000e+01
6.101200000000000000e+04,-1.800000000000000113e-04,-2.799999999999999755e-04,-4.299999999999999894e-04,1.399999999999999877e-04,-2.000000000000000164e-05,-2.999999999999999737e-05,2.000000000000000164e-05,-4.000000000000000327e-05,5.000000000000000000e+00,2.300000000000000000e+01
6.101300000000000000e+04,-1.800000000000000113e-04,-2.799999999999999755e-04,-4.299999999999999894e-04,1.399999999999999877e-04,-2.000000000000000164e-05,-2.999999999999999737e-05,2.000000000000000164e-05,-4.000000000000000327e-05,5.000000000000000000e+00,2.300000000000000000e+01
6.101400000000000000e+04,-1.800000000000000113e-04,-2.799999999999999755e-04,-4.299999999999999894e-04,1.399999999999999877e-04,-2.000000000000000164e-05,-2.999999999999999737e-05,2.000000000000000164e-05,-4.000000000000000327e-05,5.000000000000000000e+00,2.300000000000000000e+01
6.101500000000000000e+04,-1.800000000000000113e-04,-2.799999999999999755e-04,-4.299999999999999894e-04,1.399999999999999877e-04,-2.000000000000000164e-05,-2.999999999999999737e-05,2.000000000000000164e-05,-4.000000000000000327e-05,5.000000000000000000e+00,2.300000000000000000e+01
6.101600000000000000e+04,-1.800000000000000113e-04,-2.799999999999999755e-04,-4.299999999999999894e-04,1.399999999999999877e-04,-2.000000000000000164e-05,-2.999999999999999737e-05,2.000000000000000164e-05,-4.000000000000000327e-05,5.000000000000000000e+00,2.300000000000000000e+01
6.101700000000000000e+04,-1.800000000000000113e-04,-2.799999999999999755e-04,-4.299999999999999894e-04,1.399999999999999877e-04,-2.000000000000000164e-05,-2.999999999999999737e-05,2.000000000000000164e-05,-4.000000000000000327e-05,5.000000000000000000e+00,2.300000000000000000e+01
6.101800000000000000e+04,-1.800000000000000113e-04,-2.799999999999999755e-04,-4.299999999999999894e-04,1.399999999999999877e-04,-2.000000000000000164e-05,-2.999999999999999737e-05,2.000000000000000164e-05,-4.000000000000000327e-05,5.000000000000000000e+00,2.300000000000000000e+01
6.101900000000000000e+04,-1.800000000000000113e-04,-2.799999999999999755e-04,-4.299999999999999894e-04,1.399999999999999877e-04,-2.000000000000000164e-05,-2.999999999999999737e-05,2.000000000000000164e-05,-4.000000000000000327e-05,5.000000000000000000e+00,2.300000000000000000e+01
6.102000000000000000e+04,-1.800000000000000113e-04,-2.799999999999999755e-04,-4.299999999999999894e-04,1.399999999999999877e-04,-2.000000000000000164e-05,-2.999999999999999737e-05,2.000000000000000164e-05,-4.000000000000000327e-05,5.000000000000000000e+00,2.300000000000000000e+01
6.102100000000000000e+04,-1.800000000000000113e-04,-2.799999999999999755e-04,-4.299999999999999894e-04,1.399999999999999877e-04,-2.000000000000000164e-05,-2.999999999999999737e-05,2.000000000000000164e-05,-4.000000000000000327e-05,5.000000000000000000e+00,2.300000000000000000e+01
6.102200000000000000e+04,-1.800000000000000113e-04,-2.799999999999999755e-04,-4.299999999999999894e-04,1.399999999999999877e-04,-2.000000000000000164e-05,-2.999999999999999737e-05,2.000000000000000164e-05,-4.000000000000000327e-05,5.000000000000000000e+00,2.300000000000000000e+01
6.102300000000000000e+04,-1.800000000000000113e-04,-2.799999999999999755e-04,-4.299999999999999894e-04,1.399999999999999877e-04,-2.000000000000000164e-05,-2.999999999999999737e-05,2.000000000000000164e-05,-4.000000000000000327e-05,5.000000000000000000e+00,2.300000000000000000e+01
6.102400000000000000e+04,-1.800000000000000113e-04,-2.799999999999999755e-04,-4.299999999999999894e-04,1.399999999999999877e-04,-2.000000000000000164e-05,-2.999999999999999737e-05,2.000000000000000164e-05,-4.000000000000000327e-05,5.000000000000000000e+00,2.300000000000000000e+01
6.102500000000000000e+04,-1.800000000000000113e-04,-2.799999999999999755e-04,-4.299999999999999894e-04,1.399999999999999877e-04,-2.000000000000000164e-05,-2.999999999999999737e-05,2.000000000000000164e-05,-4.000000000000000327e-05,5.000000000000000000e+00,2.300000000000000000e+01
6.102600000000000000e+04,-1.800000000000000113e-04,-2.799999999999999755e-04,-4.299999999999999894e-04,1.399999999999999877e-04,-2.000000000000000164e-05,-2.999999999999999737e-05,2.000000000000000164e-05,-4.000000000000000327e-05,5.000000000000000000e+00,2.300000000000000000e+01
6.102700000000000000e+04,-1.800000000000000113e-04,-2.799999999999999755e-04,-4.299999999999999894e-04,1.399999999999999877e-04,-2.000000000000000164e-05,-2.999999999999999737e-05,2.000000000000000164e-05,-4.000000000000000327e-05,5.000000000000000000e+00,2.300000000000000000e+01
6.102800000000000000e+04,-2.200000000000000078e-04,3.799999999999999667e-04,-1.300000000000000157e-04,1.000000000000000082e-05,-1.800000000000000113e-04,1.699999999999999851e-04,1.199999999999999895e-04,-2.000000000000000164e-05,5.000000000000000000e+00,2.300000000000000000e+01
6.102900000000000000e+04,-3.399999999999999702e-04,1.000000000000000082e-05,-1.600000000000000131e-04,-2.000000000000000096e-04,2.700000000000000035e-04,-2.999999999999999737e-05,-6.999999999999999387e-05,-1.100000000000000039e-04,5.000000000000000000e+00,2.300000000000000000e+01
6.103000000000000000e+04,-3.399999999999999702e-04,1.000000000000000082e-05,-1.600000000000000131e-04,-2.000000000000000096e-04,2.700000000000000035e-04,-2.999999999999999737e-05,-6.999999999999999387e-05,-1.100000000000000039e-04,5.000000000000000000e+00,2.300000000000000000e+01
6.103200000000000000e+04,-3.399999999999999702e-04,1.000000000000000082e-05,-1.600000000000000131e-04,-2.000000000000000096e-04,2.700000000000000035e-04,-2.999999999999999737e-05,-6.999999999999999387e-05,-1.100000000000000039e-04,5.000000000000000000e+00,2.300000000000000000e+01
6.103300000000000000e+04,-3.399999999999999702e-04,1.000000000000000082e-05,-1.600000000000000131e-04,-2.000000000000000096e-04,2.700000000000000035e-04,-2.999999999999999737e-05,-6.999999999999999387e-05,-1.100000000000000039e-04,5.000000000000000000e+00,2.300000000000000000e+01
6.103400000000000000e+04,-1.699999999999999851e-04,4.899999999999999842e-04,1.199999999999999895e-04,1.499999999999999869e-04,5.099999999999999282e-04,2.299999999999999799e-04,1.000000000000000048e-04,5.999999999999999474e-05,5.000000000000000000e+00,2.300000000000000000e+01
6.103500000000000000e+04,-1.699999999999999851e-04,4.899999999999999842e-04,1.199999999999999895e-04,1.499999999999999869e-04,5.099999999999999282e-04,2.299999999999999799e-04,1.000000000000000048e-04,5.999999999999999474e-05,5.000000000000000000e+00,2.300000000000000000e+01
6.103600000000000000e+04,-1.699999999999999851e-04,4.899999999999999842e-04,1.199999999999999895e-04,1.499999999999999869e-04,5.099999999999999282e-04,2.299999999999999799e-04,1.000000000000000048e-04,5.999999999999999474e-05,5.000000000000000000e+00,2.300000000000000000e+01
6.103800000000000000e+04,-1.699999999999999851e-04,4.899999999999999842e-04,1.199999999999999895e-04,1.499999999999999869e-04,5.099999999999999282e-04,2.299999999999999799e-04,1.000000000000000048e-04,5.999999999999999474e-05,5.000000000000000000e+00,2.300000000000000000e+01
6.104000000000000000e+04,-1.699999999999999851e-04,4.899999999999999842e-04,1.199999999999999895e-04,1.499999999999999869e-04,5.099999999999999282e-04,2.299999999999999799e-04,1.000000000000000048e-04,5.999999999999999474e-05,5.000000000000000000e+00,2.300000000000000000e+01
6.104100000000000000e+04,-1.699999999999999851e-04,4.899999999999999842e-04,1.199999999999999895e-04,1.499999999999999869e-04,5.099999999999999282e-04,2.299999999999999799e-04,1.000000000000000048e-04,5.999999999999999474e-05,5.000000000000000000e+00,2.300000000000000000e+01
6.104200000000000000e+04,-1.699999999999999851e-04,4.899999999999999842e-04,1.199999999999999895e-04,1.499999999999999869e-04,5.099999999999999282e-04,2.299999999999999799e-04,1.000000000000000048e-04,5.999999999999999474e-05,5.000000000000000000e+00,2.300000000000000000e+01
6.104300000000000000e+04,-1.699999999999999851e-04,4.899999999999999842e-04,1.199999999999999895e-04,1.499999999999999869e-04,5.099999999999999282e-04,2.299999999999999799e-04,1.000000000000000048e-04,5.999999999999999474e-05,5.000000000000000000e+00,2.300000000000000000e+01
6.104400000000000000e+04,-4.499999999999999877e-04,-3.399999999999999702e-04,3.499999999999999964e-04,2.399999999999999790e-04,-6.400000000000000524e-04,-1.100000000000000039e-04,-1.000000000000000048e-04,-1.000000000000000048e-04,5.000000000000000000e+00,2.300000000000000000e+01
6.104500000000000000e+04,-4.499999999999999877e-04,-3.399999999999999702e-04,3.499999999999999964e-04,2.399999999999999790e-04,-6.400000000000000524e-04,-1.100000000000000039e-04,-1.000000000000000048e-04,-1.000000000000000048e-04,5.000000000000000000e+00,2.300000000000000000e+01
6.104600000000000000e+04,-4.499999999999999877e-04,-3.399999999999999702e-04,3.499999999999999964e-04,2.399999999999999790e-04,-6.400000000000000524e-04,-1.100000000000000039e-04,-1.000000000000000048e-04,-1.000000000000000048e-04,5.000000000000000000e+00,2.300000000000000000e+01
6.104700000000000000e+04,-4.499999999999999877e-04,-3.399999999999999702e-04,3.499999999999999964e-04,2.399999999999999790e-04,-6.400000000000000524e-04,-1.100000000000000039e-04,-1.000000000000000048e-04,-1.000000000000000048e-04,5.000000000000000000e+00,2.300000000000000000e+01
6.104800000000000000e+04,-4.499999999999999877e-04,-3.399999999999999702e-04,3.499999999999999964e-04,2.399999999999999790e-04,-6.400000000000000524e-04,-1.100000000000000039e-04,-1.000000000000000048e-04,-1.000000000000000048e-04,5.000000000000000000e+00,2.300000000000000000e+01
6.104900000000000000e+04,-4.499999999999999877e-04,-3.399999999999999702e-04,3.499999999999999964e-04,2.399999999999999790e-04,-6.400000000000000524e-04,-1.100000000000000039e-04,-1.000000000000000048e-04,-1.000000000000000048e-04,5.000000000000000000e+00,2.300000000000000000e+01
6.105000000000000000e+04,-4.499999999999999877e-04,-3.399999999999999702e-04,3.499999999999999964e-04,2.399999999999999790e-04,-6.400000000000000524e-04,-1.100000000000000039e-04,-1.000000000000000048e-04,-1.000000000000000048e-04,5.000000000000000000e+00,2.300000000000000000e+01
6.105100000000000000e+04,-4.499999999999999877e-04,-3.399999999999999702e-04,3.499999999999999964e-04,2.399999999999999790e-04,-6.400000000000000524e-04,-1.100000000000000039e-04,-1.000000000000000048e-04,-1.000000000000000048e-04,5.000000000000000000e+00,2.300000000000000000e+01
6.105200000000000000e+04,-4.499999999999999877e-04,-3.399999999999999702e-04,3.499999999999999964e-04,2.399999999999999790e-04,-6.400000000000000524e-04,-1.100000000000000039e-04,-1.000000000000000048e-04,-1.000000000000000048e-04,5.000000000000000000e+00,2.300000000000000000e+01
6.105300000000000000e+04,-4.499999999999999877e-04,-3.399999999999999702e-04,3.499999999999999964e-04,2.399999999999999790e-04,-6.400000000000000524e-04,-1.100000000000000039e-04,-1.000000000000000048e-04,-1.000000000000000048e-04,5.000000000000000000e+00,2.300000000000000000e+01
6.105400000000000000e+04,-4.499999999999999877e-04,-3.399999999999999702e-04,3.499999999999999964e-04,2.399999999999999790e-04,-6.400000000000000524e-04,-1.100000000000000039e-04,-1.000000000000000048e-04,-1.000000000000000048e-04,5.000000000000000000e+00,2.300000000000000000e+01
6.105500000000000000e+04,-4.499999999999999877e-04,-3.399999999999999702e-04,3.499999999999999964e-04,2.399999999999999790e-04,-6.400000000000000524e-04,-1.100000000000000039e-04,-1.000000000000000048e-04,-1.000000000000000048e-04,5.000000000000000000e+00,2.300000000000000000e+01
6.105600000000000000e+04,-4.499999999999999877e-04,-3.399999999999999702e-04,3.499999999999999964e-04,2.399999999999999790e-04,-6.400000000000000524e-04,-1.100000000000000039e-04,-1.000000000000000048e-04,-1.000000000000000048e-04,5.000000000000000000e+00,2.300000000000000000e+01
6.105700000000000000e+04,-4.499999999999999877e-04,-3.399999999999999702e-04,3.499999999999999964e-04,2.399999999999999790e-04,-6.400000000000000524e-04,-1.100000000000000039e-04,-1.000000000000000048e-04,-1.000000000000000048e-04,5.000000000000000000e+00,2.300000000000000000e+01
6.105800000000000000e+04,-1.010000000000000047e-03,-4.599999999999999597e-04,-1.000000000000000082e-05,1.800000000000000113e-04,7.799999999999999859e-04,-6.999999999999999387e-05,-9.000000000000000567e-05,2.999999999999999737e-05,5.000000000000000000e+00,2.300000000000000000e+01
6.105900000000000000e+04,-1.010000000000000047e-03,-4.599999999999999597e-04,-1.000000000000000082e-05,1.800000000000000113e-04,7.799999999999999859e-04,-6.999999999999999387e-05,-9.000000000000000567e-05,2.999999999999999737e-05,5.000000000000000000e+00,2.300000000000000000e+01
6.106000000000000000e+04,-1.010000000000000047e-03,-4.599999999999999597e-04,-1.000000000000000082e-05,1.800000000000000113e-04,7.799999999999999859e-04,-6.999999999999999387e-05,-9.000000000000000567e-05,2.999999999999999737e-05,5.000000000000000000e+00,2.300000000000000000e+01
6.106100000000000000e+04,-1.010000000000000047e-03,-4.599999999999999597e-04,-1.000000000000000082e-05,1.800000000000000113e-04,7.799999999999999859e-04,-6.999999999999999387e-05,-9.000000000000000567e-05,2.999999999999999737e-05,5.000000000000000000e+00,2.300000000000000000e+01
6.106200000000000000e+04,-1.010000000000000047e-03,-4.599999999999999597e-04,-1.000000000000000082e-05,1.800000000000000113e-04,7.799999999999999859e-04,-6.999999999999999387e-05,-9.000000000000000567e-05,2.999999999999999737e-05,5.000000000000000000e+00,2.300000000000000000e+01
6.106300000000000000e+04,-1.010000000000000047e-03,-4.599999999999999597e-04,-1.000000000000000082e-05,1.800000000000000113e-04,7.799999999999999859e-04,-6.999999999999999387e-05,-9.000000000000000567e-05,2.999999999999999737e-05,5.000000000000000000e+00,2.300000000000000000e+01
6.106400000000000000e+04,-1.010000000000000047e-03,-4.599999999999999597e-04,-1.000000000000000082e-05,1.800000000000000113e-04,7.799999999999999859e-04,-6.999999999999999387e-05,-9.000000000000000567e-05,2.999999999999999737e-05,5.000000000000000000e+00,2.300000000000000000e+01
6.106500000000000000e+04,4.000000000000000327e-05,-1.600000000000000131e-04,-8.000000000000000654e-05,2.900000000000000017e-04,4.400000000000000157e-04,5.999999999999999474e-05,-2.000000000000000164e-05,1.000000000000000082e-05,5.000000000000000000e+00,2.300000000000000000e+01
6.106600000000000000e+04,4.000000000000000327e-05,-1.600000000000000131e-04,-8.000000000000000654e-05,2.900000000000000017e-04,4.400000000000000157e-04,5.999999999999999474e-05,-2.000000000000000164e-05,1.000000000000000082e-05,5.000000000000000000e+00,2.300000000000000000e+01
6.106700000000000000e+04,4.000000000000000327e-05,-1.600000000000000131e-04,-8.000000000000000654e-05,2.900000000000000017e-04,4.400000000000000157e-04,5.999999999999999474e-05,-2.000000000000000164e-05,1.000000000000000082e-05,5.000000000000000000e+00,2.300000000000000000e+01
6.106800000000000000e+04,4.000000000000000327e-05,-1.600000000000000131e-04,-8.000000000000000654e-05,2.900000000000000017e-04,4.400000000000000157e-04,5.999999999999999474e-05,-2.000000000000000164e-05,1.000000000000000082e-05,5.000000000000000000e+00,2.300000000000000000e+01
6.106900000000000000e+04,4.000000000000000327e-05,-1.600000000000000131e-04,-8.000000000000000654e-05,2.900000000000000017e-04,4.400000000000000157e-04,5.999999999999999474e-05,-2.000000000000000164e-05,1.000000000000000082e-05,5.000000000000000000e+00,2.300000000000000000e+01
6.107000000000000000e+04,4.000000000000000327e-05,-1.600000000000000131e-04,-8.000000000000000654e-05,2.900000000000000017e-04,4.400000000000000157e-04,5.999999999999999474e-05,-2.000000000000000164e-05,1.000000000000000082e-05,5.000000000000000000e+00,2.300000000000000000e+01
6.107100000000000000e+04,4.000000000000000327e-05,-1.600000000000000131e-04,-8.000000000000000654e-05,2.900000000000000017e-04,4.400000000000000157e-04,5.999999999999999474e-05,-2.000000000000000164e-05,1.000000000000000082e-05,5.000000000000000000e+00,2.300000000000000000e+01
6.107200000000000000e+04,4.000000000000000327e-05,-1.600000000000000131e-04,-8.000000000000000654e-05,2.900000000000000017e-04,4.400000000000000157e-04,5.999999999999999474e-05,-2.000000000000000164e-05,1.000000000000000082e-05,5.000000000000000000e+00,2.300000000000000000e+01
6.107300000000000000e+04,4.000000000000000327e-05,-1.600000000000000131e-04,-8.000000000000000654e-05,2.900000000000000017e-04,4.400000000000000157e-04,5.999999999999999474e-05,-2.000000000000000164e-05,1.000000000000000082e-05,5.000000000000000000e+00,2.300000000000000000e+01
6.107400000000000000e+04,4.000000000000000327e-05,-1.600000000000000131e-04,-8.000000000000000654e-05,2.900000000000000017e-04,4.400000000000000157e-04,5.999999999999999474e-05,-2.000000000000000164e-05,1.000000000000000082e-05,5.000000000000000000e+00,2.300000000000000000e+01
6.107500000000000000e+04,4.000000000000000327e-05,-1.600000000000000131e-04,-8.000000000000000654e-05,2.900000000000000017e-04,4.400000000000000157e-04,5.999999999999999474e-05,-2.000000000000000164e-05,1.000000000000000082e-05,5.000000000000000000e+00,2.300000000000000000e+01
6.107600000000000000e+04,4.000000000000000327e-05,-1.600000000000000131e-04,-8.000000000000000654e-05,2.900000000000000017e-04,4.400000000000000157e-04,5.999999999999999474e-05,-2.000000000000000164e-05,1.000000000000000082e-05,5.000000000000000000e+00,2.300000000000000000e+01
6.107700000000000000e+04,4.000000000000000327e-05,-1.600000000000000131e-04,-8.000000000000000654e-05,2.900000000000000017e-04,4.400000000000000157e-04,5.999999999999999474e-05,-2.000000000000000164e-05,1.000000000000000082e-05,5.000000000000000000e+00,2.300000000000000000e+01
6.107800000000000000e+04,4.000000000000000327e-05,-1.600000000000000131e-04,-8.000000000000000654e-05,2.900000000000000017e-04,4.400000000000000157e-04,5.999999999999999474e-05,-2.000000000000000164e-05,1.000000000000000082e-05,5.000000000000000000e+00,2.300000000000000000e+01
6.107900000000000000e+04,4.000000000000000327e-05,-1.600000000000000131e-04,-8.000000000000000654e-05,2.900000000000000017e-04,4.400000000000000157e-04,5.999999999999999474e-05,-2.000000000000000164e-05,1.000000000000000082e-05,5.000000000000000000e+00,2.300000000000000000e+01
6.108000000000000000e+04,4.000000000000000327e-05,-1.600000000000000131e-04,-8.000000000000000654e-05,2.900000000000000017e-04,4.400000000000000157e-04,5.999999999999999474e-05,-2.000000000000000164e-05,1.000000000000000082e-05,5.000000000000000000e+00,2.300000000000000000e+01
6.108100000000000000e+04,5.000000000000000240e-05,4.000000000000000327e-05,-2.000000000000000164e-05,-3.299999999999999982e-04,-9.100000000000000016e-04,-1.899999999999999834e-04,-8.000000000000000654e-05,-1.000000000000000082e-05,5.000000000000000000e+00,2.300000000000000000e+01
6.108200000000000000e+04,-2.799999999999999755e-04,-1.100000000000000039e-04,8.000000000000000654e-05,-1.199999999999999895e-04,2.700000000000000035e-04,-1.000000000000000082e-05,-5.000000000000000240e-05,-2.000000000000000164e-05,5.000000000000000000e+00,2.300000000000000000e+01
6.108400000000000000e+04,-2.799999999999999755e-04,-1.100000000000000039e-04,8.000000000000000654e-05,-1.199999999999999895e-04,2.700000000000000035e-04,-1.000000000000000082e-05,-5.000000000000000240e-05,-2.000000000000000164e-05,5.000000000000000000e+00,2.300000000000000000e+01
6.108500000000000000e+04,-2.799999999999999755e-04,-1.100000000000000039e-04,8.000000000000000654e-05,-1.199999999999999895e-04,2.700000000000000035e-04,-1.000000000000000082e-05,-5.000000000000000240e-05,-2.000000000000000164e-05,5.000000000000000000e+00,2.300000000000000000e+01
6.108600000000000000e+04,-2.799999999999999755e-04,-1.100000000000000039e-04,8.000000000000000654e-05,-1.199999999999999895e-04,2.700000000000000035e-04,-1.000000000000000082e-05,-5.000000000000000240e-05,-2.000000000000000164e-05,5.000000000000000000e+00,2.300000000000000000e+01
6.108900000000000000e+04,-2.799999999999999755e-04,-1.100000000000000039e-04,8.000000000000000654e-05,-1.199999999999999895e-04,2.700000000000000035e-04,-1.000000000000000082e-05,-5.000000000000000240e-05,-2.000000000000000164e-05,5.000000000000000000e+00,2.300000000000000000e+01
6.109000000000000000e+04,-2.799999999999999755e-04,-1.100000000000000039e-04,8.000000000000000654e-05,-1.199999999999999895e-04,2.700000000000000035e-04,-1.000000000000000082e-05,-5.000000000000000240e-05,-2.000000000000000164e-05,5.000000000000000000e+00,2.300000000000000000e+01
6.109100000000000000e+04,-2.799999999999999755e-04,-1.100000000000000039e-04,8.000000000000000654e-05,-1.199999999999999895e-04,2.700000000000000035e-04,-1.000000000000000082e-05,-5.000000000000000240e-05,-2.000000000000000164e-05,5.000000000000000000e+00,2.300000000000000000e+01
6.109300000000000000e+04,-2.799999999999999755e-04,-1.100000000000000039e-04,8.000000000000000654e-05,-1.199999999999999895e-04,2.700000000000000035e-04,-1.000000000000000082e-05,-5.000000000000000240e-05,-2.000000000000000164e-05,5.000000000000000000e+00,2.300000000000000000e+01
6.109400000000000000e+04,2.900000000000000017e-04,6.999999999999999387e-05,9.000000000000000567e-05,4.499999999999999877e-04,1.000000000000000048e-04,2.500000000000000052e-04,5.999999999999999474e-05,6.999999999999999387e-05,5.000000000000000000e+00,2.300000000000000000e+01
6.109500000000000000e+04,-5.999999999999999474e-05,-4.700000000000000401e-04,4.000000000000000327e-05,8.000000000000000654e-05,-4.799999999999999580e-04,-5.999999999999999474e-05,1.000000000000000048e-04,-1.000000000000000082e-05,5.000000000000000000e+00,2.300000000000000000e+01
6.109600000000000000e+04,-5.999999999999999474e-05,-4.700000000000000401e-04,4.000000000000000327e-05,8.000000000000000654e-05,-4.799999999999999580e-04,-5.999999999999999474e-05,1.000000000000000048e-04,-1.000000000000000082e-05,5.000000000000000000e+00,2.300000000000000000e+01
