5.928600000000000000e+04,2.000000000000000164e-05,1.100000000000000039e-04,-1.000000000000000082e-05,-1.199999999999999895e-04,-1.899999999999999834e-04,-2.399999999999999790e-04,0.000000000000000000e+00,-3.200000000000000262e-04,6.000000000000000000e+00,2.300000000000000000e+01
5.928700000000000000e+04,2.000000000000000164e-05,1.100000000000000039e-04,-1.000000000000000082e-05,-1.199999999999999895e-04,-1.899999999999999834e-04,-2.399999999999999790e-04,0.000000000000000000e+00,-3.200000000000000262e-04,6.000000000000000000e+00,2.300000000000000000e+01
5.928800000000000000e+04,2.000000000000000164e-05,1.100000000000000039e-04,-1.000000000000000082e-05,-1.199999999999999895e-04,-1.899999999999999834e-04,-2.399999999999999790e-04,0.000000000000000000e+00,-3.200000000000000262e-04,6.000000000000000000e+00,2.300000000000000000e+01
5.928900000000000000e+04,2.000000000000000164e-05,1.100000000000000039e-04,-1.000000000000000082e-05,-1.199999999999999895e-04,-1.899999999999999834e-04,-2.399999999999999790e-04,0.000000000000000000e+00,-3.200000000000000262e-04,6.000000000000000000e+00,2.300000000000000000e+01
5.929000000000000000e+04,2.000000000000000164e-05,1.100000000000000039e-04,-1.000000000000000082e-05,-1.199999999999999895e-04,-1.899999999999999834e-04,-2.399999999999999790e-04,0.000000000000000000e+00,-3.200000000000000262e-04,6.000000000000000000e+00,2.300000000000000000e+01
5.929100000000000000e+04,2.000000000000000164e-05,1.100000000000000039e-04,-1.000000000000000082e-05,-1.199999999999999895e-04,-1.899999999999999834e-04,-2.399999999999999790e-04,0.000000000000000000e+00,-3.200000000000000262e-04,6.000000000000000000e+00,2.300000000000000000e+01
5.929200000000000000e+04,2.000000000000000164e-05,1.100000000000000039e-04,-1.000000000000000082e-05,-1.199999999999999895e-04,-1.899999999999999834e-04,-2.399999999999999790e-04,0.000000000000000000e+00,-3.200000000000000262e-04,6.000000000000000000e+00,2.300000000000000000e+01
5.929300000000000000e+04,2.000000000000000164e-05,1.100000000000000039e-04,-1.000000000000000082e-05,-1.199999999999999895e-04,-1.899999999999999834e-04,-2.399999999999999790e-04,0.000000000000000000e+00,-3.200000000000000262e-04,6.000000000000000000e+00,2.300000000000000000e+01
5.929400000000000000e+04,2.000000000000000164e-05,1.100000000000000039e-04,-1.000000000000000082e-05,-1.199999999999999895e-04,-1.899999999999999834e-04,-2.399999999999999790e-04,0.000000000000000000e+00,-3.200000000000000262e-04,6.000000000000000000e+00,2.300000000000000000e+01
5.929500000000000000e+04,2.000000000000000164e-05,1.100000000000000039e-04,-1.000000000000000082e-05,-1.199999999999999895e-04,-1.899999999999999834e-04,-2.399999999999999790e-04,0.000000000000000000e+00,-3.200000000000000262e-04,6.000000000000000000e+00,2.300000000000000000e+01
5.929600000000000000e+04,2.000000000000000164e-05,1.100000000000000039e-04,-1.000000000000000082e-05,-1.199999999999999895e-04,-1.899999999999999834e-04,-2.399999999999999790e-04,0.000000000000000000e+00,-3.200000000000000262e-04,6.000000000000000000e+00,2.300000000000000000e+01
5.929700000000000000e+04,2.000000000000000164e-05,1.100000000000000039e-04,-1.000000000000000082e-05,-1.199999999999999895e-04,-1.899999999999999834e-04,-2.399999999999999790e-04,0.000000000000000000e+00,-3.200000000000000262e-04,6.000000000000000000e+00,2.300000000000000000e+01
5.929800000000000000e+04,2.000000000000000164e-05,1.100000000000000039e-04,-1.000000000000000082e-05,-1.199999999999999895e-04,-1.899999999999999834e-04,-2.399999999999999790e-04,0.000000000000000000e+00,-3.200000000000000262e-04,6.000000000000000000e+00,2.300000000000000000e+01
5.929900000000000000e+04,2.000000000000000164e-05,1.100000000000000039e-04,-1.000000000000000082e-05,-1.199999999999999895e-04,-1.899999999999999834e-04,-2.399999999999999790e-04,0.000000000000000000e+00,-3.200000000000000262e-04,6.000000000000000000e+00,2.300000000000000000e+01
5.930000000000000000e+04,8.000000000000000654e-05,-2.000000000000000164e-05,2.000000000000000164e-05,2.999999999999999737e-05,5.000000000000000240e-05,1.000000000000000048e-04,-2.000000000000000164e-05,3.600000000000000227e-04,6.000000000000000000e+00,2.300000000000000000e+01
5.930100000000000000e+04,8.000000000000000654e-05,-2.000000000000000164e-05,2.000000000000000164e-05,2.999999999999999737e-05,5.000000000000000240e-05,1.000000000000000048e-04,-2.000000000000000164e-05,3.600000000000000227e-04,6.000000000000000000e+00,2.300000000000000000e+01
5.930200000000000000e+04,2.000000000000000164e-05,2.999999999999999737e-05,-1.000000000000000082e-05,-1.600000000000000131e-04,-1.139999999999999954e-03,5.000000000000000240e-05,-9.000000000000000567e-05,-2.799999999999999755e-04,6.000000000000000000e+00,2.300000000000000000e+01
5.930300000000000000e+04,2.000000000000000164e-05,2.999999999999999737e-05,-1.000000000000000082e-05,-1.600000000000000131e-04,-1.139999999999999954e-03,5.000000000000000240e-05,-9.000000000000000567e-05,-2.799999999999999755e-04,6.000000000000000000e+00,2.300000000000000000e+01
5.930400000000000000e+04,2.000000000000000164e-05,2.999999999999999737e-05,-1.000000000000000082e-05,-1.600000000000000131e-04,-1.139999999999999954e-03,5.000000000000000240e-05,-9.000000000000000567e-05,-2.799999999999999755e-04,6.000000000000000000e+00,2.300000000000000000e+01
5.930500000000000000e+04,2.000000000000000164e-05,2.999999999999999737e-05,-1.000000000000000082e-05,-1.600000000000000131e-04,-1.139999999999999954e-03,5.000000000000000240e-05,-9.000000000000000567e-05,-2.799999999999999755e-04,6.000000000000000000e+00,2.300000000000000000e+01
5.930600000000000000e+04,2.000000000000000164e-05,2.999999999999999737e-05,-1.000000000000000082e-05,-1.600000000000000131e-04,-1.139999999999999954e-03,5.000000000000000240e-05,-9.000000000000000567e-05,-2.799999999999999755e-04,6.000000000000000000e+00,2.300000000000000000e+01
5.930700000000000000e+04,2.000000000000000164e-05,2.999999999999999737e-05,-1.000000000000000082e-05,-1.600000000000000131e-04,-1.139999999999999954e-03,5.000000000000000240e-05,-9.000000000000000567e-05,-2.799999999999999755e-04,6.000000000000000000e+00,2.300000000000000000e+01
5.930800000000000000e+04,2.000000000000000164e-05,2.999999999999999737e-05,-1.000000000000000082e-05,-1.600000000000000131e-04,-1.139999999999999954e-03,5.000000000000000240e-05,-9.000000000000000567e-05,-2.799999999999999755e-04,6.000000000000000000e+00,2.300000000000000000e+01
5.930900000000000000e+04,2.000000000000000164e-05,2.999999999999999737e-05,-1.000000000000000082e-05,-1.600000000000000131e-04,-1.139999999999999954e-03,5.000000000000000240e-05,-9.000000000000000567e-05,-2.799999999999999755e-04,6.000000000000000000e+00,2.300000000000000000e+01
5.931000000000000000e+04,2.000000000000000164e-05,2.999999999999999737e-05,-1.000000000000000082e-05,-1.600000000000000131e-04,-1.139999999999999954e-03,5.000000000000000240e-05,-9.000000000000000567e-05,-2.799999999999999755e-04,6.000000000000000000e+00,2.300000000000000000e+01
5.931100000000000000e+04,2.000000000000000164e-05,2.999999999999999737e-05,-1.000000000000000082e-05,-1.600000000000000131e-04,-1.139999999999999954e-03,5.000000000000000240e-05,-9.000000000000000567e-05,-2.799999999999999755e-04,6.000000000000000000e+00,2.300000000000000000e+01
5.931200000000000000e+04,2.000000000000000164e-05,2.999999999999999737e-05,-1.000000000000000082e-05,-1.600000000000000131e-04,-1.139999999999999954e-03,5.000000000000000240e-05,-9.000000000000000567e-05,-2.799999999999999755e-04,6.000000000000000000e+00,2.300000000000000000e+01
5.931300000000000000e+04,2.000000000000000164e-05,2.999999999999999737e-05,-1.000000000000000082e-05,-1.600000000000000131e-04,-1.139999999999999954e-03,5.000000000000000240e-05,-9.000000000000000567e-05,-2.799999999999999755e-04,6.000000000000000000e+00,2.300000000000000000e+01
5.931400000000000000e+04,2.200000000000000078e-04,5.999999999999999474e-05,2.999999999999999737e-05,1.399999999999999877e-04,6.499999999999999702e-04,-6.999999999999999387e-05,-5.000000000000000240e-05,5.699999999999999772e-04,6.000000000000000000e+00,2.300000000000000000e+01
5.931500000000000000e+04,2.200000000000000078e-04,5.999999999999999474e-05,2.999999999999999737e-05,1.399999999999999877e-04,6.499999999999999702e-04,-6.999999999999999387e-05,-5.000000000000000240e-05,5.699999999999999772e-04,6.000000000000000000e+00,2.300000000000000000e+01
5.931600000000000000e+04,2.200000000000000078e-04,5.999999999999999474e-05,2.999999999999999737e-05,1.399999999999999877e-04,6.499999999999999702e-04,-6.999999999999999387e-05,-5.000000000000000240e-05,5.699999999999999772e-04,6.000000000000000000e+00,2.300000000000000000e+01
5.931700000000000000e+04,2.200000000000000078e-04,5.999999999999999474e-05,2.999999999999999737e-05,1.399999999999999877e-04,6.499999999999999702e-04,-6.999999999999999387e-05,-5.000000000000000240e-05,5.699999999999999772e-04,6.000000000000000000e+00,2.300000000000000000e+01
5.931800000000000000e+04,2.200000000000000078e-04,5.999999999999999474e-05,2.999999999999999737e-05,1.399999999999999877e-04,6.499999999999999702e-04,-6.999999999999999387e-05,-5.000000000000000240e-05,5.699999999999999772e-04,6.000000000000000000e+00,2.300000000000000000e+01
5.931900000000000000e+04,2.200000000000000078e-04,5.999999999999999474e-05,2.999999999999999737e-05,1.399999999999999877e-04,6.499999999999999702e-04,-6.999999999999999387e-05,-5.000000000000000240e-05,5.699999999999999772e-04,6.000000000000000000e+00,2.300000000000000000e+01
5.932000000000000000e+04,2.200000000000000078e-04,5.999999999999999474e-05,2.999999999999999737e-05,1.399999999999999877e-04,6.499999999999999702e-04,-6.999999999999999387e-05,-5.000000000000000240e-05,5.699999999999999772e-04,6.000000000000000000e+00,2.300000000000000000e+01
5.932100000000000000e+04,2.200000000000000078e-04,5.999999999999999474e-05,2.999999999999999737e-05,1.399999999999999877e-04,6.499999999999999702e-04,-6.999999999999999387e-05,-5.000000000000000240e-05,5.699999999999999772e-04,6.000000000000000000e+00,2.300000000000000000e+01
5.932200000000000000e+04,2.200000000000000078e-04,5.999999999999999474e-05,2.999999999999999737e-05,1.399999999999999877e-04,6.499999999999999702e-04,-6.999999999999999387e-05,-5.000000000000000240e-05,5.699999999999999772e-04,6.000000000000000000e+00,2.300000000000000000e+01
5.932300000000000000e+04,8.000000000000000654e-05,-6.999999999999999387e-05,-2.999999999999999737e-05,-2.999999999999999737e-05,2.999999999999999737e-05,-3.699999999999999947e-04,1.800000000000000113e-04,-1.199999999999999895e-04,6.000000000000000000e+00,2.300000000000000000e+01
5.932400000000000000e+04,8.000000000000000654e-05,-6.999999999999999387e-05,-2.999999999999999737e-05,-2.999999999999999737e-05,2.999999999999999737e-05,-3.699999999999999947e-04,1.800000000000000113e-04,-1.199999999999999895e-04,6.000000000000000000e+00,2.300000000000000000e+01
5.932500000000000000e+04,8.000000000000000654e-05,-6.999999999999999387e-05,-2.999999999999999737e-05,-2.999999999999999737e-05,2.999999999999999737e-05,-3.699999999999999947e-04,1.800000000000000113e-04,-1.199999999999999895e-04,6.000000000000000000e+00,2.300000000000000000e+01
5.932600000000000000e+04,8.000000000000000654e-05,-6.999999999999999387e-05,-2.999999999999999737e-05,-2.999999999999999737e-05,2.999999999999999737e-05,-3.699999999999999947e-04,1.800000000000000113e-04,-1.199999999999999895e-04,6.000000000000000000e+00,2.300000000000000000e+01
5.932700000000000000e+04,8.000000000000000654e-05,-6.999999999999999387e-05,-2.999999999999999737e-05,-2.999999999999999737e-05,2.999999999999999737e-05,-3.699999999999999947e-04,1.800000000000000113e-04,-1.199999999999999895e-04,6.000000000000000000e+00,2.300000000000000000e+01
5.932800000000000000e+04,8.000000000000000654e-05,-6.999999999999999387e-05,-2.999999999999999737e-05,-2.999999999999999737e-05,2.999999999999999737e-05,-3.699999999999999947e-04,1.800000000000000113e-04,-1.199999999999999895e-04,6.000000000000000000e+00,2.300000000000000000e+01
5.932900000000000000e+04,8.000000000000000654e-05,-6.999999999999999387e-05,-2.999999999999999737e-05,-2.999999999999999737e-05,2.999999999999999737e-05,-3.699999999999999947e-04,1.800000000000000113e-04,-1.199999999999999895e-04,6.000000000000000000e+00,2.300000000000000000e+01
5.933000000000000000e+04,8.000000000000000654e-05,-6.999999999999999387e-05,-2.999999999999999737e-05,-2.999999999999999737e-05,2.999999999999999737e-05,-3.699999999999999947e-04,1.800000000000000113e-04,-1.199999999999999895e-04,6.000000000000000000e+00,2.300000000000000000e+01
5.933100000000000000e+04,8.000000000000000654e-05,-6.999999999999999387e-05,-2.999999999999999737e-05,-2.999999999999999737e-05,2.999999999999999737e-05,-3.699999999999999947e-04,1.800000000000000113e-04,-1.199999999999999895e-04,6.000000000000000000e+00,2.300000000000000000e+01
5.933200000000000000e+04,8.000000000000000654e-05,-6.999999999999999387e-05,-2.999999999999999737e-05,-2.999999999999999737e-05,2.999999999999999737e-05,-3.699999999999999947e-04,1.800000000000000113e-04,-1.199999999999999895e-04,6.000000000000000000e+00,2.300000000000000000e+01
5.933300000000000000e+04,8.000000000000000654e-05,-6.999999999999999387e-05,-2.999999999999999737e-05,-2.999999999999999737e-05,2.999999999999999737e-05,-3.699999999999999947e-04,1.800000000000000113e-04,-1.199999999999999895e-04,6.000000000000000000e+00,2.300000000000000000e+01
5.933400000000000000e+04,8.000000000000000654e-05,-6.999999999999999387e-05,-2.999999999999999737e-05,-2.999999999999999737e-05,2.999999999999999737e-05,-3.699999999999999947e-04,1.800000000000000113e-04,-1.199999999999999895e-04,6.000000000000000000e+00,2.300000000000000000e+01
5.933500000000000000e+04,8.000000000000000654e-05,-6.999999999999999387e-05,-2.999999999999999737e-05,-2.999999999999999737e-05,2.999999999999999737e-05,-3.699999999999999947e-04,1.800000000000000113e-04,-1.199999999999999895e-04,6.000000000000000000e+00,2.300000000000000000e+01
5.933600000000000000e+04,8.000000000000000654e-05,-6.999999999999999387e-05,-2.999999999999999737e-05,-2.999999999999999737e-05,2.999999999999999737e-05,-3.699999999999999947e-04,1.800000000000000113e-04,-1.199999999999999895e-04,6.000000000000000000e+00,2.300000000000000000e+01
5.933900000000000000e+04,-5.999999999999999474e-05,-5.000000000000000240e-05,2.999999999999999737e-05,1.100000000000000039e-04,4.599999999999999597e-04,7.799999999999999859e-04,-1.399999999999999877e-04,8.000000000000000654e-05,6.000000000000000000e+00,2.300000000000000000e+01
5.934000000000000000e+04,-5.999999999999999474e-05,-5.000000000000000240e-05,2.999999999999999737e-05,1.100000000000000039e-04,4.599999999999999597e-04,7.799999999999999859e-04,-1.399999999999999877e-04,8.000000000000000654e-05,6.000000000000000000e+00,2.300000000000000000e+01
5.934100000000000000e+04,-5.999999999999999474e-05,-5.000000000000000240e-05,2.999999999999999737e-05,1.100000000000000039e-04,4.599999999999999597e-04,7.799999999999999859e-04,-1.399999999999999877e-04,8.000000000000000654e-05,6.000000000000000000e+00,2.300000000000000000e+01
5.934200000000000000e+04,-5.999999999999999474e-05,-5.000000000000000240e-05,2.999999999999999737e-05,1.100000000000000039e-04,4.599999999999999597e-04,7.799999999999999859e-04,-1.399999999999999877e-04,8.000000000000000654e-05,6.000000000000000000e+00,2.300000000000000000e+01
5.934300000000000000e+04,-5.999999999999999474e-05,-5.000000000000000240e-05,2.999999999999999737e-05,1.100000000000000039e-04,4.599999999999999597e-04,7.799999999999999859e-04,-1.399999999999999877e-04,8.000000000000000654e-05,6.000000000000000000e+00,2.300000000000000000e+01
5.934400000000000000e+04,-5.999999999999999474e-05,-5.000000000000000240e-05,2.999999999999999737e-05,1.100000000000000039e-04,4.599999999999999597e-04,7.799999999999999859e-04,-1.399999999999999877e-04,8.000000000000000654e-05,6.000000000000000000e+00,2.300000000000000000e+01
5.934500000000000000e+04,-5.999999999999999474e-05,-5.000000000000000240e-05,2.999999999999999737e-05,1.100000000000000039e-04,4.599999999999999597e-04,7.799999999999999859e-04,-1.399999999999999877e-04,8.000000000000000654e-05,6.000000000000000000e+00,2.300000000000000000e+01
5.934600000000000000e+04,-5.999999999999999474e-05,-5.000000000000000240e-05,2.999999999999999737e-05,1.100000000000000039e-04,4.599999999999999597e-04,7.799999999999999859e-04,-1.399999999999999877e-04,8.000000000000000654e-05,6.000000000000000000e+00,2.300000000000000000e+01
5.934700000000000000e+04,-5.999999999999999474e-05,-5.000000000000000240e-05,2.999999999999999737e-05,1.100000000000000039e-04,4.599999999999999597e-04,7.799999999999999859e-04,-1.399999999999999877e-04,8.000000000000000654e-05,6.000000000000000000e+00,2.300000000000000000e+01
5.934800000000000000e+04,-5.999999999999999474e-05,-5.000000000000000240e-05,2.999999999999999737e-05,1.100000000000000039e-04,4.599999999999999597e-04,7.799999999999999859e-04,-1.399999999999999877e-04,8.000000000000000654e-05,6.000000000000000000e+00,2.300000000000000000e+01
5.934900000000000000e+04,-5.999999999999999474e-05,-5.000000000000000240e-05,2.999999999999999737e-05,1.100000000000000039e-04,4.599999999999999597e-04,7.799999999999999859e-04,-1.399999999999999877e-04,8.000000000000000654e-05,6.000000000000000000e+00,2.300000000000000000e+01
5.935000000000000000e+04,-5.999999999999999474e-05,-5.000000000000000240e-05,2.999999999999999737e-05,1.100000000000000039e-04,4.599999999999999597e-04,7.799999999999999859e-04,-1.399999999999999877e-04,8.000000000000000654e-05,6.000000000000000000e+00,2.300000000000000000e+01
5.935100000000000000e+04,-5.999999999999999474e-05,-5.000000000000000240e-05,2.999999999999999737e-05,1.100000000000000039e-04,4.599999999999999597e-04,7.799999999999999859e-04,-1.399999999999999877e-04,8.000000000000000654e-05,6.000000000000000000e+00,2.300000000000000000e+01
5.935200000000000000e+04,-5.999999999999999474e-05,-5.000000000000000240e-05,2.999999999999999737e-05,1.100000000000000039e-04,4.599999999999999597e-04,7.799999999999999859e-04,-1.399999999999999877e-04,8.000000000000000654e-05,6.000000000000000000e+00,2.300000000000000000e+01
5.935300000000000000e+04,-5.999999999999999474e-05,-5.000000000000000240e-05,2.999999999999999737e-05,1.100000000000000039e-04,4.599999999999999597e-04,7.799999999999999859e-04,-1.399999999999999877e-04,8.000000000000000654e-05,6.000000000000000000e+00,2.300000000000000000e+01
5.935400000000000000e+04,-5.999999999999999474e-05,-5.000000000000000240e-05,2.999999999999999737e-05,1.100000000000000039e-04,4.599999999999999597e-04,7.799999999999999859e-04,-1.399999999999999877e-04,8.000000000000000654e-05,6.000000000000000000e+00,2.300000000000000000e+01
5.935500000000000000e+04,-5.999999999999999474e-05,-5.000000000000000240e-05,2.999999999999999737e-05,1.100000000000000039e-04,4.599999999999999597e-04,7.799999999999999859e-04,-1.399999999999999877e-04,8.000000000000000654e-05,6.000000000000000000e+00,2.300000000000000000e+01
5.935600000000000000e+04,-5.999999999999999474e-05,-5.000000000000000240e-05,2.999999999999999737e-05,1.100000000000000039e-04,4.599999999999999597e-04,7.799999999999999859e-04,-1.399999999999999877e-04,8.000000000000000654e-05,6.000000000000000000e+00,2.300000000000000000e+01
5.935700000000000000e+04,-5.999999999999999474e-05,-5.000000000000000240e-05,2.999999999999999737e-05,1.100000000000000039e-04,4.599999999999999597e-04,7.799999999999999859e-04,-1.399999999999999877e-04,8.000000000000000654e-05,6.000000000000000000e+00,2.300000000000000000e+01
5.935800000000000000e+04,-5.999999999999999474e-05,-5.000000000000000240e-05,2.999999999999999737e-05,1.100000000000000039e-04,4.599999999999999597e-04,7.799999999999999859e-04,-1.399999999999999877e-04,8.000000000000000654e-05,6.000000000000000000e+00,2.300000000000000000e+01
5.935900000000000000e+04,-5.999999999999999474e-05,-5.000000000000000240e-05,2.999999999999999737e-05,1.100000000000000039e-04,4.599999999999999597e-04,7.799999999999999859e-04,-1.399999999999999877e-04,8.000000000000000654e-05,6.000000000000000000e+00,2.300000000000000000e+01
5.936000000000000000e+04,-5.000000000000000240e-05,2.999999999999999737e-05,-2.000000000000000164e-05,4.000000000000000327e-05,2.600000000000000314e-04,-1.399999999999999877e-04,-5.000000000000000240e-05,-1.600000000000000131e-04,6.000000000000000000e+00,2.300000000000000000e+01
5.936100000000000000e+04,-5.000000000000000240e-05,2.999999999999999737e-05,-2.000000000000000164e-05,4.000000000000000327e-05,2.600000000000000314e-04,-1.399999999999999877e-04,-5.000000000000000240e-05,-1.600000000000000131e-04,6.000000000000000000e+00,2.300000000000000000e+01
5.936200000000000000e+04,-2.000000000000000096e-04,-1.300000000000000157e-04,-5.000000000000000240e-05,-1.300000000000000157e-04,-8.000000000000000654e-05,3.499999999999999964e-04,-4.700000000000000401e-04,1.000000000000000021e-03,6.000000000000000000e+00,2.300000000000000000e+01
5.936300000000000000e+04,-2.000000000000000096e-04,-1.300000000000000157e-04,-5.000000000000000240e-05,-1.300000000000000157e-04,-8.000000000000000654e-05,3.499999999999999964e-04,-4.700000000000000401e-04,1.000000000000000021e-03,6.000000000000000000e+00,2.300000000000000000e+01
5.936400000000000000e+04,-2.000000000000000096e-04,-1.300000000000000157e-04,-5.000000000000000240e-05,-1.300000000000000157e-04,-8.000000000000000654e-05,3.499999999999999964e-04,-4.700000000000000401e-04,1.000000000000000021e-03,6.000000000000000000e+00,2.300000000000000000e+01
5.936500000000000000e+04,-2.000000000000000096e-04,-1.300000000000000157e-04,-5.000000000000000240e-05,-1.300000000000000157e-04,-8.000000000000000654e-05,3.499999999999999964e-04,-4.700000000000000401e-04,1.000000000000000021e-03,6.000000000000000000e+00,2.300000000000000000e+01
5.936600000000000000e+04,-2.000000000000000096e-04,-1.300000000000000157e-04,-5.000000000000000240e-05,-1.300000000000000157e-04,-8.000000000000000654e-05,3.499999999999999964e-04,-4.700000000000000401e-04,1.000000000000000021e-03,6.000000000000000000e+00,2.300000000000000000e+01
5.936700000000000000e+04,-2.000000000000000096e-04,-1.300000000000000157e-04,-5.000000000000000240e-05,-1.300000000000000157e-04,-8.000000000000000654e-05,3.499999999999999964e-04,-4.700000000000000401e-04,1.000000000000000021e-03,6.000000000000000000e+00,2.300000000000000000e+01
5.936800000000000000e+04,-2.000000000000000096e-04,-1.300000000000000157e-04,-5.000000000000000240e-05,-1.300000000000000157e-04,-8.000000000000000654e-05,3.499999999999999964e-04,-4.700000000000000401e-04,1.000000000000000021e-03,6.000000000000000000e+00,2.300000000000000000e+01
5.936900000000000000e+04,-2.000000000000000096e-04,-1.300000000000000157e-04,-5.000000000000000240e-05,-1.300000000000000157e-04,-8.000000000000000654e-05,3.499999999999999964e-04,-4.700000000000000401e-04,1.000000000000000021e-03,6.000000000000000000e+00,2.300000000000000000e+01
5.937000000000000000e+04,-2.000000000000000096e-04,-1.300000000000000157e-04,-5.000000000000000240e-05,-1.300000000000000157e-04,-8.000000000000000654e-05,3.499999999999999964e-04,-4.700000000000000401e-04,1.000000000000000021e-03,6.000000000000000000e+00,2.300000000000000000e+01
5.937100000000000000e+04,-2.000000000000000096e-04,-1.300000000000000157e-04,-5.000000000000000240e-05,-1.300000000000000157e-04,-8.000000000000000654e-05,3.499999999999999964e-04,-4.700000000000000401e-04,1.000000000000000021e-03,6.000000000000000000e+00,2.300000000000000000e+01
5.937200000000000000e+04,-2.000000000000000096e-04,-1.300000000000000157e-04,-5.000000000000000240e-05,-1.300000000000000157e-04,-8.000000000000000654e-05,3.499999999999999964e-04,-4.700000000000000401e-04,1.000000000000000021e-03,6.000000000000000000e+00,2.300000000000000000e+01
5.937300000000000000e+04,-2.000000000000000096e-04,-1.300000000000000157e-04,-5.000000000000000240e-05,-1.300000000000000157e-04,-8.000000000000000654e-05,3.499999999999999964e-04,-4.700000000000000401e-04,1.000000000000000021e-03,6.000000000000000000e+00,2.300000000000000000e+01
5.937400000000000000e+04,-2.000000000000000096e-04,-1.300000000000000157e-04,-5.000000000000000240e-05,-1.300000000000000157e-04,-8.000000000000000654e-05,3.499999999999999964e-04,-4.700000000000000401e-04,1.000000000000000021e-03,6.000000000000000000e+00,2.300000000000000000e+01
5.937500000000000000e+04,-2.000000000000000096e-04,-1.300000000000000157e-04,-5.000000000000000240e-05,-1.300000000000000157e-04,-8.000000000000000654e-05,3.499999999999999964e-04,-4.700000000000000401e-04,1.000000000000000021e-03,6.000000000000000000e+00,2.300000000000000000e+01
5.937600000000000000e+04,-2.000000000000000096e-04,-1.300000000000000157e-04,-5.000000000000000240e-05,-1.300000000000000157e-04,-8.000000000000000654e-05,3.499999999999999964e-04,-4.700000000000000401e-04,1.000000000000000021e-03,6.000000000000000000e+00,2.300000000000000000e+01
5.937700000000000000e+04,-2.000000000000000096e-04,-1.300000000000000157e-04,-5.000000000000000240e-05,-1.300000000000000157e-04,-8.000000000000000654e-05,3.499999999999999964e-04,-4.700000000000000401e-04,1.000000000000000021e-03,6.000000000000000000e+00,2.300000000000000000e+01
5.937800000000000000e+04,-2.000000000000000096e-04,-1.300000000000000157e-04,-5.000000000000000240e-05,-1.300000000000000157e-04,-8.000000000000000654e-05,3.499999999999999964e-04,-4.700000000000000401e-04,1.000000000000000021e-03,6.000000000000000000e+00,2.300000000000000000e+01
5.937900000000000000e+04,-2.000000000000000096e-04,-1.300000000000000157e-04,-5.000000000000000240e-05,-1.300000000000000157e-04,-8.000000000000000654e-05,3.499999999999999964e-04,-4.700000000000000401e-04,1.000000000000000021e-03,6.000000000000000000e+00,2.300000000000000000e+01
5.938000000000000000e+04,-2.000000000000000096e-04,-1.300000000000000157e-04,-5.000000000000000240e-05,-1.300000000000000157e-04,-8.000000000000000654e-05,3.499999999999999964e-04,-4.700000000000000401e-04,1.000000000000000021e-03,6.000000000000000000e+00,2.300000000000000000e+01
5.938100000000000000e+04,-2.000000000000000096e-04,-1.300000000000000157e-04,-5.000000000000000240e-05,-1.300000000000000157e-04,-8.000000000000000654e-05,3.499999999999999964e-04,-4.700000000000000401e-04,1.000000000000000021e-03,6.000000000000000000e+00,2.300000000000000000e+01
5.938200000000000000e+04,-2.000000000000000096e-04,-1.300000000000000157e-04,-5.000000000000000240e-05,-1.300000000000000157e-04,-8.000000000000000654e-05,3.499999999999999964e-04,-4.700000000000000401e-04,1.000000000000000021e-03,6.000000000000000000e+00,2.300000000000000000e+01
5.938300000000000000e+04,-1.000000000000000048e-04,-1.000000000000000082e-05,2.000000000000000164e-05,-5.000000000000000240e-05,-6.999999999999999929e-04,-2.900000000000000017e-04,0.000000000000000000e+00,6.300000000000000261e-04,6.000000000000000000e+00,2.300000000000000000e+01
5.938400000000000000e+04,5.000000000000000240e-05,2.999999999999999737e-05,2.999999999999999737e-05,1.300000000000000157e-04,3.499999999999999964e-04,-1.100000000000000039e-04,-1.000000000000000082e-05,-2.500000000000000052e-04,6.000000000000000000e+00,2.300000000000000000e+01
5.938500000000000000e+04,5.000000000000000240e-05,2.999999999999999737e-05,2.999999999999999737e-05,1.300000000000000157e-04,3.499999999999999964e-04,-1.100000000000000039e-04,-1.000000000000000082e-05,-2.500000000000000052e-04,6.000000000000000000e+00,2.300000000000000000e+01
5.938600000000000000e+04,5.000000000000000240e-05,2.999999999999999737e-05,2.999999999999999737e-05,1.300000000000000157e-04,3.499999999999999964e-04,-1.100000000000000039e-04,-1.000000000000000082e-05,-2.500000000000000052e-04,6.000000000000000000e+00,2.300000000000000000e+01
5.938800000000000000e+04,5.000000000000000240e-05,2.999999999999999737e-05,2.999999999999999737e-05,1.300000000000000157e-04,3.499999999999999964e-04,-1.100000000000000039e-04,-1.000000000000000082e-05,-2.500000000000000052e-04,6.000000000000000000e+00,2.300000000000000000e+01
5.938900000000000000e+04,5.000000000000000240e-05,2.999999999999999737e-05,2.999999999999999737e-05,1.300000000000000157e-04,3.499999999999999964e-04,-1.100000000000000039e-04,-1.000000000000000082e-05,-2.500000000000000052e-04,6.000000000000000000e+00,2.300000000000000000e+01
5.939000000000000000e+04,5.000000000000000240e-05,2.999999999999999737e-05,2.999999999999999737e-05,1.300000000000000157e-04,3.499999999999999964e-04,-1.100000000000000039e-04,-1.000000000000000082e-05,-2.500000000000000052e-04,6.000000000000000000e+00,2.300000000000000000e+01
5.939100000000000000e+04,5.000000000000000240e-05,2.999999999999999737e-05,2.999999999999999737e-05,1.300000000000000157e-04,3.499999999999999964e-04,-1.100000000000000039e-04,-1.000000000000000082e-05,-2.500000000000000052e-04,6.000000000000000000e+00,2.300000000000000000e+01
5.939200000000000000e+04,5.000000000000000240e-05,2.999999999999999737e-05,2.999999999999999737e-05,1.300000000000000157e-04,3.499999999999999964e-04,-1.100000000000000039e-04,-1.000000000000000082e-05,-2.500000000000000052e-04,6.000000000000000000e+00,2.300000000000000000e+01
5.939300000000000000e+04,5.000000000000000240e-05,2.999999999999999737e-05,2.999999999999999737e-05,1.300000000000000157e-04,3.499999999999999964e-04,-1.100000000000000039e-04,-1.000000000000000082e-05,-2.500000000000000052e-04,6.000000000000000000e+00,2.300000000000000000e+01
5.939400000000000000e+04,5.000000000000000240e-05,2.999999999999999737e-05,2.999999999999999737e-05,1.300000000000000157e-04,3.499999999999999964e-04,-1.100000000000000039e-04,-1.000000000000000082e-05,-2.500000000000000052e-04,6.000000000000000000e+00,2.300000000000000000e+01
5.939500000000000000e+04,5.000000000000000240e-05,2.999999999999999737e-05,2.999999999999999737e-05,1.300000000000000157e-04,3.499999999999999964e-04,-1.100000000000000039e-04,-1.000000000000000082e-05,-2.500000000000000052e-04,6.000000000000000000e+00,2.300000000000000000e+01
5.939600000000000000e+04,5.000000000000000240e-05,2.999999999999999737e-05,2.999999999999999737e-05,1.300000000000000157e-04,3.499999999999999964e-04,-1.100000000000000039e-04,-1.000000000000000082e-05,-2.500000000000000052e-04,6.000000000000000000e+00,2.300000000000000000e+01
5.939700000000000000e+04,5.000000000000000240e-05,2.999999999999999737e-05,2.999999999999999737e-05,1.300000000000000157e-04,3.499999999999999964e-04,-1.100000000000000039e-04,-1.000000000000000082e-05,-2.500000000000000052e-04,6.000000000000000000e+00,2.300000000000000000e+01
5.939800000000000000e+04,-6.999999999999999387e-05,-5.000000000000000240e-05,-1.100000000000000039e-04,-1.600000000000000131e-04,-2.200000000000000078e-04,-4.899999999999999842e-04,-6.999999999999999387e-05,-1.600000000000000131e-04,6.000000000000000000e+00,2.300000000000000000e+01
5.939900000000000000e+04,9.000000000000000567e-05,2.000000000000000164e-05,-2.999999999999999737e-05,-1.000000000000000048e-04,-2.500000000000000052e-04,1.600000000000000131e-04,1.000000000000000082e-05,2.399999999999999790e-04,6.000000000000000000e+00,2.300000000000000000e+01
5.940000000000000000e+04,9.000000000000000567e-05,2.000000000000000164e-05,-2.999999999999999737e-05,-1.000000000000000048e-04,-2.500000000000000052e-04,1.600000000000000131e-04,1.000000000000000082e-05,2.399999999999999790e-04,6.000000000000000000e+00,2.300000000000000000e+01
5.940100000000000000e+04,9.000000000000000567e-05,2.000000000000000164e-05,-2.999999999999999737e-05,-1.000000000000000048e-04,-2.500000000000000052e-04,1.600000000000000131e-04,1.000000000000000082e-05,2.399999999999999790e-04,6.000000000000000000e+00,2.300000000000000000e+01
5.940200000000000000e+04,9.000000000000000567e-05,2.000000000000000164e-05,-2.999999999999999737e-05,-1.000000000000000048e-04,-2.500000000000000052e-04,1.600000000000000131e-04,1.000000000000000082e-05,2.399999999999999790e-04,6.000000000000000000e+00,2.300000000000000000e+01
5.940300000000000000e+04,9.000000000000000567e-05,2.000000000000000164e-05,-2.999999999999999737e-05,-1.000000000000000048e-04,-2.500000000000000052e-04,1.600000000000000131e-04,1.000000000000000082e-05,2.399999999999999790e-04,6.000000000000000000e+00,2.300000000000000000e+01
5.940400000000000000e+04,9.000000000000000567e-05,2.000000000000000164e-05,-2.999999999999999737e-05,-1.000000000000000048e-04,-2.500000000000000052e-04,1.600000000000000131e-04,1.000000000000000082e-05,2.399999999999999790e-04,6.000000000000000000e+00,2.300000000000000000e+01
5.940500000000000000e+04,9.000000000000000567e-05,2.000000000000000164e-05,-2.999999999999999737e-05,-1.000000000000000048e-04,-2.500000000000000052e-04,1.600000000000000131e-04,1.000000000000000082e-05,2.399999999999999790e-04,6.000000000000000000e+00,2.300000000000000000e+01
5.940600000000000000e+04,9.000000000000000567e-05,2.000000000000000164e-05,-2.999999999999999737e-05,-1.000000000000000048e-04,-2.500000000000000052e-04,1.600000000000000131e-04,1.000000000000000082e-05,2.399999999999999790e-04,6.000000000000000000e+00,2.300000000000000000e+01
5.940700000000000000e+04,9.000000000000000567e-05,2.000000000000000164e-05,-2.999999999999999737e-05,-1.000000000000000048e-04,-2.500000000000000052e-04,1.600000000000000131e-04,1.000000000000000082e-05,2.399999999999999790e-04,6.000000000000000000e+00,2.300000000000000000e+01
5.940800000000000000e+04,9.000000000000000567e-05,2.000000000000000164e-05,-2.999999999999999737e-05,-1.000000000000000048e-04,-2.500000000000000052e-04,1.600000000000000131e-04,1.000000000000000082e-05,2.399999999999999790e-04,6.000000000000000000e+00,2.300000000000000000e+01
5.940900000000000000e+04,9.000000000000000567e-05,2.000000000000000164e-05,-2.999999999999999737e-05,-1.000000000000000048e-04,-2.500000000000000052e-04,1.600000000000000131e-04,1.000000000000000082e-05,2.399999999999999790e-04,6.000000000000000000e+00,2.300000000000000000e+01
5.941000000000000000e+04,9.000000000000000567e-05,2.000000000000000164e-05,-2.999999999999999737e-05,-1.000000000000000048e-04,-2.500000000000000052e-04,1.600000000000000131e-04,1.000000000000000082e-05,2.399999999999999790e-04,6.000000000000000000e+00,2.300000000000000000e+01
5.941100000000000000e+04,9.000000000000000567e-05,2.000000000000000164e-05,-2.999999999999999737e-05,-1.000000000000000048e-04,-2.500000000000000052e-04,1.600000000000000131e-04,1.000000000000000082e-05,2.399999999999999790e-04,6.000000000000000000e+00,2.300000000000000000e+01
5.941200000000000000e+04,9.000000000000000567e-05,2.000000000000000164e-05,-2.999999999999999737e-05,-1.000000000000000048e-04,-2.500000000000000052e-04,1.600000000000000131e-04,1.000000000000000082e-05,2.399999999999999790e-04,6.000000000000000000e+00,2.300000000000000000e+01
5.941300000000000000e+04,9.000000000000000567e-05,2.000000000000000164e-05,-2.999999999999999737e-05,-1.000000000000000048e-04,-2.500000000000000052e-04,1.600000000000000131e-04,1.000000000000000082e-05,2.399999999999999790e-04,6.000000000000000000e+00,2.300000000000000000e+01
5.941400000000000000e+04,9.000000000000000567e-05,2.000000000000000164e-05,-2.999999999999999737e-05,-1.000000000000000048e-04,-2.500000000000000052e-04,1.600000000000000131e-04,1.000000000000000082e-05,2.399999999999999790e-04,6.000000000000000000e+00,2.300000000000000000e+01
5.941500000000000000e+04,9.000000000000000567e-05,2.000000000000000164e-05,-2.999999999999999737e-05,-1.000000000000000048e-04,-2.500000000000000052e-04,1.600000000000000131e-04,1.000000000000000082e-05,2.399999999999999790e-04,6.000000000000000000e+00,2.300000000000000000e+01
5.941600000000000000e+04,9.000000000000000567e-05,2.000000000000000164e-05,-2.999999999999999737e-05,-1.000000000000000048e-04,-2.500000000000000052e-04,1.600000000000000131e-04,1.000000000000000082e-05,2.399999999999999790e-04,6.000000000000000000e+00,2.300000000000000000e+01
5.941700000000000000e+04,9.000000000000000567e-05,2.000000000000000164e-05,-2.999999999999999737e-05,-1.000000000000000048e-04,-2.500000000000000052e-04,1.600000000000000131e-04,1.000000000000000082e-05,2.399999999999999790e-04,6.000000000000000000e+00,2.300000000000000000e+01
5.941800000000000000e+04,9.000000000000000567e-05,2.000000000000000164e-05,-2.999999999999999737e-05,-1.000000000000000048e-04,-2.500000000000000052e-04,1.600000000000000131e-04,1.000000000000000082e-05,2.399999999999999790e-04,6.000000000000000000e+00,2.300000000000000000e+01
5.941900000000000000e+04,9.000000000000000567e-05,2.000000000000000164e-05,-2.999999999999999737e-05,-1.000000000000000048e-04,-2.500000000000000052e-04,1.600000000000000131e-04,1.000000000000000082e-05,2.399999999999999790e-04,6.000000000000000000e+00,2.300000000000000000e+01
5.942000000000000000e+04,2.999999999999999737e-05,-5.000000000000000240e-05,1.000000000000000082e-05,2.000000000000000164e-05,-2.700000000000000035e-04,-1.600000000000000131e-04,1.600000000000000131e-04,2.600000000000000314e-04,6.000000000000000000e+00,2.300000000000000000e+01
5.942100000000000000e+04,2.999999999999999737e-05,-5.000000000000000240e-05,1.000000000000000082e-05,2.000000000000000164e-05,-2.700000000000000035e-04,-1.600000000000000131e-04,1.600000000000000131e-04,2.600000000000000314e-04,6.000000000000000000e+00,2.300000000000000000e+01
5.942200000000000000e+04,-1.000000000000000082e-05,4.000000000000000327e-05,5.000000000000000240e-05,1.000000000000000048e-04,-1.800000000000000113e-04,2.900000000000000017e-04,2.299999999999999799e-04,-1.499999999999999869e-04,6.000000000000000000e+00,2.300000000000000000e+01
5.942300000000000000e+04,-1.000000000000000082e-05,4.000000000000000327e-05,5.000000000000000240e-05,1.000000000000000048e-04,-1.800000000000000113e-04,2.900000000000000017e-04,2.299999999999999799e-04,-1.499999999999999869e-04,6.000000000000000000e+00,2.300000000000000000e+01
5.942400000000000000e+04,-1.000000000000000082e-05,4.000000000000000327e-05,5.000000000000000240e-05,1.000000000000000048e-04,-1.800000000000000113e-04,2.900000000000000017e-04,2.299999999999999799e-04,-1.499999999999999869e-04,6.000000000000000000e+00,2.300000000000000000e+01
5.942500000000000000e+04,-1.000000000000000082e-05,4.000000000000000327e-05,5.000000000000000240e-05,1.000000000000000048e-04,-1.800000000000000113e-04,2.900000000000000017e-04,2.299999999999999799e-04,-1.499999999999999869e-04,6.000000000000000000e+00,2.300000000000000000e+01
5.942600000000000000e+04,-1.000000000000000082e-05,4.000000000000000327e-05,5.000000000000000240e-05,1.000000000000000048e-04,-1.800000000000000113e-04,2.900000000000000017e-04,2.299999999999999799e-04,-1.499999999999999869e-04,6.000000000000000000e+00,2.300000000000000000e+01
5.942700000000000000e+04,-1.000000000000000082e-05,4.000000000000000327e-05,5.000000000000000240e-05,1.000000000000000048e-04,-1.800000000000000113e-04,2.900000000000000017e-04,2.299999999999999799e-04,-1.499999999999999869e-04,6.000000000000000000e+00,2.300000000000000000e+01
5.942800000000000000e+04,-1.000000000000000082e-05,4.000000000000000327e-05,5.000000000000000240e-05,1.000000000000000048e-04,-1.800000000000000113e-04,2.900000000000000017e-04,2.299999999999999799e-04,-1.499999999999999869e-04,6.000000000000000000e+00,2.300000000000000000e+01
5.942900000000000000e+04,-1.000000000000000082e-05,4.000000000000000327e-05,5.000000000000000240e-05,1.000000000000000048e-04,-1.800000000000000113e-04,2.900000000000000017e-04,2.299999999999999799e-04,-1.499999999999999869e-04,6.000000000000000000e+00,2.300000000000000000e+01
5.943000000000000000e+04,-1.000000000000000082e-05,4.000000000000000327e-05,5.000000000000000240e-05,1.000000000000000048e-04,-1.800000000000000113e-04,2.900000000000000017e-04,2.299999999999999799e-04,-1.499999999999999869e-04,6.000000000000000000e+00,2.300000000000000000e+01
5.943100000000000000e+04,-1.000000000000000082e-05,4.000000000000000327e-05,5.000000000000000240e-05,1.000000000000000048e-04,-1.800000000000000113e-04,2.900000000000000017e-04,2.299999999999999799e-04,-1.499999999999999869e-04,6.000000000000000000e+00,2.300000000000000000e+01
5.943200000000000000e+04,-1.000000000000000082e-05,4.000000000000000327e-05,5.000000000000000240e-05,1.000000000000000048e-04,-1.800000000000000113e-04,2.900000000000000017e-04,2.299999999999999799e-04,-1.499999999999999869e-04,6.000000000000000000e+00,2.300000000000000000e+01
5.943300000000000000e+04,-1.000000000000000082e-05,4.000000000000000327e-05,5.000000000000000240e-05,1.000000000000000048e-04,-1.800000000000000113e-04,2.900000000000000017e-04,2.299999999999999799e-04,-1.499999999999999869e-04,6.000000000000000000e+00,2.300000000000000000e+01
5.943400000000000000e+04,-1.000000000000000082e-05,4.000000000000000327e-05,5.000000000000000240e-05,1.000000000000000048e-04,-1.800000000000000113e-04,2.900000000000000017e-04,2.299999999999999799e-04,-1.499999999999999869e-04,6.000000000000000000e+00,2.300000000000000000e+01
5.943500000000000000e+04,-1.000000000000000082e-05,4.000000000000000327e-05,5.000000000000000240e-05,1.000000000000000048e-04,-1.800000000000000113e-04,2.900000000000000017e-04,2.299999999999999799e-04,-1.499999999999999869e-04,6.000000000000000000e+00,2.300000000000000000e+01
5.943600000000000000e+04,-1.000000000000000082e-05,4.000000000000000327e-05,5.000000000000000240e-05,1.000000000000000048e-04,-1.800000000000000113e-04,2.900000000000000017e-04,2.299999999999999799e-04,-1.499999999999999869e-04,6.000000000000000000e+00,2.300000000000000000e+01
5.943800000000000000e+04,-1.000000000000000082e-05,4.000000000000000327e-05,5.000000000000000240e-05,1.000000000000000048e-04,-1.800000000000000113e-04,2.900000000000000017e-04,2.299999999999999799e-04,-1.499999999999999869e-04,6.000000000000000000e+00,2.300000000000000000e+01
5.943900000000000000e+04,-1.000000000000000082e-05,4.000000000000000327e-05,5.000000000000000240e-05,1.000000000000000048e-04,-1.800000000000000113e-04,2.900000000000000017e-04,2.299999999999999799e-04,-1.499999999999999869e-04,6.000000000000000000e+00,2.300000000000000000e+01
5.944000000000000000e+04,-1.000000000000000082e-05,4.000000000000000327e-05,5.000000000000000240e-05,1.000000000000000048e-04,-1.800000000000000113e-04,2.900000000000000017e-04,2.299999999999999799e-04,-1.499999999999999869e-04,6.000000000000000000e+00,2.300000000000000000e+01
5.944100000000000000e+04,-1.000000000000000082e-05,4.000000000000000327e-05,5.000000000000000240e-05,1.000000000000000048e-04,-1.800000000000000113e-04,2.900000000000000017e-04,2.299999999999999799e-04,-1.499999999999999869e-04,6.000000000000000000e+00,2.300000000000000000e+01
5.944200000000000000e+04,-1.000000000000000082e-05,4.000000000000000327e-05,5.000000000000000240e-05,1.000000000000000048e-04,-1.800000000000000113e-04,2.900000000000000017e-04,2.299999999999999799e-04,-1.499999999999999869e-04,6.000000000000000000e+00,2.300000000000000000e+01
5.944300000000000000e+04,2.799999999999999755e-04,1.199999999999999895e-04,-2.999999999999999737e-05,-2.999999999999999737e-05,-1.000000000000000048e-04,-4.000000000000000327e-05,1.600000000000000131e-04,-2.600000000000000314e-04,6.000000000000000000e+00,2.300000000000000000e+01
5.944400000000000000e+04,-1.800000000000000113e-04,2.000000000000000164e-05,8.000000000000000654e-05,-1.199999999999999895e-04,-7.299999999999999632e-04,5.000000000000000240e-05,3.499999999999999964e-04,8.199999999999999824e-04,6.000000000000000000e+00,2.300000000000000000e+01
5.944500000000000000e+04,-1.800000000000000113e-04,2.000000000000000164e-05,8.000000000000000654e-05,-1.199999999999999895e-04,-7.299999999999999632e-04,5.000000000000000240e-05,3.499999999999999964e-04,8.199999999999999824e-04,6.000000000000000000e+00,2.300000000000000000e+01
5.944600000000000000e+04,-1.800000000000000113e-04,2.000000000000000164e-05,8.000000000000000654e-05,-1.199999999999999895e-04,-7.299999999999999632e-04,5.000000000000000240e-05,3.499999999999999964e-04,8.199999999999999824e-04,6.000000000000000000e+00,2.300000000000000000e+01
5.944700000000000000e+04,-1.800000000000000113e-04,2.000000000000000164e-05,8.000000000000000654e-05,-1.199999999999999895e-04,-7.299999999999999632e-04,5.000000000000000240e-05,3.499999999999999964e-04,8.199999999999999824e-04,6.000000000000000000e+00,2.300000000000000000e+01
5.944800000000000000e+04,-1.800000000000000113e-04,2.000000000000000164e-05,8.000000000000000654e-05,-1.199999999999999895e-04,-7.299999999999999632e-04,5.000000000000000240e-05,3.499999999999999964e-04,8.199999999999999824e-04,6.000000000000000000e+00,2.300000000000000000e+01
5.944900000000000000e+04,-1.800000000000000113e-04,2.000000000000000164e-05,8.000000000000000654e-05,-1.199999999999999895e-04,-7.299999999999999632e-04,5.000000000000000240e-05,3.499999999999999964e-04,8.199999999999999824e-04,6.000000000000000000e+00,2.300000000000000000e+01
5.945000000000000000e+04,-1.800000000000000113e-04,2.000000000000000164e-05,8.000000000000000654e-05,-1.199999999999999895e-04,-7.299999999999999632e-04,5.000000000000000240e-05,3.499999999999999964e-04,8.199999999999999824e-04,6.000000000000000000e+00,2.300000000000000000e+01
5.945100000000000000e+04,-1.800000000000000113e-04,2.000000000000000164e-05,8.000000000000000654e-05,-1.199999999999999895e-04,-7.299999999999999632e-04,5.000000000000000240e-05,3.499999999999999964e-04,8.199999999999999824e-04,6.000000000000000000e+00,2.300000000000000000e+01
5.945200000000000000e+04,-1.800000000000000113e-04,2.000000000000000164e-05,8.000000000000000654e-05,-1.199999999999999895e-04,-7.299999999999999632e-04,5.000000000000000240e-05,3.499999999999999964e-04,8.199999999999999824e-04,6.000000000000000000e+00,2.300000000000000000e+01
5.945300000000000000e+04,-1.800000000000000113e-04,2.000000000000000164e-05,8.000000000000000654e-05,-1.199999999999999895e-04,-7.299999999999999632e-04,5.000000000000000240e-05,3.499999999999999964e-04,8.199999999999999824e-04,6.000000000000000000e+00,2.300000000000000000e+01
5.945400000000000000e+04,-1.800000000000000113e-04,2.000000000000000164e-05,8.000000000000000654e-05,-1.199999999999999895e-04,-7.299999999999999632e-04,5.000000000000000240e-05,3.499999999999999964e-04,8.199999999999999824e-04,6.000000000000000000e+00,2.300000000000000000e+01
5.945500000000000000e+04,-1.800000000000000113e-04,2.000000000000000164e-05,8.000000000000000654e-05,-1.199999999999999895e-04,-7.299999999999999632e-04,5.000000000000000240e-05,3.499999999999999964e-04,8.199999999999999824e-04,6.000000000000000000e+00,2.300000000000000000e+01
5.945600000000000000e+04,-1.800000000000000113e-04,2.000000000000000164e-05,8.000000000000000654e-05,-1.199999999999999895e-04,-7.299999999999999632e-04,5.000000000000000240e-05,3.499999999999999964e-04,8.199999999999999824e-04,6.000000000000000000e+00,2.300000000000000000e+01
5.945700000000000000e+04,-1.800000000000000113e-04,2.000000000000000164e-05,8.000000000000000654e-05,-1.199999999999999895e-04,-7.299999999999999632e-04,5.000000000000000240e-05,3.499999999999999964e-04,8.199999999999999824e-04,6.000000000000000000e+00,2.300000000000000000e+01
5.945800000000000000e+04,4.000000000000000327e-05,-2.000000000000000164e-05,-2.000000000000000164e-05,4.000000000000000327e-05,5.000000000000000240e-05,-5.999999999999999474e-05,-9.000000000000000567e-05,-1.300000000000000157e-04,6.000000000000000000e+00,2.300000000000000000e+01
5.945900000000000000e+04,2.500000000000000052e-04,-1.000000000000000082e-05,-5.999999999999999474e-05,-2.000000000000000164e-05,8.000000000000000654e-05,-1.399999999999999877e-04,-1.100000000000000039e-04,-4.599999999999999597e-04,6.000000000000000000e+00,2.300000000000000000e+01
5.946000000000000000e+04,2.500000000000000052e-04,-1.000000000000000082e-05,-5.999999999999999474e-05,-2.000000000000000164e-05,8.000000000000000654e-05,-1.399999999999999877e-04,-1.100000000000000039e-04,-4.599999999999999597e-04,6.000000000000000000e+00,2.300000000000000000e+01
5.946100000000000000e+04,2.500000000000000052e-04,-1.000000000000000082e-05,-5.999999999999999474e-05,-2.000000000000000164e-05,8.000000000000000654e-05,-1.399999999999999877e-04,-1.100000000000000039e-04,-4.599999999999999597e-04,6.000000000000000000e+00,2.300000000000000000e+01
5.946200000000000000e+04,2.500000000000000052e-04,-1.000000000000000082e-05,-5.999999999999999474e-05,-2.000000000000000164e-05,8.000000000000000654e-05,-1.399999999999999877e-04,-1.100000000000000039e-04,-4.599999999999999597e-04,6.000000000000000000e+00,2.300000000000000000e+01
5.946300000000000000e+04,2.500000000000000052e-04,-1.000000000000000082e-05,-5.999999999999999474e-05,-2.000000000000000164e-05,8.000000000000000654e-05,-1.399999999999999877e-04,-1.100000000000000039e-04,-4.599999999999999597e-04,6.000000000000000000e+00,2.300000000000000000e+01
5.946400000000000000e+04,2.500000000000000052e-04,-1.000000000000000082e-05,-5.999999999999999474e-05,-2.000000000000000164e-05,8.000000000000000654e-05,-1.399999999999999877e-04,-1.100000000000000039e-04,-4.599999999999999597e-04,6.000000000000000000e+00,2.300000000000000000e+01
5.946500000000000000e+04,2.500000000000000052e-04,-1.000000000000000082e-05,-5.999999999999999474e-05,-2.000000000000000164e-05,8.000000000000000654e-05,-1.399999999999999877e-04,-1.100000000000000039e-04,-4.599999999999999597e-04,6.000000000000000000e+00,2.300000000000000000e+01
5.946600000000000000e+04,2.500000000000000052e-04,-1.000000000000000082e-05,-5.999999999999999474e-05,-2.000000000000000164e-05,8.000000000000000654e-05,-1.399999999999999877e-04,-1.100000000000000039e-04,-4.599999999999999597e-04,6.000000000000000000e+00,2.300000000000000000e+01
5.946700000000000000e+04,2.500000000000000052e-04,-1.000000000000000082e-05,-5.999999999999999474e-05,-2.000000000000000164e-05,8.000000000000000654e-05,-1.399999999999999877e-04,-1.100000000000000039e-04,-4.599999999999999597e-04,6.000000000000000000e+00,2.300000000000000000e+01
5.946800000000000000e+04,2.500000000000000052e-04,-1.000000000000000082e-05,-5.999999999999999474e-05,-2.000000000000000164e-05,8.000000000000000654e-05,-1.399999999999999877e-04,-1.100000000000000039e-04,-4.599999999999999597e-04,6.000000000000000000e+00,2.300000000000000000e+01
5.946900000000000000e+04,2.500000000000000052e-04,-1.000000000000000082e-05,-5.999999999999999474e-05,-2.000000000000000164e-05,8.000000000000000654e-05,-1.399999999999999877e-04,-1.100000000000000039e-04,-4.599999999999999597e-04,6.000000000000000000e+00,2.300000000000000000e+01
5.947000000000000000e+04,2.500000000000000052e-04,-1.000000000000000082e-05,-5.999999999999999474e-05,-2.000000000000000164e-05,8.000000000000000654e-05,-1.399999999999999877e-04,-1.100000000000000039e-04,-4.599999999999999597e-04,6.000000000000000000e+00,2.300000000000000000e+01
5.947100000000000000e+04,2.500000000000000052e-04,-1.000000000000000082e-05,-5.999999999999999474e-05,-2.000000000000000164e-05,8.000000000000000654e-05,-1.399999999999999877e-04,-1.100000000000000039e-04,-4.599999999999999597e-04,6.000000000000000000e+00,2.300000000000000000e+01
5.947200000000000000e+04,2.500000000000000052e-04,-1.000000000000000082e-05,-5.999999999999999474e-05,-2.000000000000000164e-05,8.000000000000000654e-05,-1.399999999999999877e-04,-1.100000000000000039e-04,-4.599999999999999597e-04,6.000000000000000000e+00,2.300000000000000000e+01
5.947300000000000000e+04,2.500000000000000052e-04,-1.000000000000000082e-05,-5.999999999999999474e-05,-2.000000000000000164e-05,8.000000000000000654e-05,-1.399999999999999877e-04,-1.100000000000000039e-04,-4.599999999999999597e-04,6.000000000000000000e+00,2.300000000000000000e+01
5.947400000000000000e+04,2.500000000000000052e-04,-1.000000000000000082e-05,-5.999999999999999474e-05,-2.000000000000000164e-05,8.000000000000000654e-05,-1.399999999999999877e-04,-1.100000000000000039e-04,-4.599999999999999597e-04,6.000000000000000000e+00,2.300000000000000000e+01
5.947500000000000000e+04,2.500000000000000052e-04,-1.000000000000000082e-05,-5.999999999999999474e-05,-2.000000000000000164e-05,8.000000000000000654e-05,-1.399999999999999877e-04,-1.100000000000000039e-04,-4.599999999999999597e-04,6.000000000000000000e+00,2.300000000000000000e+01
5.947600000000000000e+04,2.500000000000000052e-04,-1.000000000000000082e-05,-5.999999999999999474e-05,-2.000000000000000164e-05,8.000000000000000654e-05,-1.399999999999999877e-04,-1.100000000000000039e-04,-4.599999999999999597e-04,6.000000000000000000e+00,2.300000000000000000e+01
5.947700000000000000e+04,2.500000000000000052e-04,-1.000000000000000082e-05,-5.999999999999999474e-05,-2.000000000000000164e-05,8.000000000000000654e-05,-1.399999999999999877e-04,-1.100000000000000039e-04,-4.599999999999999597e-04,6.000000000000000000e+00,2.300000000000000000e+01
5.947900000000000000e+04,2.500000000000000052e-04,-1.000000000000000082e-05,-5.999999999999999474e-05,-2.000000000000000164e-05,8.000000000000000654e-05,-1.399999999999999877e-04,-1.100000000000000039e-04,-4.599999999999999597e-04,6.000000000000000000e+00,2.300000000000000000e+01
5.948000000000000000e+04,-1.600000000000000131e-04,-1.300000000000000157e-04,2.999999999999999737e-05,-2.000000000000000164e-05,-1.100000000000000039e-04,-2.500000000000000052e-04,1.100000000000000039e-04,1.699999999999999851e-04,6.000000000000000000e+00,2.300000000000000000e+01
5.948100000000000000e+04,-1.600000000000000131e-04,-1.300000000000000157e-04,2.999999999999999737e-05,-2.000000000000000164e-05,-1.100000000000000039e-04,-2.500000000000000052e-04,1.100000000000000039e-04,1.699999999999999851e-04,6.000000000000000000e+00,2.300000000000000000e+01
5.948200000000000000e+04,-5.000000000000000240e-05,-5.000000000000000240e-05,-5.000000000000000240e-05,-4.000000000000000327e-05,2.900000000000000017e-04,3.899999999999999929e-04,-2.000000000000000096e-04,-2.100000000000000087e-04,6.000000000000000000e+00,2.300000000000000000e+01
5.948300000000000000e+04,-5.000000000000000240e-05,-5.000000000000000240e-05,-5.000000000000000240e-05,-4.000000000000000327e-05,2.900000000000000017e-04,3.899999999999999929e-04,-2.000000000000000096e-04,-2.100000000000000087e-04,6.000000000000000000e+00,2.300000000000000000e+01
5.948400000000000000e+04,-5.000000000000000240e-05,-5.000000000000000240e-05,-5.000000000000000240e-05,-4.000000000000000327e-05,2.900000000000000017e-04,3.899999999999999929e-04,-2.000000000000000096e-04,-2.100000000000000087e-04,6.000000000000000000e+00,2.300000000000000000e+01
5.948500000000000000e+04,-5.000000000000000240e-05,-5.000000000000000240e-05,-5.000000000000000240e-05,-4.000000000000000327e-05,2.900000000000000017e-04,3.899999999999999929e-04,-2.000000000000000096e-04,-2.100000000000000087e-04,6.000000000000000000e+00,2.300000000000000000e+01
5.948600000000000000e+04,-5.000000000000000240e-05,-5.000000000000000240e-05,-5.000000000000000240e-05,-4.000000000000000327e-05,2.900000000000000017e-04,3.899999999999999929e-04,-2.000000000000000096e-04,-2.100000000000000087e-04,6.000000000000000000e+00,2.300000000000000000e+01
5.948800000000000000e+04,-5.000000000000000240e-05,-5.000000000000000240e-05,-5.000000000000000240e-05,-4.000000000000000327e-05,2.900000000000000017e-04,3.899999999999999929e-04,-2.000000000000000096e-04,-2.100000000000000087e-04,6.000000000000000000e+00,2.300000000000000000e+01
5.948900000000000000e+04,-5.000000000000000240e-05,-5.000000000000000240e-05,-5.000000000000000240e-05,-4.000000000000000327e-05,2.900000000000000017e-04,3.899999999999999929e-04,-2.000000000000000096e-04,-2.100000000000000087e-04,6.000000000000000000e+00,2.300000000000000000e+01
5.949000000000000000e+04,-5.000000000000000240e-05,-5.000000000000000240e-05,-5.000000000000000240e-05,-4.000000000000000327e-05,2.900000000000000017e-04,3.899999999999999929e-04,-2.000000000000000096e-04,-2.100000000000000087e-04,6.000000000000000000e+00,2.300000000000000000e+01
5.949100000000000000e+04,-5.000000000000000240e-05,-5.000000000000000240e-05,-5.000000000000000240e-05,-4.000000000000000327e-05,2.900000000000000017e-04,3.899999999999999929e-04,-2.000000000000000096e-04,-2.100000000000000087e-04,6.000000000000000000e+00,2.300000000000000000e+01
5.949200000000000000e+04,-5.000000000000000240e-05,-5.000000000000000240e-05,-5.000000000000000240e-05,-4.000000000000000327e-05,2.900000000000000017e-04,3.899999999999999929e-04,-2.000000000000000096e-04,-2.100000000000000087e-04,6.000000000000000000e+00,2.300000000000000000e+01
5.949300000000000000e+04,-5.000000000000000240e-05,-5.000000000000000240e-05,-5.000000000000000240e-05,-4.000000000000000327e-05,2.900000000000000017e-04,3.899999999999999929e-04,-2.000000000000000096e-04,-2.100000000000000087e-04,6.000000000000000000e+00,2.300000000000000000e+01
5.949400000000000000e+04,-5.000000000000000240e-05,-5.000000000000000240e-05,-5.000000000000000240e-05,-4.000000000000000327e-05,2.900000000000000017e-04,3.899999999999999929e-04,-2.000000000000000096e-04,-2.100000000000000087e-04,6.000000000000000000e+00,2.300000000000000000e+01
5.949500000000000000e+04,-5.000000000000000240e-05,-5.000000000000000240e-05,-5.000000000000000240e-05,-4.000000000000000327e-05,2.900000000000000017e-04,3.899999999999999929e-04,-2.000000000000000096e-04,-2.100000000000000087e-04,6.000000000000000000e+00,2.300000000000000000e+01
5.949600000000000000e+04,-5.000000000000000240e-05,-5.000000000000000240e-05,-5.000000000000000240e-05,-4.000000000000000327e-05,2.900000000000000017e-04,3.899999999999999929e-04,-2.000000000000000096e-04,-2.100000000000000087e-04,6.000000000000000000e+00,2.300000000000000000e+01
5.949700000000000000e+04,-5.000000000000000240e-05,-5.000000000000000240e-05,-5.000000000000000240e-05,-4.000000000000000327e-05,2.900000000000000017e-04,3.899999999999999929e-04,-2.000000000000000096e-04,-2.100000000000000087e-04,6.000000000000000000e+00,2.300000000000000000e+01
5.949800000000000000e+04,-5.000000000000000240e-05,-5.000000000000000240e-05,-5.000000000000000240e-05,-4.000000000000000327e-05,2.900000000000000017e-04,3.899999999999999929e-04,-2.000000000000000096e-04,-2.100000000000000087e-04,6.000000000000000000e+00,2.300000000000000000e+01
5.949900000000000000e+04,-5.000000000000000240e-05,-5.000000000000000240e-05,-5.000000000000000240e-05,-4.000000000000000327e-05,2.900000000000000017e-04,3.899999999999999929e-04,-2.000000000000000096e-04,-2.100000000000000087e-04,6.000000000000000000e+00,2.300000000000000000e+01
5.950000000000000000e+04,-5.000000000000000240e-05,-5.000000000000000240e-05,-5.000000000000000240e-05,-4.000000000000000327e-05,2.900000000000000017e-04,3.899999999999999929e-04,-2.000000000000000096e-04,-2.100000000000000087e-04,6.000000000000000000e+00,2.300000000000000000e+01
5.950100000000000000e+04,-5.000000000000000240e-05,-5.000000000000000240e-05,-5.000000000000000240e-05,-4.000000000000000327e-05,2.900000000000000017e-04,3.899999999999999929e-04,-2.000000000000000096e-04,-2.100000000000000087e-04,6.000000000000000000e+00,2.300000000000000000e+01
5.950200000000000000e+04,-5.000000000000000240e-05,-5.000000000000000240e-05,-5.000000000000000240e-05,-4.000000000000000327e-05,2.900000000000000017e-04,3.899999999999999929e-04,-2.000000000000000096e-04,-2.100000000000000087e-04,6.000000000000000000e+00,2.300000000000000000e+01
5.950300000000000000e+04,-2.000000000000000164e-05,-5.000000000000000240e-05,-2.999999999999999737e-05,-1.000000000000000082e-05,-9.000000000000000567e-05,-5.000000000000000240e-05,-5.000000000000000240e-05,-1.399999999999999877e-04,6.000000000000000000e+00,2.300000000000000000e+01
5.950400000000000000e+04,-2.000000000000000164e-05,-2.000000000000000164e-05,-1.000000000000000082e-05,2.999999999999999737e-05,2.600000000000000314e-04,-2.999999999999999737e-05,8.000000000000000654e-05,-1.800000000000000113e-04,6.000000000000000000e+00,2.300000000000000000e+01
5.950500000000000000e+04,-2.000000000000000164e-05,-2.000000000000000164e-05,-1.000000000000000082e-05,2.999999999999999737e-05,2.600000000000000314e-04,-2.999999999999999737e-05,8.000000000000000654e-05,-1.800000000000000113e-04,6.000000000000000000e+00,2.300000000000000000e+01
5.950600000000000000e+04,-2.000000000000000164e-05,-2.000000000000000164e-05,-1.000000000000000082e-05,2.999999999999999737e-05,2.600000000000000314e-04,-2.999999999999999737e-05,8.000000000000000654e-05,-1.800000000000000113e-04,6.000000000000000000e+00,2.300000000000000000e+01
5.950700000000000000e+04,-2.000000000000000164e-05,-2.000000000000000164e-05,-1.000000000000000082e-05,2.999999999999999737e-05,2.600000000000000314e-04,-2.999999999999999737e-05,8.000000000000000654e-05,-1.800000000000000113e-04,6.000000000000000000e+00,2.300000000000000000e+01
5.950800000000000000e+04,-2.000000000000000164e-05,-2.000000000000000164e-05,-1.000000000000000082e-05,2.999999999999999737e-05,2.600000000000000314e-04,-2.999999999999999737e-05,8.000000000000000654e-05,-1.800000000000000113e-04,6.000000000000000000e+00,2.300000000000000000e+01
5.950900000000000000e+04,-2.000000000000000164e-05,-2.000000000000000164e-05,-1.000000000000000082e-05,2.999999999999999737e-05,2.600000000000000314e-04,-2.999999999999999737e-05,8.000000000000000654e-05,-1.800000000000000113e-04,6.000000000000000000e+00,2.300000000000000000e+01
5.951000000000000000e+04,-2.000000000000000164e-05,-2.000000000000000164e-05,-1.000000000000000082e-05,2.999999999999999737e-05,2.600000000000000314e-04,-2.999999999999999737e-05,8.000000000000000654e-05,-1.800000000000000113e-04,6.000000000000000000e+00,2.300000000000000000e+01
5.951100000000000000e+04,-2.000000000000000164e-05,-2.000000000000000164e-05,-1.000000000000000082e-05,2.999999999999999737e-05,2.600000000000000314e-04,-2.999999999999999737e-05,8.000000000000000654e-05,-1.800000000000000113e-04,6.000000000000000000e+00,2.300000000000000000e+01
5.951200000000000000e+04,-2.000000000000000164e-05,-2.000000000000000164e-05,-1.000000000000000082e-05,2.999999999999999737e-05,2.600000000000000314e-04,-2.999999999999999737e-05,8.000000000000000654e-05,-1.800000000000000113e-04,6.000000000000000000e+00,2.300000000000000000e+01
5.951300000000000000e+04,-2.000000000000000164e-05,-2.000000000000000164e-05,-1.000000000000000082e-05,2.999999999999999737e-05,2.600000000000000314e-04,-2.999999999999999737e-05,8.000000000000000654e-05,-1.800000000000000113e-04,6.000000000000000000e+00,2.300000000000000000e+01
5.951400000000000000e+04,-2.000000000000000164e-05,-2.000000000000000164e-05,-1.000000000000000082e-05,2.999999999999999737e-05,2.600000000000000314e-04,-2.999999999999999737e-05,8.000000000000000654e-05,-1.800000000000000113e-04,6.000000000000000000e+00,2.300000000000000000e+01
5.951500000000000000e+04,-2.000000000000000164e-05,-2.000000000000000164e-05,-1.000000000000000082e-05,2.999999999999999737e-05,2.600000000000000314e-04,-2.999999999999999737e-05,8.000000000000000654e-05,-1.800000000000000113e-04,6.000000000000000000e+00,2.300000000000000000e+01
5.951600000000000000e+04,-2.000000000000000164e-05,-2.000000000000000164e-05,-1.000000000000000082e-05,2.999999999999999737e-05,2.600000000000000314e-04,-2.999999999999999737e-05,8.000000000000000654e-05,-1.800000000000000113e-04,6.000000000000000000e+00,2.300000000000000000e+01
5.951700000000000000e+04,-1.000000000000000048e-04,-5.999999999999999474e-05,-1.000000000000000082e-05,2.999999999999999737e-05,1.899999999999999834e-04,7.500000000000000156e-04,1.600000000000000131e-04,-1.100000000000000039e-04,6.000000000000000000e+00,2.300000000000000000e+01
5.951800000000000000e+04,-1.000000000000000048e-04,-5.999999999999999474e-05,-1.000000000000000082e-05,2.999999999999999737e-05,1.899999999999999834e-04,7.500000000000000156e-04,1.600000000000000131e-04,-1.100000000000000039e-04,6.000000000000000000e+00,2.300000000000000000e+01
5.951900000000000000e+04,-1.000000000000000048e-04,-5.999999999999999474e-05,-1.000000000000000082e-05,2.999999999999999737e-05,1.899999999999999834e-04,7.500000000000000156e-04,1.600000000000000131e-04,-1.100000000000000039e-04,6.000000000000000000e+00,2.300000000000000000e+01
5.952000000000000000e+04,-1.000000000000000048e-04,-5.999999999999999474e-05,-1.000000000000000082e-05,2.999999999999999737e-05,1.899999999999999834e-04,7.500000000000000156e-04,1.600000000000000131e-04,-1.100000000000000039e-04,6.000000000000000000e+00,2.300000000000000000e+01
5.952100000000000000e+04,-1.000000000000000048e-04,-5.999999999999999474e-05,-1.000000000000000082e-05,2.999999999999999737e-05,1.899999999999999834e-04,7.500000000000000156e-04,1.600000000000000131e-04,-1.100000000000000039e-04,6.000000000000000000e+00,2.300000000000000000e+01
5.952200000000000000e+04,-1.000000000000000048e-04,-5.999999999999999474e-05,-1.000000000000000082e-05,2.999999999999999737e-05,1.899999999999999834e-04,7.500000000000000156e-04,1.600000000000000131e-04,-1.100000000000000039e-04,6.000000000000000000e+00,2.300000000000000000e+01
5.952300000000000000e+04,-1.000000000000000048e-04,-5.999999999999999474e-05,-1.000000000000000082e-05,2.999999999999999737e-05,1.899999999999999834e-04,7.500000000000000156e-04,1.600000000000000131e-04,-1.100000000000000039e-04,6.000000000000000000e+00,2.300000000000000000e+01
5.952400000000000000e+04,4.000000000000000327e-05,-2.000000000000000164e-05,-1.000000000000000082e-05,2.000000000000000164e-05,1.399999999999999877e-04,-2.000000000000000096e-04,-9.000000000000000567e-05,-2.100000000000000087e-04,6.000000000000000000e+00,2.300000000000000000e+01
5.952500000000000000e+04,4.000000000000000327e-05,-2.000000000000000164e-05,-1.000000000000000082e-05,2.000000000000000164e-05,1.399999999999999877e-04,-2.000000000000000096e-04,-9.000000000000000567e-05,-2.100000000000000087e-04,6.000000000000000000e+00,2.300000000000000000e+01
5.952600000000000000e+04,4.000000000000000327e-05,-2.000000000000000164e-05,-1.000000000000000082e-05,2.000000000000000164e-05,1.399999999999999877e-04,-2.000000000000000096e-04,-9.000000000000000567e-05,-2.100000000000000087e-04,6.000000000000000000e+00,2.300000000000000000e+01
5.952700000000000000e+04,4.000000000000000327e-05,-2.000000000000000164e-05,-1.000000000000000082e-05,2.000000000000000164e-05,1.399999999999999877e-04,-2.000000000000000096e-04,-9.000000000000000567e-05,-2.100000000000000087e-04,6.000000000000000000e+00,2.300000000000000000e+01
5.952800000000000000e+04,4.000000000000000327e-05,-2.000000000000000164e-05,-1.000000000000000082e-05,2.000000000000000164e-05,1.399999999999999877e-04,-2.000000000000000096e-04,-9.000000000000000567e-05,-2.100000000000000087e-04,6.000000000000000000e+00,2.300000000000000000e+01
5.952900000000000000e+04,4.000000000000000327e-05,-2.000000000000000164e-05,-1.000000000000000082e-05,2.000000000000000164e-05,1.399999999999999877e-04,-2.000000000000000096e-04,-9.000000000000000567e-05,-2.100000000000000087e-04,6.000000000000000000e+00,2.300000000000000000e+01
5.953000000000000000e+04,4.000000000000000327e-05,-2.000000000000000164e-05,-1.000000000000000082e-05,2.000000000000000164e-05,1.399999999999999877e-04,-2.000000000000000096e-04,-9.000000000000000567e-05,-2.100000000000000087e-04,6.000000000000000000e+00,2.300000000000000000e+01
5.953100000000000000e+04,4.000000000000000327e-05,-2.000000000000000164e-05,-1.000000000000000082e-05,2.000000000000000164e-05,1.399999999999999877e-04,-2.000000000000000096e-04,-9.000000000000000567e-05,-2.100000000000000087e-04,6.000000000000000000e+00,2.300000000000000000e+01
5.953200000000000000e+04,4.000000000000000327e-05,-2.000000000000000164e-05,-1.000000000000000082e-05,2.000000000000000164e-05,1.399999999999999877e-04,-2.000000000000000096e-04,-9.000000000000000567e-05,-2.100000000000000087e-04,6.000000000000000000e+00,2.300000000000000000e+01
5.953300000000000000e+04,4.000000000000000327e-05,-2.000000000000000164e-05,-1.000000000000000082e-05,2.000000000000000164e-05,1.399999999999999877e-04,-2.000000000000000096e-04,-9.000000000000000567e-05,-2.100000000000000087e-04,6.000000000000000000e+00,2.300000000000000000e+01
5.953400000000000000e+04,4.000000000000000327e-05,-2.000000000000000164e-05,-1.000000000000000082e-05,2.000000000000000164e-05,1.399999999999999877e-04,-2.000000000000000096e-04,-9.000000000000000567e-05,-2.100000000000000087e-04,6.000000000000000000e+00,2.300000000000000000e+01
5.953500000000000000e+04,4.000000000000000327e-05,-2.000000000000000164e-05,-1.000000000000000082e-05,2.000000000000000164e-05,1.399999999999999877e-04,-2.000000000000000096e-04,-9.000000000000000567e-05,-2.100000000000000087e-04,6.000000000000000000e+00,2.300000000000000000e+01
5.953600000000000000e+04,4.000000000000000327e-05,-2.000000000000000164e-05,-1.000000000000000082e-05,2.000000000000000164e-05,1.399999999999999877e-04,-2.000000000000000096e-04,-9.000000000000000567e-05,-2.100000000000000087e-04,6.000000000000000000e+00,2.300000000000000000e+01
5.953800000000000000e+04,4.000000000000000327e-05,-2.000000000000000164e-05,-1.000000000000000082e-05,2.000000000000000164e-05,1.399999999999999877e-04,-2.000000000000000096e-04,-9.000000000000000567e-05,-2.100000000000000087e-04,6.000000000000000000e+00,2.300000000000000000e+01
5.953900000000000000e+04,4.000000000000000327e-05,-2.000000000000000164e-05,-1.000000000000000082e-05,2.000000000000000164e-05,1.399999999999999877e-04,-2.000000000000000096e-04,-9.000000000000000567e-05,-2.100000000000000087e-04,6.000000000000000000e+00,2.300000000000000000e+01
5.954000000000000000e+04,-2.000000000000000164e-05,-1.000000000000000082e-05,1.000000000000000082e-05,1.000000000000000082e-05,-1.000000000000000082e-05,-4.299999999999999894e-04,1.000000000000000082e-05,1.100000000000000039e-04,6.000000000000000000e+00,2.300000000000000000e+01
5.954100000000000000e+04,-2.000000000000000164e-05,-1.000000000000000082e-05,1.000000000000000082e-05,1.000000000000000082e-05,-1.000000000000000082e-05,-4.299999999999999894e-04,1.000000000000000082e-05,1.100000000000000039e-04,6.000000000000000000e+00,2.300000000000000000e+01
5.954200000000000000e+04,5.999999999999999474e-05,0.000000000000000000e+00,-5.000000000000000240e-05,-1.000000000000000082e-05,8.000000000000000654e-05,-1.199999999999999895e-04,-1.199999999999999895e-04,3.799999999999999667e-04,6.000000000000000000e+00,2.300000000000000000e+01
5.954300000000000000e+04,5.999999999999999474e-05,0.000000000000000000e+00,-5.000000000000000240e-05,-1.000000000000000082e-05,8.000000000000000654e-05,-1.199999999999999895e-04,-1.199999999999999895e-04,3.799999999999999667e-04,6.000000000000000000e+00,2.300000000000000000e+01
5.954400000000000000e+04,5.999999999999999474e-05,0.000000000000000000e+00,-5.000000000000000240e-05,-1.000000000000000082e-05,8.000000000000000654e-05,-1.199999999999999895e-04,-1.199999999999999895e-04,3.799999999999999667e-04,6.000000000000000000e+00,2.300000000000000000e+01
5.954500000000000000e+04,5.999999999999999474e-05,0.000000000000000000e+00,-5.000000000000000240e-05,-1.000000000000000082e-05,8.000000000000000654e-05,-1.199999999999999895e-04,-1.199999999999999895e-04,3.799999999999999667e-04,6.000000000000000000e+00,2.300000000000000000e+01
5.954600000000000000e+04,5.999999999999999474e-05,0.000000000000000000e+00,-5.000000000000000240e-05,-1.000000000000000082e-05,8.000000000000000654e-05,-1.199999999999999895e-04,-1.199999999999999895e-04,3.799999999999999667e-04,6.000000000000000000e+00,2.300000000000000000e+01
5.954700000000000000e+04,5.999999999999999474e-05,0.000000000000000000e+00,-5.000000000000000240e-05,-1.000000000000000082e-05,8.000000000000000654e-05,-1.199999999999999895e-04,-1.199999999999999895e-04,3.799999999999999667e-04,6.000000000000000000e+00,2.300000000000000000e+01
5.954800000000000000e+04,5.999999999999999474e-05,0.000000000000000000e+00,-5.000000000000000240e-05,-1.000000000000000082e-05,8.000000000000000654e-05,-1.199999999999999895e-04,-1.199999999999999895e-04,3.799999999999999667e-04,6.000000000000000000e+00,2.300000000000000000e+01
5.954900000000000000e+04,5.999999999999999474e-05,0.000000000000000000e+00,-5.000000000000000240e-05,-1.000000000000000082e-05,8.000000000000000654e-05,-1.199999999999999895e-04,-1.199999999999999895e-04,3.799999999999999667e-04,6.000000000000000000e+00,2.300000000000000000e+01
5.955000000000000000e+04,5.999999999999999474e-05,0.000000000000000000e+00,-5.000000000000000240e-05,-1.000000000000000082e-05,8.000000000000000654e-05,-1.199999999999999895e-04,-1.199999999999999895e-04,3.799999999999999667e-04,6.000000000000000000e+00,2.300000000000000000e+01
5.955100000000000000e+04,5.999999999999999474e-05,0.000000000000000000e+00,-5.000000000000000240e-05,-1.000000000000000082e-05,8.000000000000000654e-05,-1.199999999999999895e-04,-1.199999999999999895e-04,3.799999999999999667e-04,6.000000000000000000e+00,2.300000000000000000e+01
5.955200000000000000e+04,5.999999999999999474e-05,0.000000000000000000e+00,-5.000000000000000240e-05,-1.000000000000000082e-05,8.000000000000000654e-05,-1.199999999999999895e-04,-1.199999999999999895e-04,3.799999999999999667e-04,6.000000000000000000e+00,2.300000000000000000e+01
5.955300000000000000e+04,5.999999999999999474e-05,0.000000000000000000e+00,-5.000000000000000240e-05,-1.000000000000000082e-05,8.000000000000000654e-05,-1.199999999999999895e-04,-1.199999999999999895e-04,3.799999999999999667e-04,6.000000000000000000e+00,2.300000000000000000e+01
5.955400000000000000e+04,5.999999999999999474e-05,0.000000000000000000e+00,-5.000000000000000240e-05,-1.000000000000000082e-05,8.000000000000000654e-05,-1.199999999999999895e-04,-1.199999999999999895e-04,3.799999999999999667e-04,6.000000000000000000e+00,2.300000000000000000e+01
5.955500000000000000e+04,5.999999999999999474e-05,0.000000000000000000e+00,-5.000000000000000240e-05,-1.000000000000000082e-05,8.000000000000000654e-05,-1.199999999999999895e-04,-1.199999999999999895e-04,3.799999999999999667e-04,6.000000000000000000e+00,2.300000000000000000e+01
5.955600000000000000e+04,5.999999999999999474e-05,0.000000000000000000e+00,-5.000000000000000240e-05,-1.000000000000000082e-05,8.000000000000000654e-05,-1.199999999999999895e-04,-1.199999999999999895e-04,3.799999999999999667e-04,6.000000000000000000e+00,2.300000000000000000e+01
5.955700000000000000e+04,5.999999999999999474e-05,0.000000000000000000e+00,-5.000000000000000240e-05,-1.000000000000000082e-05,8.000000000000000654e-05,-1.199999999999999895e-04,-1.199999999999999895e-04,3.799999999999999667e-04,6.000000000000000000e+00,2.300000000000000000e+01
5.955800000000000000e+04,5.999999999999999474e-05,0.000000000000000000e+00,-5.000000000000000240e-05,-1.000000000000000082e-05,8.000000000000000654e-05,-1.199999999999999895e-04,-1.199999999999999895e-04,3.799999999999999667e-04,6.000000000000000000e+00,2.300000000000000000e+01
5.955900000000000000e+04,5.999999999999999474e-05,0.000000000000000000e+00,-5.000000000000000240e-05,-1.000000000000000082e-05,8.000000000000000654e-05,-1.199999999999999895e-04,-1.199999999999999895e-04,3.799999999999999667e-04,6.000000000000000000e+00,2.300000000000000000e+01
5.956000000000000000e+04,5.999999999999999474e-05,0.000000000000000000e+00,-5.000000000000000240e-05,-1.000000000000000082e-05,8.000000000000000654e-05,-1.199999999999999895e-04,-1.199999999999999895e-04,3.799999999999999667e-04,6.000000000000000000e+00,2.300000000000000000e+01
5.956100000000000000e+04,5.999999999999999474e-05,0.000000000000000000e+00,-5.000000000000000240e-05,-1.000000000000000082e-05,8.000000000000000654e-05,-1.199999999999999895e-04,-1.199999999999999895e-04,3.799999999999999667e-04,6.000000000000000000e+00,2.300000000000000000e+01
5.956200000000000000e+04,5.999999999999999474e-05,0.000000000000000000e+00,-5.000000000000000240e-05,-1.000000000000000082e-05,8.000000000000000654e-05,-1.199999999999999895e-04,-1.199999999999999895e-04,3.799999999999999667e-04,6.000000000000000000e+00,2.300000000000000000e+01
5.956300000000000000e+04,-5.000000000000000240e-05,-2.000000000000000164e-05,-2.999999999999999737e-05,-5.000000000000000240e-05,-1.899999999999999834e-04,6.999999999999999387e-05,-1.399999999999999877e-04,-5.999999999999999474e-05,6.000000000000000000e+00,2.300000000000000000e+01
5.956400000000000000e+04,-2.900000000000000017e-04,-6.999999999999999387e-05,-9.000000000000000567e-05,-8.000000000000000654e-05,-2.799999999999999755e-04,-5.999999999999999474e-04,-1.300000000000000157e-04,-6.599999999999999964e-04,6.000000000000000000e+00,2.300000000000000000e+01
5.956500000000000000e+04,-2.900000000000000017e-04,-6.999999999999999387e-05,-9.000000000000000567e-05,-8.000000000000000654e-05,-2.799999999999999755e-04,-5.999999999999999474e-04,-1.300000000000000157e-04,-6.599999999999999964e-04,6.000000000000000000e+00,2.300000000000000000e+01
5.956600000000000000e+04,-2.900000000000000017e-04,-6.999999999999999387e-05,-9.000000000000000567e-05,-8.000000000000000654e-05,-2.799999999999999755e-04,-5.999999999999999474e-04,-1.300000000000000157e-04,-6.599999999999999964e-04,6.000000000000000000e+00,2.300000000000000000e+01
5.956700000000000000e+04,-2.900000000000000017e-04,-6.999999999999999387e-05,-9.000000000000000567e-05,-8.000000000000000654e-05,-2.799999999999999755e-04,-5.999999999999999474e-04,-1.300000000000000157e-04,-6.599999999999999964e-04,6.000000000000000000e+00,2.300000000000000000e+01
5.956800000000000000e+04,-2.900000000000000017e-04,-6.999999999999999387e-05,-9.000000000000000567e-05,-8.000000000000000654e-05,-2.799999999999999755e-04,-5.999999999999999474e-04,-1.300000000000000157e-04,-6.599999999999999964e-04,6.000000000000000000e+00,2.300000000000000000e+01
5.956900000000000000e+04,-2.900000000000000017e-04,-6.999999999999999387e-05,-9.000000000000000567e-05,-8.000000000000000654e-05,-2.799999999999999755e-04,-5.999999999999999474e-04,-1.300000000000000157e-04,-6.599999999999999964e-04,6.000000000000000000e+00,2.300000000000000000e+01
5.957000000000000000e+04,-2.900000000000000017e-04,-6.999999999999999387e-05,-9.000000000000000567e-05,-8.000000000000000654e-05,-2.799999999999999755e-04,-5.999999999999999474e-04,-1.300000000000000157e-04,-6.599999999999999964e-04,6.000000000000000000e+00,2.300000000000000000e+01
5.957100000000000000e+04,-2.900000000000000017e-04,-6.999999999999999387e-05,-9.000000000000000567e-05,-8.000000000000000654e-05,-2.799999999999999755e-04,-5.999999999999999474e-04,-1.300000000000000157e-04,-6.599999999999999964e-04,6.000000000000000000e+00,2.300000000000000000e+01
5.957300000000000000e+04,-2.900000000000000017e-04,-6.999999999999999387e-05,-9.000000000000000567e-05,-8.000000000000000654e-05,-2.799999999999999755e-04,-5.999999999999999474e-04,-1.300000000000000157e-04,-6.599999999999999964e-04,6.000000000000000000e+00,2.300000000000000000e+01
5.957400000000000000e+04,-2.900000000000000017e-04,-6.999999999999999387e-05,-9.000000000000000567e-05,-8.000000000000000654e-05,-2.799999999999999755e-04,-5.999999999999999474e-04,-1.300000000000000157e-04,-6.599999999999999964e-04,6.000000000000000000e+00,2.300000000000000000e+01
5.957500000000000000e+04,-2.900000000000000017e-04,-6.999999999999999387e-05,-9.000000000000000567e-05,-8.000000000000000654e-05,-2.799999999999999755e-04,-5.999999999999999474e-04,-1.300000000000000157e-04,-6.599999999999999964e-04,6.000000000000000000e+00,2.300000000000000000e+01
5.957600000000000000e+04,-2.900000000000000017e-04,-6.999999999999999387e-05,-9.000000000000000567e-05,-8.000000000000000654e-05,-2.799999999999999755e-04,-5.999999999999999474e-04,-1.300000000000000157e-04,-6.599999999999999964e-04,6.000000000000000000e+00,2.300000000000000000e+01
5.957700000000000000e+04,9.000000000000000567e-05,-8.000000000000000654e-05,2.000000000000000164e-05,0.000000000000000000e+00,1.899999999999999834e-04,6.999999999999999387e-05,-1.100000000000000039e-04,3.799999999999999667e-04,6.000000000000000000e+00,2.300000000000000000e+01
5.957800000000000000e+04,9.000000000000000567e-05,-8.000000000000000654e-05,2.000000000000000164e-05,0.000000000000000000e+00,1.899999999999999834e-04,6.999999999999999387e-05,-1.100000000000000039e-04,3.799999999999999667e-04,6.000000000000000000e+00,2.300000000000000000e+01
5.957900000000000000e+04,9.000000000000000567e-05,-8.000000000000000654e-05,2.000000000000000164e-05,0.000000000000000000e+00,1.899999999999999834e-04,6.999999999999999387e-05,-1.100000000000000039e-04,3.799999999999999667e-04,6.000000000000000000e+00,2.300000000000000000e+01
5.958000000000000000e+04,9.000000000000000567e-05,-8.000000000000000654e-05,2.000000000000000164e-05,0.000000000000000000e+00,1.899999999999999834e-04,6.999999999999999387e-05,-1.100000000000000039e-04,3.799999999999999667e-04,6.000000000000000000e+00,2.300000000000000000e+01
5.958100000000000000e+04,9.000000000000000567e-05,-8.000000000000000654e-05,2.000000000000000164e-05,0.000000000000000000e+00,1.899999999999999834e-04,6.999999999999999387e-05,-1.100000000000000039e-04,3.799999999999999667e-04,6.000000000000000000e+00,2.300000000000000000e+01
5.958200000000000000e+04,9.000000000000000567e-05,-8.000000000000000654e-05,2.000000000000000164e-05,0.000000000000000000e+00,1.899999999999999834e-04,6.999999999999999387e-05,-1.100000000000000039e-04,3.799999999999999667e-04,6.000000000000000000e+00,2.300000000000000000e+01
5.958300000000000000e+04,9.000000000000000567e-05,-8.000000000000000654e-05,2.000000000000000164e-05,0.000000000000000000e+00,1.899999999999999834e-04,6.999999999999999387e-05,-1.100000000000000039e-04,3.799999999999999667e-04,6.000000000000000000e+00,2.300000000000000000e+01
5.958400000000000000e+04,8.000000000000000654e-05,-1.000000000000000082e-05,-2.999999999999999737e-05,1.000000000000000082e-05,3.899999999999999929e-04,2.900000000000000017e-04,5.999999999999999474e-05,-1.000000000000000082e-05,6.000000000000000000e+00,2.300000000000000000e+01
5.958500000000000000e+04,8.000000000000000654e-05,-1.000000000000000082e-05,-2.999999999999999737e-05,1.000000000000000082e-05,3.899999999999999929e-04,2.900000000000000017e-04,5.999999999999999474e-05,-1.000000000000000082e-05,6.000000000000000000e+00,2.300000000000000000e+01
5.958600000000000000e+04,8.000000000000000654e-05,-1.000000000000000082e-05,-2.999999999999999737e-05,1.000000000000000082e-05,3.899999999999999929e-04,2.900000000000000017e-04,5.999999999999999474e-05,-1.000000000000000082e-05,6.000000000000000000e+00,2.300000000000000000e+01
5.958900000000000000e+04,8.000000000000000654e-05,-1.000000000000000082e-05,-2.999999999999999737e-05,1.000000000000000082e-05,3.899999999999999929e-04,2.900000000000000017e-04,5.999999999999999474e-05,-1.000000000000000082e-05,6.000000000000000000e+00,2.300000000000000000e+01
5.959000000000000000e+04,8.000000000000000654e-05,-1.000000000000000082e-05,-2.999999999999999737e-05,1.000000000000000082e-05,3.899999999999999929e-04,2.900000000000000017e-04,5.999999999999999474e-05,-1.000000000000000082e-05,6.000000000000000000e+00,2.300000000000000000e+01
5.959100000000000000e+04,8.000000000000000654e-05,-1.000000000000000082e-05,-2.999999999999999737e-05,1.000000000000000082e-05,3.899999999999999929e-04,2.900000000000000017e-04,5.999999999999999474e-05,-1.000000000000000082e-05,6.000000000000000000e+00,2.300000000000000000e+01
5.959200000000000000e+04,8.000000000000000654e-05,-1.000000000000000082e-05,-2.999999999999999737e-05,1.000000000000000082e-05,3.899999999999999929e-04,2.900000000000000017e-04,5.999999999999999474e-05,-1.000000000000000082e-05,6.000000000000000000e+00,2.300000000000000000e+01
5.959300000000000000e+04,8.000000000000000654e-05,-1.000000000000000082e-05,-2.999999999999999737e-05,1.000000000000000082e-05,3.899999999999999929e-04,2.900000000000000017e-04,5.999999999999999474e-05,-1.000000000000000082e-05,6.000000000000000000e+00,2.300000000000000000e+01
5.959400000000000000e+04,8.000000000000000654e-05,-1.000000000000000082e-05,-2.999999999999999737e-05,1.000000000000000082e-05,3.899999999999999929e-04,2.900000000000000017e-04,5.999999999999999474e-05,-1.000000000000000082e-05,6.000000000000000000e+00,2.300000000000000000e+01
5.959500000000000000e+04,8.000000000000000654e-05,-1.000000000000000082e-05,-2.999999999999999737e-05,1.000000000000000082e-05,3.899999999999999929e-04,2.900000000000000017e-04,5.999999999999999474e-05,-1.000000000000000082e-05,6.000000000000000000e+00,2.300000000000000000e+01
5.959600000000000000e+04,8.000000000000000654e-05,-1.000000000000000082e-05,-2.999999999999999737e-05,1.000000000000000082e-05,3.899999999999999929e-04,2.900000000000000017e-04,5.999999999999999474e-05,-1.000000000000000082e-05,6.000000000000000000e+00,2.300000000000000000e+01
5.959700000000000000e+04,8.000000000000000654e-05,-1.000000000000000082e-05,-2.999999999999999737e-05,1.000000000000000082e-05,3.899999999999999929e-04,2.900000000000000017e-04,5.999999999999999474e-05,-1.000000000000000082e-05,6.000000000000000000e+00,2.300000000000000000e+01
5.959800000000000000e+04,8.000000000000000654e-05,-1.000000000000000082e-05,-2.999999999999999737e-05,1.000000000000000082e-05,3.899999999999999929e-04,2.900000000000000017e-04,5.999999999999999474e-05,-1.000000000000000082e-05,6.000000000000000000e+00,2.300000000000000000e+01
5.959900000000000000e+04,8.000000000000000654e-05,-1.000000000000000082e-05,-2.999999999999999737e-05,1.000000000000000082e-05,3.899999999999999929e-04,2.900000000000000017e-04,5.999999999999999474e-05,-1.000000000000000082e-05,6.000000000000000000e+00,2.300000000000000000e+01
5.960000000000000000e+04,1.000000000000000082e-05,9.000000000000000567e-05,5.000000000000000240e-05,1.499999999999999869e-04,8.400000000000000348e-04,4.400000000000000157e-04,5.000000000000000240e-05,-1.499999999999999869e-04,6.000000000000000000e+00,2.300000000000000000e+01
5.960100000000000000e+04,1.000000000000000082e-05,9.000000000000000567e-05,5.000000000000000240e-05,1.499999999999999869e-04,8.400000000000000348e-04,4.400000000000000157e-04,5.000000000000000240e-05,-1.499999999999999869e-04,6.000000000000000000e+00,2.300000000000000000e+01
5.960200000000000000e+04,6.999999999999999387e-05,1.600000000000000131e-04,2.000000000000000164e-05,2.000000000000000164e-05,4.000000000000000327e-05,-1.000000000000000048e-04,-1.399999999999999877e-04,-6.900000000000000751e-04,6.000000000000000000e+00,2.300000000000000000e+01
5.960300000000000000e+04,6.999999999999999387e-05,1.600000000000000131e-04,2.000000000000000164e-05,2.000000000000000164e-05,4.000000000000000327e-05,-1.000000000000000048e-04,-1.399999999999999877e-04,-6.900000000000000751e-04,6.000000000000000000e+00,2.300000000000000000e+01
5.960400000000000000e+04,6.999999999999999387e-05,1.600000000000000131e-04,2.000000000000000164e-05,2.000000000000000164e-05,4.000000000000000327e-05,-1.000000000000000048e-04,-1.399999999999999877e-04,-6.900000000000000751e-04,6.000000000000000000e+00,2.300000000000000000e+01
5.960500000000000000e+04,6.999999999999999387e-05,1.600000000000000131e-04,2.000000000000000164e-05,2.000000000000000164e-05,4.000000000000000327e-05,-1.000000000000000048e-04,-1.399999999999999877e-04,-6.900000000000000751e-04,6.000000000000000000e+00,2.300000000000000000e+01
5.960600000000000000e+04,6.999999999999999387e-05,1.600000000000000131e-04,2.000000000000000164e-05,2.000000000000000164e-05,4.000000000000000327e-05,-1.000000000000000048e-04,-1.399999999999999877e-04,-6.900000000000000751e-04,6.000000000000000000e+00,2.300000000000000000e+01
5.960700000000000000e+04,6.999999999999999387e-05,1.600000000000000131e-04,2.000000000000000164e-05,2.000000000000000164e-05,4.000000000000000327e-05,-1.000000000000000048e-04,-1.399999999999999877e-04,-6.900000000000000751e-04,6.000000000000000000e+00,2.300000000000000000e+01
5.960800000000000000e+04,6.999999999999999387e-05,1.600000000000000131e-04,2.000000000000000164e-05,2.000000000000000164e-05,4.000000000000000327e-05,-1.000000000000000048e-04,-1.399999999999999877e-04,-6.900000000000000751e-04,6.000000000000000000e+00,2.300000000000000000e+01
5.960900000000000000e+04,6.999999999999999387e-05,1.600000000000000131e-04,2.000000000000000164e-05,2.000000000000000164e-05,4.000000000000000327e-05,-1.000000000000000048e-04,-1.399999999999999877e-04,-6.900000000000000751e-04,6.000000000000000000e+00,2.300000000000000000e+01
5.961000000000000000e+04,6.999999999999999387e-05,1.600000000000000131e-04,2.000000000000000164e-05,2.000000000000000164e-05,4.000000000000000327e-05,-1.000000000000000048e-04,-1.399999999999999877e-04,-6.900000000000000751e-04,6.000000000000000000e+00,2.300000000000000000e+01
5.961100000000000000e+04,6.999999999999999387e-05,1.600000000000000131e-04,2.000000000000000164e-05,2.000000000000000164e-05,4.000000000000000327e-05,-1.000000000000000048e-04,-1.399999999999999877e-04,-6.900000000000000751e-04,6.000000000000000000e+00,2.300000000000000000e+01
5.961200000000000000e+04,6.999999999999999387e-05,1.600000000000000131e-04,2.000000000000000164e-05,2.000000000000000164e-05,4.000000000000000327e-05,-1.000000000000000048e-04,-1.399999999999999877e-04,-6.900000000000000751e-04,6.000000000000000000e+00,2.300000000000000000e+01
5.961300000000000000e+04,6.999999999999999387e-05,1.600000000000000131e-04,2.000000000000000164e-05,2.000000000000000164e-05,4.000000000000000327e-05,-1.000000000000000048e-04,-1.399999999999999877e-04,-6.900000000000000751e-04,6.000000000000000000e+00,2.300000000000000000e+01
5.961400000000000000e+04,6.999999999999999387e-05,1.600000000000000131e-04,2.000000000000000164e-05,2.000000000000000164e-05,4.000000000000000327e-05,-1.000000000000000048e-04,-1.399999999999999877e-04,-6.900000000000000751e-04,6.000000000000000000e+00,2.300000000000000000e+01
5.961500000000000000e+04,6.999999999999999387e-05,1.600000000000000131e-04,2.000000000000000164e-05,2.000000000000000164e-05,4.000000000000000327e-05,-1.000000000000000048e-04,-1.399999999999999877e-04,-6.900000000000000751e-04,6.000000000000000000e+00,2.300000000000000000e+01
5.961600000000000000e+04,6.999999999999999387e-05,1.600000000000000131e-04,2.000000000000000164e-05,2.000000000000000164e-05,4.000000000000000327e-05,-1.000000000000000048e-04,-1.399999999999999877e-04,-6.900000000000000751e-04,6.000000000000000000e+00,2.300000000000000000e+01
5.961700000000000000e+04,6.999999999999999387e-05,1.600000000000000131e-04,2.000000000000000164e-05,2.000000000000000164e-05,4.000000000000000327e-05,-1.000000000000000048e-04,-1.399999999999999877e-04,-6.900000000000000751e-04,6.000000000000000000e+00,2.300000000000000000e+01
5.961800000000000000e+04,6.999999999999999387e-05,1.600000000000000131e-04,2.000000000000000164e-05,2.000000000000000164e-05,4.000000000000000327e-05,-1.000000000000000048e-04,-1.399999999999999877e-04,-6.900000000000000751e-04,6.000000000000000000e+00,2.300000000000000000e+01
5.961900000000000000e+04,6.999999999999999387e-05,1.600000000000000131e-04,2.000000000000000164e-05,2.000000000000000164e-05,4.000000000000000327e-05,-1.000000000000000048e-04,-1.399999999999999877e-04,-6.900000000000000751e-04,6.000000000000000000e+00,2.300000000000000000e+01
5.962000000000000000e+04,6.999999999999999387e-05,1.600000000000000131e-04,2.000000000000000164e-05,2.000000000000000164e-05,4.000000000000000327e-05,-1.000000000000000048e-04,-1.399999999999999877e-04,-6.900000000000000751e-04,6.000000000000000000e+00,2.300000000000000000e+01
5.962100000000000000e+04,6.999999999999999387e-05,1.600000000000000131e-04,2.000000000000000164e-05,2.000000000000000164e-05,4.000000000000000327e-05,-1.000000000000000048e-04,-1.399999999999999877e-04,-6.900000000000000751e-04,6.000000000000000000e+00,2.300000000000000000e+01
5.962200000000000000e+04,6.999999999999999387e-05,1.600000000000000131e-04,2.000000000000000164e-05,2.000000000000000164e-05,4.000000000000000327e-05,-1.000000000000000048e-04,-1.399999999999999877e-04,-6.900000000000000751e-04,6.000000000000000000e+00,2.300000000000000000e+01
5.962300000000000000e+04,4.000000000000000327e-05,1.000000000000000082e-05,-2.999999999999999737e-05,-5.000000000000000240e-05,1.199999999999999895e-04,4.000000000000000192e-04,-7.099999999999999107e-04,1.800000000000000113e-04,6.000000000000000000e+00,2.300000000000000000e+01
5.962400000000000000e+04,-1.000000000000000082e-05,-1.000000000000000082e-05,-1.000000000000000082e-05,1.000000000000000082e-05,5.000000000000000240e-05,5.999999999999999474e-05,2.999999999999999737e-05,2.999999999999999737e-05,6.000000000000000000e+00,2.300000000000000000e+01
5.962500000000000000e+04,-1.000000000000000082e-05,-1.000000000000000082e-05,-1.000000000000000082e-05,1.000000000000000082e-05,5.000000000000000240e-05,5.999999999999999474e-05,2.999999999999999737e-05,2.999999999999999737e-05,6.000000000000000000e+00,2.300000000000000000e+01
5.962600000000000000e+04,-1.000000000000000082e-05,-1.000000000000000082e-05,-1.000000000000000082e-05,1.000000000000000082e-05,5.000000000000000240e-05,5.999999999999999474e-05,2.999999999999999737e-05,2.999999999999999737e-05,6.000000000000000000e+00,2.300000000000000000e+01
5.962700000000000000e+04,-1.000000000000000082e-05,-1.000000000000000082e-05,-1.000000000000000082e-05,1.000000000000000082e-05,5.000000000000000240e-05,5.999999999999999474e-05,2.999999999999999737e-05,2.999999999999999737e-05,6.000000000000000000e+00,2.300000000000000000e+01
5.962800000000000000e+04,-1.000000000000000082e-05,-1.000000000000000082e-05,-1.000000000000000082e-05,1.000000000000000082e-05,5.000000000000000240e-05,5.999999999999999474e-05,2.999999999999999737e-05,2.999999999999999737e-05,6.000000000000000000e+00,2.300000000000000000e+01
5.962900000000000000e+04,-1.000000000000000082e-05,-1.000000000000000082e-05,-1.000000000000000082e-05,1.000000000000000082e-05,5.000000000000000240e-05,5.999999999999999474e-05,2.999999999999999737e-05,2.999999999999999737e-05,6.000000000000000000e+00,2.300000000000000000e+01
5.963000000000000000e+04,-1.000000000000000082e-05,-1.000000000000000082e-05,-1.000000000000000082e-05,1.000000000000000082e-05,5.000000000000000240e-05,5.999999999999999474e-05,2.999999999999999737e-05,2.999999999999999737e-05,6.000000000000000000e+00,2.300000000000000000e+01
5.963100000000000000e+04,-1.000000000000000082e-05,-1.000000000000000082e-05,-1.000000000000000082e-05,1.000000000000000082e-05,5.000000000000000240e-05,5.999999999999999474e-05,2.999999999999999737e-05,2.999999999999999737e-05,6.000000000000000000e+00,2.300000000000000000e+01
5.963200000000000000e+04,-1.000000000000000082e-05,-1.000000000000000082e-05,-1.000000000000000082e-05,1.000000000000000082e-05,5.000000000000000240e-05,5.999999999999999474e-05,2.999999999999999737e-05,2.999999999999999737e-05,6.000000000000000000e+00,2.300000000000000000e+01
5.963300000000000000e+04,-1.000000000000000082e-05,-1.000000000000000082e-05,-1.000000000000000082e-05,1.000000000000000082e-05,5.000000000000000240e-05,5.999999999999999474e-05,2.999999999999999737e-05,2.999999999999999737e-05,6.000000000000000000e+00,2.300000000000000000e+01
5.963400000000000000e+04,-1.000000000000000082e-05,-1.000000000000000082e-05,-1.000000000000000082e-05,1.000000000000000082e-05,5.000000000000000240e-05,5.999999999999999474e-05,2.999999999999999737e-05,2.999999999999999737e-05,6.000000000000000000e+00,2.300000000000000000e+01
5.963500000000000000e+04,-1.000000000000000082e-05,-1.000000000000000082e-05,-1.000000000000000082e-05,1.000000000000000082e-05,5.000000000000000240e-05,5.999999999999999474e-05,2.999999999999999737e-05,2.999999999999999737e-05,6.000000000000000000e+00,2.300000000000000000e+01
5.963600000000000000e+04,-1.000000000000000082e-05,-1.000000000000000082e-05,-1.000000000000000082e-05,1.000000000000000082e-05,5.000000000000000240e-05,5.999999999999999474e-05,2.999999999999999737e-05,2.999999999999999737e-05,6.000000000000000000e+00,2.300000000000000000e+01
5.963900000000000000e+04,-2.299999999999999799e-04,-6.999999999999999387e-05,-4.000000000000000327e-05,-5.999999999999999474e-05,-4.000000000000000327e-05,2.700000000000000035e-04,1.899999999999999834e-04,-6.400000000000000524e-04,6.000000000000000000e+00,2.300000000000000000e+01
5.964000000000000000e+04,-2.299999999999999799e-04,-6.999999999999999387e-05,-4.000000000000000327e-05,-5.999999999999999474e-05,-4.000000000000000327e-05,2.700000000000000035e-04,1.899999999999999834e-04,-6.400000000000000524e-04,6.000000000000000000e+00,2.300000000000000000e+01
5.964100000000000000e+04,-2.299999999999999799e-04,-6.999999999999999387e-05,-4.000000000000000327e-05,-5.999999999999999474e-05,-4.000000000000000327e-05,2.700000000000000035e-04,1.899999999999999834e-04,-6.400000000000000524e-04,6.000000000000000000e+00,2.300000000000000000e+01
5.964200000000000000e+04,-2.299999999999999799e-04,-6.999999999999999387e-05,-4.000000000000000327e-05,-5.999999999999999474e-05,-4.000000000000000327e-05,2.700000000000000035e-04,1.899999999999999834e-04,-6.400000000000000524e-04,6.000000000000000000e+00,2.300000000000000000e+01
5.964300000000000000e+04,-2.299999999999999799e-04,-6.999999999999999387e-05,-4.000000000000000327e-05,-5.999999999999999474e-05,-4.000000000000000327e-05,2.700000000000000035e-04,1.899999999999999834e-04,-6.400000000000000524e-04,6.000000000000000000e+00,2.300000000000000000e+01
5.964400000000000000e+04,4.000000000000000327e-05,-5.999999999999999474e-05,2.000000000000000164e-05,4.000000000000000327e-05,-1.000000000000000082e-05,3.099999999999999999e-04,-9.000000000000000567e-05,2.200000000000000078e-04,6.000000000000000000e+00,2.300000000000000000e+01
5.964500000000000000e+04,4.000000000000000327e-05,-5.999999999999999474e-05,2.000000000000000164e-05,4.000000000000000327e-05,-1.000000000000000082e-05,3.099999999999999999e-04,-9.000000000000000567e-05,2.200000000000000078e-04,6.000000000000000000e+00,2.300000000000000000e+01
5.964600000000000000e+04,4.000000000000000327e-05,-5.999999999999999474e-05,2.000000000000000164e-05,4.000000000000000327e-05,-1.000000000000000082e-05,3.099999999999999999e-04,-9.000000000000000567e-05,2.200000000000000078e-04,6.000000000000000000e+00,2.300000000000000000e+01
5.964700000000000000e+04,4.000000000000000327e-05,-5.999999999999999474e-05,2.000000000000000164e-05,4.000000000000000327e-05,-1.000000000000000082e-05,3.099999999999999999e-04,-9.000000000000000567e-05,2.200000000000000078e-04,6.000000000000000000e+00,2.300000000000000000e+01
5.964800000000000000e+04,4.000000000000000327e-05,-5.999999999999999474e-05,2.000000000000000164e-05,4.000000000000000327e-05,-1.000000000000000082e-05,3.099999999999999999e-04,-9.000000000000000567e-05,2.200000000000000078e-04,6.000000000000000000e+00,2.300000000000000000e+01
5.964900000000000000e+04,4.000000000000000327e-05,-5.999999999999999474e-05,2.000000000000000164e-05,4.000000000000000327e-05,-1.000000000000000082e-05,3.099999999999999999e-04,-9.000000000000000567e-05,2.200000000000000078e-04,6.000000000000000000e+00,2.300000000000000000e+01
5.965000000000000000e+04,4.000000000000000327e-05,-5.999999999999999474e-05,2.000000000000000164e-05,4.000000000000000327e-05,-1.000000000000000082e-05,3.099999999999999999e-04,-9.000000000000000567e-05,2.200000000000000078e-04,6.000000000000000000e+00,2.300000000000000000e+01
5.965100000000000000e+04,4.000000000000000327e-05,-5.999999999999999474e-05,2.000000000000000164e-05,4.000000000000000327e-05,-1.000000000000000082e-05,3.099999999999999999e-04,-9.000000000000000567e-05,2.200000000000000078e-04,6.000000000000000000e+00,2.300000000000000000e+01
5.965200000000000000e+04,4.000000000000000327e-05,-5.999999999999999474e-05,2.000000000000000164e-05,4.000000000000000327e-05,-1.000000000000000082e-05,3.099999999999999999e-04,-9.000000000000000567e-05,2.200000000000000078e-04,6.000000000000000000e+00,2.300000000000000000e+01
5.965300000000000000e+04,4.000000000000000327e-05,-5.999999999999999474e-05,2.000000000000000164e-05,4.000000000000000327e-05,-1.000000000000000082e-05,3.099999999999999999e-04,-9.000000000000000567e-05,2.200000000000000078e-04,6.000000000000000000e+00,2.300000000000000000e+01
5.965400000000000000e+04,4.000000000000000327e-05,-5.999999999999999474e-05,2.000000000000000164e-05,4.000000000000000327e-05,-1.000000000000000082e-05,3.099999999999999999e-04,-9.000000000000000567e-05,2.200000000000000078e-04,6.000000000000000000e+00,2.300000000000000000e+01
5.965500000000000000e+04,4.000000000000000327e-05,-5.999999999999999474e-05,2.000000000000000164e-05,4.000000000000000327e-05,-1.000000000000000082e-05,3.099999999999999999e-04,-9.000000000000000567e-05,2.200000000000000078e-04,6.000000000000000000e+00,2.300000000000000000e+01
5.965600000000000000e+04,4.000000000000000327e-05,-5.999999999999999474e-05,2.000000000000000164e-05,4.000000000000000327e-05,-1.000000000000000082e-05,3.099999999999999999e-04,-9.000000000000000567e-05,2.200000000000000078e-04,6.000000000000000000e+00,2.300000000000000000e+01
5.965700000000000000e+04,4.000000000000000327e-05,-5.999999999999999474e-05,2.000000000000000164e-05,4.000000000000000327e-05,-1.000000000000000082e-05,3.099999999999999999e-04,-9.000000000000000567e-05,2.200000000000000078e-04,6.000000000000000000e+00,2.300000000000000000e+01
5.965800000000000000e+04,4.000000000000000327e-05,-5.999999999999999474e-05,2.000000000000000164e-05,4.000000000000000327e-05,-1.000000000000000082e-05,3.099999999999999999e-04,-9.000000000000000567e-05,2.200000000000000078e-04,6.000000000000000000e+00,2.300000000000000000e+01
5.965900000000000000e+04,4.000000000000000327e-05,-5.999999999999999474e-05,2.000000000000000164e-05,4.000000000000000327e-05,-1.000000000000000082e-05,3.099999999999999999e-04,-9.000000000000000567e-05,2.200000000000000078e-04,6.000000000000000000e+00,2.300000000000000000e+01
5.966000000000000000e+04,9.000000000000000567e-05,2.000000000000000164e-05,-1.000000000000000082e-05,-1.100000000000000039e-04,-2.900000000000000017e-04,5.400000000000000069e-04,-4.799999999999999580e-04,-7.900000000000000121e-04,6.000000000000000000e+00,2.300000000000000000e+01
5.966100000000000000e+04,9.000000000000000567e-05,2.000000000000000164e-05,-1.000000000000000082e-05,-1.100000000000000039e-04,-2.900000000000000017e-04,5.400000000000000069e-04,-4.799999999999999580e-04,-7.900000000000000121e-04,6.000000000000000000e+00,2.300000000000000000e+01
5.966200000000000000e+04,2.999999999999999737e-05,2.000000000000000164e-05,1.300000000000000157e-04,4.200000000000000174e-04,9.799999999999999684e-04,-1.699999999999999851e-04,3.200000000000000262e-04,1.699999999999999851e-04,6.000000000000000000e+00,2.300000000000000000e+01
5.966300000000000000e+04,2.999999999999999737e-05,2.000000000000000164e-05,1.300000000000000157e-04,4.200000000000000174e-04,9.799999999999999684e-04,-1.699999999999999851e-04,3.200000000000000262e-04,1.699999999999999851e-04,6.000000000000000000e+00,2.300000000000000000e+01
5.966400000000000000e+04,2.999999999999999737e-05,2.000000000000000164e-05,1.300000000000000157e-04,4.200000000000000174e-04,9.799999999999999684e-04,-1.699999999999999851e-04,3.200000000000000262e-04,1.699999999999999851e-04,6.000000000000000000e+00,2.300000000000000000e+01
5.966500000000000000e+04,2.999999999999999737e-05,2.000000000000000164e-05,1.300000000000000157e-04,4.200000000000000174e-04,9.799999999999999684e-04,-1.699999999999999851e-04,3.200000000000000262e-04,1.699999999999999851e-04,6.000000000000000000e+00,2.300000000000000000e+01
5.966600000000000000e+04,2.999999999999999737e-05,2.000000000000000164e-05,1.300000000000000157e-04,4.200000000000000174e-04,9.799999999999999684e-04,-1.699999999999999851e-04,3.200000000000000262e-04,1.699999999999999851e-04,6.000000000000000000e+00,2.300000000000000000e+01
5.966700000000000000e+04,2.999999999999999737e-05,2.000000000000000164e-05,1.300000000000000157e-04,4.200000000000000174e-04,9.799999999999999684e-04,-1.699999999999999851e-04,3.200000000000000262e-04,1.699999999999999851e-04,6.000000000000000000e+00,2.300000000000000000e+01
5.966800000000000000e+04,2.999999999999999737e-05,2.000000000000000164e-05,1.300000000000000157e-04,4.200000000000000174e-04,9.799999999999999684e-04,-1.699999999999999851e-04,3.200000000000000262e-04,1.699999999999999851e-04,6.000000000000000000e+00,2.300000000000000000e+01
5.966900000000000000e+04,2.999999999999999737e-05,2.000000000000000164e-05,1.300000000000000157e-04,4.200000000000000174e-04,9.799999999999999684e-04,-1.699999999999999851e-04,3.200000000000000262e-04,1.699999999999999851e-04,6.000000000000000000e+00,2.300000000000000000e+01
5.967000000000000000e+04,2.999999999999999737e-05,2.000000000000000164e-05,1.300000000000000157e-04,4.200000000000000174e-04,9.799999999999999684e-04,-1.699999999999999851e-04,3.200000000000000262e-04,1.699999999999999851e-04,6.000000000000000000e+00,2.300000000000000000e+01
5.967100000000000000e+04,2.999999999999999737e-05,2.000000000000000164e-05,1.300000000000000157e-04,4.200000000000000174e-04,9.799999999999999684e-04,-1.699999999999999851e-04,3.200000000000000262e-04,1.699999999999999851e-04,6.000000000000000000e+00,2.300000000000000000e+01
5.967200000000000000e+04,2.999999999999999737e-05,2.000000000000000164e-05,1.300000000000000157e-04,4.200000000000000174e-04,9.799999999999999684e-04,-1.699999999999999851e-04,3.200000000000000262e-04,1.699999999999999851e-04,6.000000000000000000e+00,2.300000000000000000e+01
5.967300000000000000e+04,2.999999999999999737e-05,2.000000000000000164e-05,1.300000000000000157e-04,4.200000000000000174e-04,9.799999999999999684e-04,-1.699999999999999851e-04,3.200000000000000262e-04,1.699999999999999851e-04,6.000000000000000000e+00,2.300000000000000000e+01
5.967400000000000000e+04,2.999999999999999737e-05,2.000000000000000164e-05,1.300000000000000157e-04,4.200000000000000174e-04,9.799999999999999684e-04,-1.699999999999999851e-04,3.200000000000000262e-04,1.699999999999999851e-04,6.000000000000000000e+00,2.300000000000000000e+01
5.967500000000000000e+04,2.999999999999999737e-05,2.000000000000000164e-05,1.300000000000000157e-04,4.200000000000000174e-04,9.799999999999999684e-04,-1.699999999999999851e-04,3.200000000000000262e-04,1.699999999999999851e-04,6.000000000000000000e+00,2.300000000000000000e+01
5.967600000000000000e+04,2.999999999999999737e-05,2.000000000000000164e-05,1.300000000000000157e-04,4.200000000000000174e-04,9.799999999999999684e-04,-1.699999999999999851e-04,3.200000000000000262e-04,1.699999999999999851e-04,6.000000000000000000e+00,2.300000000000000000e+01
5.967700000000000000e+04,2.999999999999999737e-05,2.000000000000000164e-05,1.300000000000000157e-04,4.200000000000000174e-04,9.799999999999999684e-04,-1.699999999999999851e-04,3.200000000000000262e-04,1.699999999999999851e-04,6.000000000000000000e+00,2.300000000000000000e+01
5.967800000000000000e+04,2.999999999999999737e-05,2.000000000000000164e-05,1.300000000000000157e-04,4.200000000000000174e-04,9.799999999999999684e-04,-1.699999999999999851e-04,3.200000000000000262e-04,1.699999999999999851e-04,6.000000000000000000e+00,2.300000000000000000e+01
5.967900000000000000e+04,2.999999999999999737e-05,2.000000000000000164e-05,1.300000000000000157e-04,4.200000000000000174e-04,9.799999999999999684e-04,-1.699999999999999851e-04,3.200000000000000262e-04,1.699999999999999851e-04,6.000000000000000000e+00,2.300000000000000000e+01
5.968000000000000000e+04,2.999999999999999737e-05,2.000000000000000164e-05,1.300000000000000157e-04,4.200000000000000174e-04,9.799999999999999684e-04,-1.699999999999999851e-04,3.200000000000000262e-04,1.699999999999999851e-04,6.000000000000000000e+00,2.300000000000000000e+01
5.968100000000000000e+04,2.999999999999999737e-05,2.000000000000000164e-05,1.300000000000000157e-04,4.200000000000000174e-04,9.799999999999999684e-04,-1.699999999999999851e-04,3.200000000000000262e-04,1.699999999999999851e-04,6.000000000000000000e+00,2.300000000000000000e+01
5.968200000000000000e+04,2.999999999999999737e-05,2.000000000000000164e-05,1.300000000000000157e-04,4.200000000000000174e-04,9.799999999999999684e-04,-1.699999999999999851e-04,3.200000000000000262e-04,1.699999999999999851e-04,6.000000000000000000e+00,2.300000000000000000e+01
5.968300000000000000e+04,1.000000000000000048e-04,1.300000000000000157e-04,0.000000000000000000e+00,1.000000000000000082e-05,-1.699999999999999851e-04,-4.700000000000000401e-04,5.299999999999999807e-04,1.300000000000000157e-04,6.000000000000000000e+00,2.300000000000000000e+01
5.968400000000000000e+04,9.000000000000000567e-05,-4.000000000000000327e-05,-1.000000000000000082e-05,-1.899999999999999834e-04,-4.599999999999999597e-04,-5.000000000000000240e-05,-1.399999999999999877e-04,-2.000000000000000164e-05,6.000000000000000000e+00,2.300000000000000000e+01
5.968500000000000000e+04,9.000000000000000567e-05,-4.000000000000000327e-05,-1.000000000000000082e-05,-1.899999999999999834e-04,-4.599999999999999597e-04,-5.000000000000000240e-05,-1.399999999999999877e-04,-2.000000000000000164e-05,6.000000000000000000e+00,2.300000000000000000e+01
5.968600000000000000e+04,9.000000000000000567e-05,-4.000000000000000327e-05,-1.000000000000000082e-05,-1.899999999999999834e-04,-4.599999999999999597e-04,-5.000000000000000240e-05,-1.399999999999999877e-04,-2.000000000000000164e-05,6.000000000000000000e+00,2.300000000000000000e+01
5.968800000000000000e+04,9.000000000000000567e-05,-4.000000000000000327e-05,-1.000000000000000082e-05,-1.899999999999999834e-04,-4.599999999999999597e-04,-5.000000000000000240e-05,-1.399999999999999877e-04,-2.000000000000000164e-05,6.000000000000000000e+00,2.300000000000000000e+01
5.968900000000000000e+04,9.000000000000000567e-05,-4.000000000000000327e-05,-1.000000000000000082e-05,-1.899999999999999834e-04,-4.599999999999999597e-04,-5.000000000000000240e-05,-1.399999999999999877e-04,-2.000000000000000164e-05,6.000000000000000000e+00,2.300000000000000000e+01
5.969000000000000000e+04,9.000000000000000567e-05,-4.000000000000000327e-05,-1.000000000000000082e-05,-1.899999999999999834e-04,-4.599999999999999597e-04,-5.000000000000000240e-05,-1.399999999999999877e-04,-2.000000000000000164e-05,6.000000000000000000e+00,2.300000000000000000e+01
5.969100000000000000e+04,9.000000000000000567e-05,-4.000000000000000327e-05,-1.000000000000000082e-05,-1.899999999999999834e-04,-4.599999999999999597e-04,-5.000000000000000240e-05,-1.399999999999999877e-04,-2.000000000000000164e-05,6.000000000000000000e+00,2.300000000000000000e+01
5.969200000000000000e+04,9.000000000000000567e-05,-4.000000000000000327e-05,-1.000000000000000082e-05,-1.899999999999999834e-04,-4.599999999999999597e-04,-5.000000000000000240e-05,-1.399999999999999877e-04,-2.000000000000000164e-05,6.000000000000000000e+00,2.300000000000000000e+01
5.969300000000000000e+04,9.000000000000000567e-05,-4.000000000000000327e-05,-1.000000000000000082e-05,-1.899999999999999834e-04,-4.599999999999999597e-04,-5.000000000000000240e-05,-1.399999999999999877e-04,-2.000000000000000164e-05,6.000000000000000000e+00,2.300000000000000000e+01
5.969400000000000000e+04,9.000000000000000567e-05,-4.000000000000000327e-05,-1.000000000000000082e-05,-1.899999999999999834e-04,-4.599999999999999597e-04,-5.000000000000000240e-05,-1.399999999999999877e-04,-2.000000000000000164e-05,6.000000000000000000e+00,2.300000000000000000e+01
5.969500000000000000e+04,9.000000000000000567e-05,-4.000000000000000327e-05,-1.000000000000000082e-05,-1.899999999999999834e-04,-4.599999999999999597e-04,-5.000000000000000240e-05,-1.399999999999999877e-04,-2.000000000000000164e-05,6.000000000000000000e+00,2.300000000000000000e+01
5.969600000000000000e+04,9.000000000000000567e-05,-4.000000000000000327e-05,-1.000000000000000082e-05,-1.899999999999999834e-04,-4.599999999999999597e-04,-5.000000000000000240e-05,-1.399999999999999877e-04,-2.000000000000000164e-05,6.000000000000000000e+00,2.300000000000000000e+01
5.969700000000000000e+04,-2.000000000000000164e-05,-1.000000000000000082e-05,-1.000000000000000082e-05,0.000000000000000000e+00,-1.000000000000000082e-05,5.000000000000000240e-05,5.000000000000000240e-05,2.700000000000000035e-04,6.000000000000000000e+00,2.300000000000000000e+01
5.969800000000000000e+04,-2.000000000000000164e-05,-1.000000000000000082e-05,-1.000000000000000082e-05,0.000000000000000000e+00,-1.000000000000000082e-05,5.000000000000000240e-05,5.000000000000000240e-05,2.700000000000000035e-04,6.000000000000000000e+00,2.300000000000000000e+01
5.969900000000000000e+04,-2.000000000000000164e-05,-1.000000000000000082e-05,-1.000000000000000082e-05,0.000000000000000000e+00,-1.000000000000000082e-05,5.000000000000000240e-05,5.000000000000000240e-05,2.700000000000000035e-04,6.000000000000000000e+00,2.300000000000000000e+01
5.970000000000000000e+04,-2.000000000000000164e-05,-1.000000000000000082e-05,-1.000000000000000082e-05,0.000000000000000000e+00,-1.000000000000000082e-05,5.000000000000000240e-05,5.000000000000000240e-05,2.700000000000000035e-04,6.000000000000000000e+00,2.300000000000000000e+01
5.970100000000000000e+04,-2.000000000000000164e-05,-1.000000000000000082e-05,-1.000000000000000082e-05,0.000000000000000000e+00,-1.000000000000000082e-05,5.000000000000000240e-05,5.000000000000000240e-05,2.700000000000000035e-04,6.000000000000000000e+00,2.300000000000000000e+01
5.970200000000000000e+04,-2.000000000000000164e-05,-1.000000000000000082e-05,-1.000000000000000082e-05,0.000000000000000000e+00,-1.000000000000000082e-05,5.000000000000000240e-05,5.000000000000000240e-05,2.700000000000000035e-04,6.000000000000000000e+00,2.300000000000000000e+01
5.970300000000000000e+04,-2.000000000000000164e-05,-1.000000000000000082e-05,-1.000000000000000082e-05,0.000000000000000000e+00,-1.000000000000000082e-05,5.000000000000000240e-05,5.000000000000000240e-05,2.700000000000000035e-04,6.000000000000000000e+00,2.300000000000000000e+01
5.970400000000000000e+04,-2.799999999999999755e-04,-1.100000000000000039e-04,-5.999999999999999474e-05,-5.999999999999999474e-05,-1.499999999999999869e-04,-4.899999999999999842e-04,2.299999999999999799e-04,-6.799999999999999404e-04,6.000000000000000000e+00,2.300000000000000000e+01
5.970500000000000000e+04,-2.799999999999999755e-04,-1.100000000000000039e-04,-5.999999999999999474e-05,-5.999999999999999474e-05,-1.499999999999999869e-04,-4.899999999999999842e-04,2.299999999999999799e-04,-6.799999999999999404e-04,6.000000000000000000e+00,2.300000000000000000e+01
5.970600000000000000e+04,-2.799999999999999755e-04,-1.100000000000000039e-04,-5.999999999999999474e-05,-5.999999999999999474e-05,-1.499999999999999869e-04,-4.899999999999999842e-04,2.299999999999999799e-04,-6.799999999999999404e-04,6.000000000000000000e+00,2.300000000000000000e+01
5.970700000000000000e+04,-2.799999999999999755e-04,-1.100000000000000039e-04,-5.999999999999999474e-05,-5.999999999999999474e-05,-1.499999999999999869e-04,-4.899999999999999842e-04,2.299999999999999799e-04,-6.799999999999999404e-04,6.000000000000000000e+00,2.300000000000000000e+01
5.970800000000000000e+04,-2.799999999999999755e-04,-1.100000000000000039e-04,-5.999999999999999474e-05,-5.999999999999999474e-05,-1.499999999999999869e-04,-4.899999999999999842e-04,2.299999999999999799e-04,-6.799999999999999404e-04,6.000000000000000000e+00,2.300000000000000000e+01
5.970900000000000000e+04,-2.799999999999999755e-04,-1.100000000000000039e-04,-5.999999999999999474e-05,-5.999999999999999474e-05,-1.499999999999999869e-04,-4.899999999999999842e-04,2.299999999999999799e-04,-6.799999999999999404e-04,6.000000000000000000e+00,2.300000000000000000e+01
5.971000000000000000e+04,-2.799999999999999755e-04,-1.100000000000000039e-04,-5.999999999999999474e-05,-5.999999999999999474e-05,-1.499999999999999869e-04,-4.899999999999999842e-04,2.299999999999999799e-04,-6.799999999999999404e-04,6.000000000000000000e+00,2.300000000000000000e+01
5.971100000000000000e+04,-2.799999999999999755e-04,-1.100000000000000039e-04,-5.999999999999999474e-05,-5.999999999999999474e-05,-1.499999999999999869e-04,-4.899999999999999842e-04,2.299999999999999799e-04,-6.799999999999999404e-04,6.000000000000000000e+00,2.300000000000000000e+01
5.971200000000000000e+04,-2.799999999999999755e-04,-1.100000000000000039e-04,-5.999999999999999474e-05,-5.999999999999999474e-05,-1.499999999999999869e-04,-4.899999999999999842e-04,2.299999999999999799e-04,-6.799999999999999404e-04,6.000000000000000000e+00,2.300000000000000000e+01
5.971300000000000000e+04,-2.799999999999999755e-04,-1.100000000000000039e-04,-5.999999999999999474e-05,-5.999999999999999474e-05,-1.499999999999999869e-04,-4.899999999999999842e-04,2.299999999999999799e-04,-6.799999999999999404e-04,6.000000000000000000e+00,2.300000000000000000e+01
5.971400000000000000e+04,-2.799999999999999755e-04,-1.100000000000000039e-04,-5.999999999999999474e-05,-5.999999999999999474e-05,-1.499999999999999869e-04,-4.899999999999999842e-04,2.299999999999999799e-04,-6.799999999999999404e-04,6.000000000000000000e+00,2.300000000000000000e+01
5.971500000000000000e+04,-2.799999999999999755e-04,-1.100000000000000039e-04,-5.999999999999999474e-05,-5.999999999999999474e-05,-1.499999999999999869e-04,-4.899999999999999842e-04,2.299999999999999799e-04,-6.799999999999999404e-04,6.000000000000000000e+00,2.300000000000000000e+01
5.971600000000000000e+04,-2.799999999999999755e-04,-1.100000000000000039e-04,-5.999999999999999474e-05,-5.999999999999999474e-05,-1.499999999999999869e-04,-4.899999999999999842e-04,2.299999999999999799e-04,-6.799999999999999404e-04,6.000000000000000000e+00,2.300000000000000000e+01
5.971700000000000000e+04,-2.799999999999999755e-04,-1.100000000000000039e-04,-5.999999999999999474e-05,-5.999999999999999474e-05,-1.499999999999999869e-04,-4.899999999999999842e-04,2.299999999999999799e-04,-6.799999999999999404e-04,6.000000000000000000e+00,2.300000000000000000e+01
5.971800000000000000e+04,-2.799999999999999755e-04,-1.100000000000000039e-04,-5.999999999999999474e-05,-5.999999999999999474e-05,-1.499999999999999869e-04,-4.899999999999999842e-04,2.299999999999999799e-04,-6.799999999999999404e-04,6.000000000000000000e+00,2.300000000000000000e+01
5.971900000000000000e+04,-2.799999999999999755e-04,-1.100000000000000039e-04,-5.999999999999999474e-05,-5.999999999999999474e-05,-1.499999999999999869e-04,-4.899999999999999842e-04,2.299999999999999799e-04,-6.799999999999999404e-04,6.000000000000000000e+00,2.300000000000000000e+01
5.972000000000000000e+04,-2.799999999999999755e-04,-1.100000000000000039e-04,-5.999999999999999474e-05,-5.999999999999999474e-05,-1.499999999999999869e-04,-4.899999999999999842e-04,2.299999999999999799e-04,-6.799999999999999404e-04,6.000000000000000000e+00,2.300000000000000000e+01
5.972100000000000000e+04,4.000000000000000327e-05,-8.000000000000000654e-05,-5.000000000000000240e-05,-9.000000000000000567e-05,-4.200000000000000174e-04,-6.300000000000000261e-04,1.300000000000000157e-04,3.200000000000000262e-04,6.000000000000000000e+00,2.300000000000000000e+01
5.972200000000000000e+04,-5.000000000000000240e-05,-4.000000000000000327e-05,-2.999999999999999737e-05,-5.999999999999999474e-05,-2.000000000000000164e-05,2.500000000000000052e-04,5.000000000000000240e-05,5.000000000000000240e-05,6.000000000000000000e+00,2.300000000000000000e+01
5.972300000000000000e+04,-5.000000000000000240e-05,-4.000000000000000327e-05,-2.999999999999999737e-05,-5.999999999999999474e-05,-2.000000000000000164e-05,2.500000000000000052e-04,5.000000000000000240e-05,5.000000000000000240e-05,6.000000000000000000e+00,2.300000000000000000e+01
5.972400000000000000e+04,-5.000000000000000240e-05,-4.000000000000000327e-05,-2.999999999999999737e-05,-5.999999999999999474e-05,-2.000000000000000164e-05,2.500000000000000052e-04,5.000000000000000240e-05,5.000000000000000240e-05,6.000000000000000000e+00,2.300000000000000000e+01
5.972500000000000000e+04,-5.000000000000000240e-05,-4.000000000000000327e-05,-2.999999999999999737e-05,-5.999999999999999474e-05,-2.000000000000000164e-05,2.500000000000000052e-04,5.000000000000000240e-05,5.000000000000000240e-05,6.000000000000000000e+00,2.300000000000000000e+01
5.972600000000000000e+04,-5.000000000000000240e-05,-4.000000000000000327e-05,-2.999999999999999737e-05,-5.999999999999999474e-05,-2.000000000000000164e-05,2.500000000000000052e-04,5.000000000000000240e-05,5.000000000000000240e-05,6.000000000000000000e+00,2.300000000000000000e+01
5.972700000000000000e+04,-5.000000000000000240e-05,-4.000000000000000327e-05,-2.999999999999999737e-05,-5.999999999999999474e-05,-2.000000000000000164e-05,2.500000000000000052e-04,5.000000000000000240e-05,5.000000000000000240e-05,6.000000000000000000e+00,2.300000000000000000e+01
