1.181500000000000000e+04,-2.399999999999999790e-04,0.000000000000000000e+00,-4.000000000000000327e-05,-8.000000000000000654e-05,-5.000000000000000240e-05,1.600000000000000131e-04,3.799999999999999667e-04,-3.799999999999999667e-04,3.000000000000000000e+00,5.000000000000000000e+00
1.181600000000000000e+04,-2.399999999999999790e-04,0.000000000000000000e+00,-4.000000000000000327e-05,-8.000000000000000654e-05,-5.000000000000000240e-05,1.600000000000000131e-04,3.799999999999999667e-04,-3.799999999999999667e-04,3.000000000000000000e+00,5.000000000000000000e+00
1.181700000000000000e+04,-2.399999999999999790e-04,0.000000000000000000e+00,-4.000000000000000327e-05,-8.000000000000000654e-05,-5.000000000000000240e-05,1.600000000000000131e-04,3.799999999999999667e-04,-3.799999999999999667e-04,3.000000000000000000e+00,5.000000000000000000e+00
1.181800000000000000e+04,-2.399999999999999790e-04,0.000000000000000000e+00,-4.000000000000000327e-05,-8.000000000000000654e-05,-5.000000000000000240e-05,1.600000000000000131e-04,3.799999999999999667e-04,-3.799999999999999667e-04,3.000000000000000000e+00,5.000000000000000000e+00
1.181900000000000000e+04,-3.600000000000000227e-04,-5.000000000000000240e-05,-1.000000000000000082e-05,-3.399999999999999702e-04,-1.080000000000000014e-03,-5.900000000000000296e-04,-4.000000000000000192e-04,-3.200000000000000262e-04,3.000000000000000000e+00,5.000000000000000000e+00
1.182000000000000000e+04,-1.699999999999999851e-04,-2.000000000000000164e-05,5.000000000000000240e-05,2.299999999999999799e-04,4.099999999999999912e-04,-5.000000000000000240e-05,-2.000000000000000164e-05,1.800000000000000113e-04,3.000000000000000000e+00,5.000000000000000000e+00
1.182100000000000000e+04,-1.699999999999999851e-04,-2.000000000000000164e-05,5.000000000000000240e-05,2.299999999999999799e-04,4.099999999999999912e-04,-5.000000000000000240e-05,-2.000000000000000164e-05,1.800000000000000113e-04,3.000000000000000000e+00,5.000000000000000000e+00
1.182200000000000000e+04,-1.699999999999999851e-04,-2.000000000000000164e-05,5.000000000000000240e-05,2.299999999999999799e-04,4.099999999999999912e-04,-5.000000000000000240e-05,-2.000000000000000164e-05,1.800000000000000113e-04,3.000000000000000000e+00,5.000000000000000000e+00
1.182300000000000000e+04,-1.699999999999999851e-04,-2.000000000000000164e-05,5.000000000000000240e-05,2.299999999999999799e-04,4.099999999999999912e-04,-5.000000000000000240e-05,-2.000000000000000164e-05,1.800000000000000113e-04,3.000000000000000000e+00,5.000000000000000000e+00
1.182400000000000000e+04,-1.699999999999999851e-04,-2.000000000000000164e-05,5.000000000000000240e-05,2.299999999999999799e-04,4.099999999999999912e-04,-5.000000000000000240e-05,-2.000000000000000164e-05,1.800000000000000113e-04,3.000000000000000000e+00,5.000000000000000000e+00
1.182500000000000000e+04,-1.699999999999999851e-04,-2.000000000000000164e-05,5.000000000000000240e-05,2.299999999999999799e-04,4.099999999999999912e-04,-5.000000000000000240e-05,-2.000000000000000164e-05,1.800000000000000113e-04,3.000000000000000000e+00,5.000000000000000000e+00
1.182600000000000000e+04,-1.699999999999999851e-04,-2.000000000000000164e-05,5.000000000000000240e-05,2.299999999999999799e-04,4.099999999999999912e-04,-5.000000000000000240e-05,-2.000000000000000164e-05,1.800000000000000113e-04,3.000000000000000000e+00,5.000000000000000000e+00
1.182700000000000000e+04,-1.699999999999999851e-04,-2.000000000000000164e-05,5.000000000000000240e-05,2.299999999999999799e-04,4.099999999999999912e-04,-5.000000000000000240e-05,-2.000000000000000164e-05,1.800000000000000113e-04,3.000000000000000000e+00,5.000000000000000000e+00
1.182800000000000000e+04,-1.699999999999999851e-04,-2.000000000000000164e-05,5.000000000000000240e-05,2.299999999999999799e-04,4.099999999999999912e-04,-5.000000000000000240e-05,-2.000000000000000164e-05,1.800000000000000113e-04,3.000000000000000000e+00,5.000000000000000000e+00
1.182900000000000000e+04,-1.699999999999999851e-04,-2.000000000000000164e-05,5.000000000000000240e-05,2.299999999999999799e-04,4.099999999999999912e-04,-5.000000000000000240e-05,-2.000000000000000164e-05,1.800000000000000113e-04,3.000000000000000000e+00,5.000000000000000000e+00
1.183000000000000000e+04,-1.699999999999999851e-04,-2.000000000000000164e-05,5.000000000000000240e-05,2.299999999999999799e-04,4.099999999999999912e-04,-5.000000000000000240e-05,-2.000000000000000164e-05,1.800000000000000113e-04,3.000000000000000000e+00,5.000000000000000000e+00
1.183100000000000000e+04,-1.699999999999999851e-04,-2.000000000000000164e-05,5.000000000000000240e-05,2.299999999999999799e-04,4.099999999999999912e-04,-5.000000000000000240e-05,-2.000000000000000164e-05,1.800000000000000113e-04,3.000000000000000000e+00,5.000000000000000000e+00
1.183200000000000000e+04,2.100000000000000087e-04,-5.000000000000000240e-05,-1.000000000000000048e-04,-1.300000000000000157e-04,-3.399999999999999702e-04,2.999999999999999737e-05,6.300000000000000261e-04,5.000000000000000104e-04,3.000000000000000000e+00,5.000000000000000000e+00
1.183300000000000000e+04,2.100000000000000087e-04,-5.000000000000000240e-05,-1.000000000000000048e-04,-1.300000000000000157e-04,-3.399999999999999702e-04,2.999999999999999737e-05,6.300000000000000261e-04,5.000000000000000104e-04,3.000000000000000000e+00,5.000000000000000000e+00
1.183400000000000000e+04,2.100000000000000087e-04,-5.000000000000000240e-05,-1.000000000000000048e-04,-1.300000000000000157e-04,-3.399999999999999702e-04,2.999999999999999737e-05,6.300000000000000261e-04,5.000000000000000104e-04,3.000000000000000000e+00,5.000000000000000000e+00
1.183500000000000000e+04,2.100000000000000087e-04,-5.000000000000000240e-05,-1.000000000000000048e-04,-1.300000000000000157e-04,-3.399999999999999702e-04,2.999999999999999737e-05,6.300000000000000261e-04,5.000000000000000104e-04,3.000000000000000000e+00,5.000000000000000000e+00
1.183600000000000000e+04,2.100000000000000087e-04,-5.000000000000000240e-05,-1.000000000000000048e-04,-1.300000000000000157e-04,-3.399999999999999702e-04,2.999999999999999737e-05,6.300000000000000261e-04,5.000000000000000104e-04,3.000000000000000000e+00,5.000000000000000000e+00
1.183800000000000000e+04,2.100000000000000087e-04,-5.000000000000000240e-05,-1.000000000000000048e-04,-1.300000000000000157e-04,-3.399999999999999702e-04,2.999999999999999737e-05,6.300000000000000261e-04,5.000000000000000104e-04,3.000000000000000000e+00,5.000000000000000000e+00
1.183900000000000000e+04,2.100000000000000087e-04,-5.000000000000000240e-05,-1.000000000000000048e-04,-1.300000000000000157e-04,-3.399999999999999702e-04,2.999999999999999737e-05,6.300000000000000261e-04,5.000000000000000104e-04,3.000000000000000000e+00,5.000000000000000000e+00
1.184000000000000000e+04,2.100000000000000087e-04,-5.000000000000000240e-05,-1.000000000000000048e-04,-1.300000000000000157e-04,-3.399999999999999702e-04,2.999999999999999737e-05,6.300000000000000261e-04,5.000000000000000104e-04,3.000000000000000000e+00,5.000000000000000000e+00
1.184100000000000000e+04,3.499999999999999964e-04,-8.000000000000000654e-05,-9.000000000000000567e-05,-2.000000000000000164e-05,-2.900000000000000017e-04,-2.799999999999999755e-04,-2.600000000000000314e-04,4.700000000000000401e-04,3.000000000000000000e+00,5.000000000000000000e+00
1.184200000000000000e+04,3.499999999999999964e-04,-8.000000000000000654e-05,-9.000000000000000567e-05,-2.000000000000000164e-05,-2.900000000000000017e-04,-2.799999999999999755e-04,-2.600000000000000314e-04,4.700000000000000401e-04,3.000000000000000000e+00,5.000000000000000000e+00
1.184300000000000000e+04,3.499999999999999964e-04,-8.000000000000000654e-05,-9.000000000000000567e-05,-2.000000000000000164e-05,-2.900000000000000017e-04,-2.799999999999999755e-04,-2.600000000000000314e-04,4.700000000000000401e-04,3.000000000000000000e+00,5.000000000000000000e+00
1.184400000000000000e+04,3.499999999999999964e-04,-8.000000000000000654e-05,-9.000000000000000567e-05,-2.000000000000000164e-05,-2.900000000000000017e-04,-2.799999999999999755e-04,-2.600000000000000314e-04,4.700000000000000401e-04,3.000000000000000000e+00,5.000000000000000000e+00
1.184500000000000000e+04,3.499999999999999964e-04,-8.000000000000000654e-05,-9.000000000000000567e-05,-2.000000000000000164e-05,-2.900000000000000017e-04,-2.799999999999999755e-04,-2.600000000000000314e-04,4.700000000000000401e-04,3.000000000000000000e+00,5.000000000000000000e+00
1.184600000000000000e+04,3.499999999999999964e-04,-8.000000000000000654e-05,-9.000000000000000567e-05,-2.000000000000000164e-05,-2.900000000000000017e-04,-2.799999999999999755e-04,-2.600000000000000314e-04,4.700000000000000401e-04,3.000000000000000000e+00,5.000000000000000000e+00
1.184700000000000000e+04,3.499999999999999964e-04,-8.000000000000000654e-05,-9.000000000000000567e-05,-2.000000000000000164e-05,-2.900000000000000017e-04,-2.799999999999999755e-04,-2.600000000000000314e-04,4.700000000000000401e-04,3.000000000000000000e+00,5.000000000000000000e+00
1.184800000000000000e+04,3.499999999999999964e-04,-8.000000000000000654e-05,-9.000000000000000567e-05,-2.000000000000000164e-05,-2.900000000000000017e-04,-2.799999999999999755e-04,-2.600000000000000314e-04,4.700000000000000401e-04,3.000000000000000000e+00,5.000000000000000000e+00
1.184900000000000000e+04,3.499999999999999964e-04,-8.000000000000000654e-05,-9.000000000000000567e-05,-2.000000000000000164e-05,-2.900000000000000017e-04,-2.799999999999999755e-04,-2.600000000000000314e-04,4.700000000000000401e-04,3.000000000000000000e+00,5.000000000000000000e+00
1.185000000000000000e+04,3.499999999999999964e-04,-8.000000000000000654e-05,-9.000000000000000567e-05,-2.000000000000000164e-05,-2.900000000000000017e-04,-2.799999999999999755e-04,-2.600000000000000314e-04,4.700000000000000401e-04,3.000000000000000000e+00,5.000000000000000000e+00
1.185100000000000000e+04,3.499999999999999964e-04,-8.000000000000000654e-05,-9.000000000000000567e-05,-2.000000000000000164e-05,-2.900000000000000017e-04,-2.799999999999999755e-04,-2.600000000000000314e-04,4.700000000000000401e-04,3.000000000000000000e+00,5.000000000000000000e+00
1.185200000000000000e+04,3.499999999999999964e-04,-8.000000000000000654e-05,-9.000000000000000567e-05,-2.000000000000000164e-05,-2.900000000000000017e-04,-2.799999999999999755e-04,-2.600000000000000314e-04,4.700000000000000401e-04,3.000000000000000000e+00,5.000000000000000000e+00
1.185400000000000000e+04,3.499999999999999964e-04,-8.000000000000000654e-05,-9.000000000000000567e-05,-2.000000000000000164e-05,-2.900000000000000017e-04,-2.799999999999999755e-04,-2.600000000000000314e-04,4.700000000000000401e-04,3.000000000000000000e+00,5.000000000000000000e+00
1.185500000000000000e+04,3.499999999999999964e-04,-8.000000000000000654e-05,-9.000000000000000567e-05,-2.000000000000000164e-05,-2.900000000000000017e-04,-2.799999999999999755e-04,-2.600000000000000314e-04,4.700000000000000401e-04,3.000000000000000000e+00,5.000000000000000000e+00
1.185600000000000000e+04,-4.400000000000000157e-04,-2.999999999999999737e-05,-1.000000000000000082e-05,-5.999999999999999474e-05,1.000000000000000082e-05,-4.000000000000000327e-05,8.000000000000000654e-05,-1.899999999999999834e-04,3.000000000000000000e+00,5.000000000000000000e+00
1.185700000000000000e+04,-4.400000000000000157e-04,-2.999999999999999737e-05,-1.000000000000000082e-05,-5.999999999999999474e-05,1.000000000000000082e-05,-4.000000000000000327e-05,8.000000000000000654e-05,-1.899999999999999834e-04,3.000000000000000000e+00,5.000000000000000000e+00
1.185800000000000000e+04,-8.000000000000000654e-05,-2.999999999999999737e-05,5.000000000000000240e-05,1.899999999999999834e-04,5.000000000000000240e-05,-1.000000000000000082e-05,5.000000000000000240e-05,-8.800000000000000313e-04,3.000000000000000000e+00,5.000000000000000000e+00
1.185900000000000000e+04,-8.000000000000000654e-05,-2.999999999999999737e-05,5.000000000000000240e-05,1.899999999999999834e-04,5.000000000000000240e-05,-1.000000000000000082e-05,5.000000000000000240e-05,-8.800000000000000313e-04,3.000000000000000000e+00,5.000000000000000000e+00
1.186000000000000000e+04,-8.000000000000000654e-05,-2.999999999999999737e-05,5.000000000000000240e-05,1.899999999999999834e-04,5.000000000000000240e-05,-1.000000000000000082e-05,5.000000000000000240e-05,-8.800000000000000313e-04,3.000000000000000000e+00,5.000000000000000000e+00
1.186100000000000000e+04,-8.000000000000000654e-05,-2.999999999999999737e-05,5.000000000000000240e-05,1.899999999999999834e-04,5.000000000000000240e-05,-1.000000000000000082e-05,5.000000000000000240e-05,-8.800000000000000313e-04,3.000000000000000000e+00,5.000000000000000000e+00
1.186200000000000000e+04,-8.000000000000000654e-05,-2.999999999999999737e-05,5.000000000000000240e-05,1.899999999999999834e-04,5.000000000000000240e-05,-1.000000000000000082e-05,5.000000000000000240e-05,-8.800000000000000313e-04,3.000000000000000000e+00,5.000000000000000000e+00
1.186300000000000000e+04,-8.000000000000000654e-05,-2.999999999999999737e-05,5.000000000000000240e-05,1.899999999999999834e-04,5.000000000000000240e-05,-1.000000000000000082e-05,5.000000000000000240e-05,-8.800000000000000313e-04,3.000000000000000000e+00,5.000000000000000000e+00
1.186400000000000000e+04,-8.000000000000000654e-05,-2.999999999999999737e-05,5.000000000000000240e-05,1.899999999999999834e-04,5.000000000000000240e-05,-1.000000000000000082e-05,5.000000000000000240e-05,-8.800000000000000313e-04,3.000000000000000000e+00,5.000000000000000000e+00
1.186500000000000000e+04,-8.000000000000000654e-05,-2.999999999999999737e-05,5.000000000000000240e-05,1.899999999999999834e-04,5.000000000000000240e-05,-1.000000000000000082e-05,5.000000000000000240e-05,-8.800000000000000313e-04,3.000000000000000000e+00,5.000000000000000000e+00
1.186600000000000000e+04,-8.000000000000000654e-05,-2.999999999999999737e-05,5.000000000000000240e-05,1.899999999999999834e-04,5.000000000000000240e-05,-1.000000000000000082e-05,5.000000000000000240e-05,-8.800000000000000313e-04,3.000000000000000000e+00,5.000000000000000000e+00
1.186700000000000000e+04,-8.000000000000000654e-05,-2.999999999999999737e-05,5.000000000000000240e-05,1.899999999999999834e-04,5.000000000000000240e-05,-1.000000000000000082e-05,5.000000000000000240e-05,-8.800000000000000313e-04,3.000000000000000000e+00,5.000000000000000000e+00
1.186800000000000000e+04,-8.000000000000000654e-05,-2.999999999999999737e-05,5.000000000000000240e-05,1.899999999999999834e-04,5.000000000000000240e-05,-1.000000000000000082e-05,5.000000000000000240e-05,-8.800000000000000313e-04,3.000000000000000000e+00,5.000000000000000000e+00
1.186900000000000000e+04,-8.000000000000000654e-05,-2.999999999999999737e-05,5.000000000000000240e-05,1.899999999999999834e-04,5.000000000000000240e-05,-1.000000000000000082e-05,5.000000000000000240e-05,-8.800000000000000313e-04,3.000000000000000000e+00,5.000000000000000000e+00
1.187000000000000000e+04,-8.000000000000000654e-05,-2.999999999999999737e-05,5.000000000000000240e-05,1.899999999999999834e-04,5.000000000000000240e-05,-1.000000000000000082e-05,5.000000000000000240e-05,-8.800000000000000313e-04,3.000000000000000000e+00,5.000000000000000000e+00
1.187100000000000000e+04,-8.000000000000000654e-05,-2.999999999999999737e-05,5.000000000000000240e-05,1.899999999999999834e-04,5.000000000000000240e-05,-1.000000000000000082e-05,5.000000000000000240e-05,-8.800000000000000313e-04,3.000000000000000000e+00,5.000000000000000000e+00
1.187200000000000000e+04,-8.000000000000000654e-05,-2.999999999999999737e-05,5.000000000000000240e-05,1.899999999999999834e-04,5.000000000000000240e-05,-1.000000000000000082e-05,5.000000000000000240e-05,-8.800000000000000313e-04,3.000000000000000000e+00,5.000000000000000000e+00
1.187300000000000000e+04,-8.000000000000000654e-05,-2.999999999999999737e-05,5.000000000000000240e-05,1.899999999999999834e-04,5.000000000000000240e-05,-1.000000000000000082e-05,5.000000000000000240e-05,-8.800000000000000313e-04,3.000000000000000000e+00,5.000000000000000000e+00
1.187400000000000000e+04,-8.000000000000000654e-05,-2.999999999999999737e-05,5.000000000000000240e-05,1.899999999999999834e-04,5.000000000000000240e-05,-1.000000000000000082e-05,5.000000000000000240e-05,-8.800000000000000313e-04,3.000000000000000000e+00,5.000000000000000000e+00
1.187500000000000000e+04,-8.000000000000000654e-05,-2.999999999999999737e-05,5.000000000000000240e-05,1.899999999999999834e-04,5.000000000000000240e-05,-1.000000000000000082e-05,5.000000000000000240e-05,-8.800000000000000313e-04,3.000000000000000000e+00,5.000000000000000000e+00
1.187600000000000000e+04,-8.000000000000000654e-05,-2.999999999999999737e-05,5.000000000000000240e-05,1.899999999999999834e-04,5.000000000000000240e-05,-1.000000000000000082e-05,5.000000000000000240e-05,-8.800000000000000313e-04,3.000000000000000000e+00,5.000000000000000000e+00
1.187700000000000000e+04,-8.000000000000000654e-05,-2.999999999999999737e-05,5.000000000000000240e-05,1.899999999999999834e-04,5.000000000000000240e-05,-1.000000000000000082e-05,5.000000000000000240e-05,-8.800000000000000313e-04,3.000000000000000000e+00,5.000000000000000000e+00
1.187800000000000000e+04,4.599999999999999597e-04,-2.999999999999999737e-05,-2.999999999999999737e-05,8.000000000000000654e-05,4.000000000000000192e-04,2.999999999999999737e-05,-4.400000000000000157e-04,8.000000000000000654e-05,3.000000000000000000e+00,5.000000000000000000e+00
1.187900000000000000e+04,4.599999999999999597e-04,-2.999999999999999737e-05,-2.999999999999999737e-05,8.000000000000000654e-05,4.000000000000000192e-04,2.999999999999999737e-05,-4.400000000000000157e-04,8.000000000000000654e-05,3.000000000000000000e+00,5.000000000000000000e+00
1.188000000000000000e+04,4.599999999999999597e-04,-2.999999999999999737e-05,-2.999999999999999737e-05,8.000000000000000654e-05,4.000000000000000192e-04,2.999999999999999737e-05,-4.400000000000000157e-04,8.000000000000000654e-05,3.000000000000000000e+00,5.000000000000000000e+00
1.188100000000000000e+04,4.599999999999999597e-04,-2.999999999999999737e-05,-2.999999999999999737e-05,8.000000000000000654e-05,4.000000000000000192e-04,2.999999999999999737e-05,-4.400000000000000157e-04,8.000000000000000654e-05,3.000000000000000000e+00,5.000000000000000000e+00
1.188200000000000000e+04,4.599999999999999597e-04,-2.999999999999999737e-05,-2.999999999999999737e-05,8.000000000000000654e-05,4.000000000000000192e-04,2.999999999999999737e-05,-4.400000000000000157e-04,8.000000000000000654e-05,3.000000000000000000e+00,5.000000000000000000e+00
1.188300000000000000e+04,4.599999999999999597e-04,-2.999999999999999737e-05,-2.999999999999999737e-05,8.000000000000000654e-05,4.000000000000000192e-04,2.999999999999999737e-05,-4.400000000000000157e-04,8.000000000000000654e-05,3.000000000000000000e+00,5.000000000000000000e+00
1.188400000000000000e+04,4.599999999999999597e-04,-2.999999999999999737e-05,-2.999999999999999737e-05,8.000000000000000654e-05,4.000000000000000192e-04,2.999999999999999737e-05,-4.400000000000000157e-04,8.000000000000000654e-05,3.000000000000000000e+00,5.000000000000000000e+00
1.188500000000000000e+04,4.599999999999999597e-04,-2.999999999999999737e-05,-2.999999999999999737e-05,8.000000000000000654e-05,4.000000000000000192e-04,2.999999999999999737e-05,-4.400000000000000157e-04,8.000000000000000654e-05,3.000000000000000000e+00,5.000000000000000000e+00
1.188600000000000000e+04,4.599999999999999597e-04,-2.999999999999999737e-05,-2.999999999999999737e-05,8.000000000000000654e-05,4.000000000000000192e-04,2.999999999999999737e-05,-4.400000000000000157e-04,8.000000000000000654e-05,3.000000000000000000e+00,5.000000000000000000e+00
1.188800000000000000e+04,4.599999999999999597e-04,-2.999999999999999737e-05,-2.999999999999999737e-05,8.000000000000000654e-05,4.000000000000000192e-04,2.999999999999999737e-05,-4.400000000000000157e-04,8.000000000000000654e-05,3.000000000000000000e+00,5.000000000000000000e+00
1.188900000000000000e+04,4.599999999999999597e-04,-2.999999999999999737e-05,-2.999999999999999737e-05,8.000000000000000654e-05,4.000000000000000192e-04,2.999999999999999737e-05,-4.400000000000000157e-04,8.000000000000000654e-05,3.000000000000000000e+00,5.000000000000000000e+00
1.189000000000000000e+04,4.599999999999999597e-04,-2.999999999999999737e-05,-2.999999999999999737e-05,8.000000000000000654e-05,4.000000000000000192e-04,2.999999999999999737e-05,-4.400000000000000157e-04,8.000000000000000654e-05,3.000000000000000000e+00,5.000000000000000000e+00
1.189100000000000000e+04,4.599999999999999597e-04,-2.999999999999999737e-05,-2.999999999999999737e-05,8.000000000000000654e-05,4.000000000000000192e-04,2.999999999999999737e-05,-4.400000000000000157e-04,8.000000000000000654e-05,3.000000000000000000e+00,5.000000000000000000e+00
1.189200000000000000e+04,4.599999999999999597e-04,-2.999999999999999737e-05,-2.999999999999999737e-05,8.000000000000000654e-05,4.000000000000000192e-04,2.999999999999999737e-05,-4.400000000000000157e-04,8.000000000000000654e-05,3.000000000000000000e+00,5.000000000000000000e+00
1.189300000000000000e+04,-5.999999999999999474e-05,2.000000000000000164e-05,-8.000000000000000654e-05,-2.500000000000000052e-04,-4.099999999999999912e-04,2.900000000000000017e-04,-6.999999999999999387e-05,-3.099999999999999999e-04,3.000000000000000000e+00,5.000000000000000000e+00
1.189400000000000000e+04,1.000000000000000048e-04,5.999999999999999474e-05,2.000000000000000164e-05,2.000000000000000164e-05,1.600000000000000131e-04,2.600000000000000314e-04,-9.000000000000000567e-05,-3.200000000000000262e-04,3.000000000000000000e+00,5.000000000000000000e+00
1.189500000000000000e+04,1.000000000000000048e-04,5.999999999999999474e-05,2.000000000000000164e-05,2.000000000000000164e-05,1.600000000000000131e-04,2.600000000000000314e-04,-9.000000000000000567e-05,-3.200000000000000262e-04,3.000000000000000000e+00,5.000000000000000000e+00
1.189600000000000000e+04,1.000000000000000048e-04,5.999999999999999474e-05,2.000000000000000164e-05,2.000000000000000164e-05,1.600000000000000131e-04,2.600000000000000314e-04,-9.000000000000000567e-05,-3.200000000000000262e-04,3.000000000000000000e+00,5.000000000000000000e+00
1.189700000000000000e+04,1.000000000000000048e-04,5.999999999999999474e-05,2.000000000000000164e-05,2.000000000000000164e-05,1.600000000000000131e-04,2.600000000000000314e-04,-9.000000000000000567e-05,-3.200000000000000262e-04,3.000000000000000000e+00,5.000000000000000000e+00
1.189800000000000000e+04,1.000000000000000048e-04,5.999999999999999474e-05,2.000000000000000164e-05,2.000000000000000164e-05,1.600000000000000131e-04,2.600000000000000314e-04,-9.000000000000000567e-05,-3.200000000000000262e-04,3.000000000000000000e+00,5.000000000000000000e+00
1.189900000000000000e+04,1.000000000000000048e-04,5.999999999999999474e-05,2.000000000000000164e-05,2.000000000000000164e-05,1.600000000000000131e-04,2.600000000000000314e-04,-9.000000000000000567e-05,-3.200000000000000262e-04,3.000000000000000000e+00,5.000000000000000000e+00
1.190000000000000000e+04,1.000000000000000048e-04,5.999999999999999474e-05,2.000000000000000164e-05,2.000000000000000164e-05,1.600000000000000131e-04,2.600000000000000314e-04,-9.000000000000000567e-05,-3.200000000000000262e-04,3.000000000000000000e+00,5.000000000000000000e+00
1.190100000000000000e+04,1.170000000000000033e-03,8.000000000000000654e-05,-5.999999999999999474e-05,-4.200000000000000174e-04,-6.700000000000000226e-04,1.699999999999999851e-04,-2.000000000000000096e-04,5.800000000000000034e-04,3.000000000000000000e+00,5.000000000000000000e+00
1.190200000000000000e+04,1.170000000000000033e-03,8.000000000000000654e-05,-5.999999999999999474e-05,-4.200000000000000174e-04,-6.700000000000000226e-04,1.699999999999999851e-04,-2.000000000000000096e-04,5.800000000000000034e-04,3.000000000000000000e+00,5.000000000000000000e+00
1.190400000000000000e+04,1.170000000000000033e-03,8.000000000000000654e-05,-5.999999999999999474e-05,-4.200000000000000174e-04,-6.700000000000000226e-04,1.699999999999999851e-04,-2.000000000000000096e-04,5.800000000000000034e-04,3.000000000000000000e+00,5.000000000000000000e+00
1.190500000000000000e+04,1.170000000000000033e-03,8.000000000000000654e-05,-5.999999999999999474e-05,-4.200000000000000174e-04,-6.700000000000000226e-04,1.699999999999999851e-04,-2.000000000000000096e-04,5.800000000000000034e-04,3.000000000000000000e+00,5.000000000000000000e+00
1.190600000000000000e+04,1.170000000000000033e-03,8.000000000000000654e-05,-5.999999999999999474e-05,-4.200000000000000174e-04,-6.700000000000000226e-04,1.699999999999999851e-04,-2.000000000000000096e-04,5.800000000000000034e-04,3.000000000000000000e+00,5.000000000000000000e+00
1.190700000000000000e+04,1.170000000000000033e-03,8.000000000000000654e-05,-5.999999999999999474e-05,-4.200000000000000174e-04,-6.700000000000000226e-04,1.699999999999999851e-04,-2.000000000000000096e-04,5.800000000000000034e-04,3.000000000000000000e+00,5.000000000000000000e+00
1.190800000000000000e+04,1.170000000000000033e-03,8.000000000000000654e-05,-5.999999999999999474e-05,-4.200000000000000174e-04,-6.700000000000000226e-04,1.699999999999999851e-04,-2.000000000000000096e-04,5.800000000000000034e-04,3.000000000000000000e+00,5.000000000000000000e+00
1.190900000000000000e+04,1.170000000000000033e-03,8.000000000000000654e-05,-5.999999999999999474e-05,-4.200000000000000174e-04,-6.700000000000000226e-04,1.699999999999999851e-04,-2.000000000000000096e-04,5.800000000000000034e-04,3.000000000000000000e+00,5.000000000000000000e+00
1.191000000000000000e+04,1.170000000000000033e-03,8.000000000000000654e-05,-5.999999999999999474e-05,-4.200000000000000174e-04,-6.700000000000000226e-04,1.699999999999999851e-04,-2.000000000000000096e-04,5.800000000000000034e-04,3.000000000000000000e+00,5.000000000000000000e+00
1.191100000000000000e+04,1.170000000000000033e-03,8.000000000000000654e-05,-5.999999999999999474e-05,-4.200000000000000174e-04,-6.700000000000000226e-04,1.699999999999999851e-04,-2.000000000000000096e-04,5.800000000000000034e-04,3.000000000000000000e+00,5.000000000000000000e+00
1.191200000000000000e+04,1.170000000000000033e-03,8.000000000000000654e-05,-5.999999999999999474e-05,-4.200000000000000174e-04,-6.700000000000000226e-04,1.699999999999999851e-04,-2.000000000000000096e-04,5.800000000000000034e-04,3.000000000000000000e+00,5.000000000000000000e+00
1.191300000000000000e+04,1.170000000000000033e-03,8.000000000000000654e-05,-5.999999999999999474e-05,-4.200000000000000174e-04,-6.700000000000000226e-04,1.699999999999999851e-04,-2.000000000000000096e-04,5.800000000000000034e-04,3.000000000000000000e+00,5.000000000000000000e+00
1.191400000000000000e+04,1.170000000000000033e-03,8.000000000000000654e-05,-5.999999999999999474e-05,-4.200000000000000174e-04,-6.700000000000000226e-04,1.699999999999999851e-04,-2.000000000000000096e-04,5.800000000000000034e-04,3.000000000000000000e+00,5.000000000000000000e+00
1.191500000000000000e+04,1.170000000000000033e-03,8.000000000000000654e-05,-5.999999999999999474e-05,-4.200000000000000174e-04,-6.700000000000000226e-04,1.699999999999999851e-04,-2.000000000000000096e-04,5.800000000000000034e-04,3.000000000000000000e+00,5.000000000000000000e+00
1.191600000000000000e+04,3.200000000000000262e-04,-5.000000000000000240e-05,-8.000000000000000654e-05,-2.600000000000000314e-04,-5.999999999999999474e-05,-2.799999999999999755e-04,-2.900000000000000017e-04,7.500000000000000156e-04,3.000000000000000000e+00,5.000000000000000000e+00
1.191700000000000000e+04,3.200000000000000262e-04,-5.000000000000000240e-05,-8.000000000000000654e-05,-2.600000000000000314e-04,-5.999999999999999474e-05,-2.799999999999999755e-04,-2.900000000000000017e-04,7.500000000000000156e-04,3.000000000000000000e+00,5.000000000000000000e+00
1.191800000000000000e+04,-3.399999999999999702e-04,-1.499999999999999869e-04,-4.000000000000000327e-05,1.899999999999999834e-04,4.000000000000000327e-05,-1.300000000000000157e-04,2.000000000000000096e-04,-1.080000000000000014e-03,3.000000000000000000e+00,5.000000000000000000e+00
1.191900000000000000e+04,-9.000000000000000567e-05,1.800000000000000113e-04,1.000000000000000048e-04,1.499999999999999869e-04,-1.199999999999999895e-04,2.999999999999999737e-04,-1.100000000000000039e-04,8.999999999999999754e-04,3.000000000000000000e+00,5.000000000000000000e+00
1.192000000000000000e+04,-9.000000000000000567e-05,1.800000000000000113e-04,1.000000000000000048e-04,1.499999999999999869e-04,-1.199999999999999895e-04,2.999999999999999737e-04,-1.100000000000000039e-04,8.999999999999999754e-04,3.000000000000000000e+00,5.000000000000000000e+00
1.192100000000000000e+04,-9.000000000000000567e-05,1.800000000000000113e-04,1.000000000000000048e-04,1.499999999999999869e-04,-1.199999999999999895e-04,2.999999999999999737e-04,-1.100000000000000039e-04,8.999999999999999754e-04,3.000000000000000000e+00,5.000000000000000000e+00
1.192200000000000000e+04,-9.000000000000000567e-05,1.800000000000000113e-04,1.000000000000000048e-04,1.499999999999999869e-04,-1.199999999999999895e-04,2.999999999999999737e-04,-1.100000000000000039e-04,8.999999999999999754e-04,3.000000000000000000e+00,5.000000000000000000e+00
1.192300000000000000e+04,-9.000000000000000567e-05,1.800000000000000113e-04,1.000000000000000048e-04,1.499999999999999869e-04,-1.199999999999999895e-04,2.999999999999999737e-04,-1.100000000000000039e-04,8.999999999999999754e-04,3.000000000000000000e+00,5.000000000000000000e+00
1.192400000000000000e+04,-9.000000000000000567e-05,1.800000000000000113e-04,1.000000000000000048e-04,1.499999999999999869e-04,-1.199999999999999895e-04,2.999999999999999737e-04,-1.100000000000000039e-04,8.999999999999999754e-04,3.000000000000000000e+00,5.000000000000000000e+00
1.192500000000000000e+04,-9.000000000000000567e-05,1.800000000000000113e-04,1.000000000000000048e-04,1.499999999999999869e-04,-1.199999999999999895e-04,2.999999999999999737e-04,-1.100000000000000039e-04,8.999999999999999754e-04,3.000000000000000000e+00,5.000000000000000000e+00
1.192600000000000000e+04,-9.000000000000000567e-05,1.800000000000000113e-04,1.000000000000000048e-04,1.499999999999999869e-04,-1.199999999999999895e-04,2.999999999999999737e-04,-1.100000000000000039e-04,8.999999999999999754e-04,3.000000000000000000e+00,5.000000000000000000e+00
1.192700000000000000e+04,-9.000000000000000567e-05,1.800000000000000113e-04,1.000000000000000048e-04,1.499999999999999869e-04,-1.199999999999999895e-04,2.999999999999999737e-04,-1.100000000000000039e-04,8.999999999999999754e-04,3.000000000000000000e+00,5.000000000000000000e+00
1.192800000000000000e+04,-9.000000000000000567e-05,1.800000000000000113e-04,1.000000000000000048e-04,1.499999999999999869e-04,-1.199999999999999895e-04,2.999999999999999737e-04,-1.100000000000000039e-04,8.999999999999999754e-04,3.000000000000000000e+00,5.000000000000000000e+00
1.192900000000000000e+04,-9.000000000000000567e-05,1.800000000000000113e-04,1.000000000000000048e-04,1.499999999999999869e-04,-1.199999999999999895e-04,2.999999999999999737e-04,-1.100000000000000039e-04,8.999999999999999754e-04,3.000000000000000000e+00,5.000000000000000000e+00
1.193000000000000000e+04,-9.000000000000000567e-05,1.800000000000000113e-04,1.000000000000000048e-04,1.499999999999999869e-04,-1.199999999999999895e-04,2.999999999999999737e-04,-1.100000000000000039e-04,8.999999999999999754e-04,3.000000000000000000e+00,5.000000000000000000e+00
1.193100000000000000e+04,-9.000000000000000567e-05,1.800000000000000113e-04,1.000000000000000048e-04,1.499999999999999869e-04,-1.199999999999999895e-04,2.999999999999999737e-04,-1.100000000000000039e-04,8.999999999999999754e-04,3.000000000000000000e+00,5.000000000000000000e+00
1.193200000000000000e+04,-9.000000000000000567e-05,1.800000000000000113e-04,1.000000000000000048e-04,1.499999999999999869e-04,-1.199999999999999895e-04,2.999999999999999737e-04,-1.100000000000000039e-04,8.999999999999999754e-04,3.000000000000000000e+00,5.000000000000000000e+00
1.193300000000000000e+04,-9.000000000000000567e-05,1.800000000000000113e-04,1.000000000000000048e-04,1.499999999999999869e-04,-1.199999999999999895e-04,2.999999999999999737e-04,-1.100000000000000039e-04,8.999999999999999754e-04,3.000000000000000000e+00,5.000000000000000000e+00
1.193400000000000000e+04,-9.000000000000000567e-05,1.800000000000000113e-04,1.000000000000000048e-04,1.499999999999999869e-04,-1.199999999999999895e-04,2.999999999999999737e-04,-1.100000000000000039e-04,8.999999999999999754e-04,3.000000000000000000e+00,5.000000000000000000e+00
1.193600000000000000e+04,-9.000000000000000567e-05,1.800000000000000113e-04,1.000000000000000048e-04,1.499999999999999869e-04,-1.199999999999999895e-04,2.999999999999999737e-04,-1.100000000000000039e-04,8.999999999999999754e-04,3.000000000000000000e+00,5.000000000000000000e+00
1.193700000000000000e+04,-9.000000000000000567e-05,1.800000000000000113e-04,1.000000000000000048e-04,1.499999999999999869e-04,-1.199999999999999895e-04,2.999999999999999737e-04,-1.100000000000000039e-04,8.999999999999999754e-04,3.000000000000000000e+00,5.000000000000000000e+00
1.193800000000000000e+04,-9.000000000000000567e-05,1.800000000000000113e-04,1.000000000000000048e-04,1.499999999999999869e-04,-1.199999999999999895e-04,2.999999999999999737e-04,-1.100000000000000039e-04,8.999999999999999754e-04,3.000000000000000000e+00,5.000000000000000000e+00
1.193900000000000000e+04,-2.000000000000000096e-04,-1.199999999999999895e-04,-8.000000000000000654e-05,2.299999999999999799e-04,6.499999999999999702e-04,2.399999999999999790e-04,-4.200000000000000174e-04,-2.500000000000000052e-04,3.000000000000000000e+00,5.000000000000000000e+00
1.194000000000000000e+04,-2.500000000000000052e-04,-6.999999999999999387e-05,-1.300000000000000157e-04,-5.999999999999999474e-04,-4.899999999999999842e-04,-4.400000000000000157e-04,-3.299999999999999982e-04,-1.800000000000000113e-04,3.000000000000000000e+00,5.000000000000000000e+00
1.194100000000000000e+04,-2.500000000000000052e-04,-6.999999999999999387e-05,-1.300000000000000157e-04,-5.999999999999999474e-04,-4.899999999999999842e-04,-4.400000000000000157e-04,-3.299999999999999982e-04,-1.800000000000000113e-04,3.000000000000000000e+00,5.000000000000000000e+00
1.194200000000000000e+04,-2.500000000000000052e-04,-6.999999999999999387e-05,-1.300000000000000157e-04,-5.999999999999999474e-04,-4.899999999999999842e-04,-4.400000000000000157e-04,-3.299999999999999982e-04,-1.800000000000000113e-04,3.000000000000000000e+00,5.000000000000000000e+00
1.194300000000000000e+04,-2.500000000000000052e-04,-6.999999999999999387e-05,-1.300000000000000157e-04,-5.999999999999999474e-04,-4.899999999999999842e-04,-4.400000000000000157e-04,-3.299999999999999982e-04,-1.800000000000000113e-04,3.000000000000000000e+00,5.000000000000000000e+00
1.194400000000000000e+04,-2.500000000000000052e-04,-6.999999999999999387e-05,-1.300000000000000157e-04,-5.999999999999999474e-04,-4.899999999999999842e-04,-4.400000000000000157e-04,-3.299999999999999982e-04,-1.800000000000000113e-04,3.000000000000000000e+00,5.000000000000000000e+00
1.194500000000000000e+04,-2.500000000000000052e-04,-6.999999999999999387e-05,-1.300000000000000157e-04,-5.999999999999999474e-04,-4.899999999999999842e-04,-4.400000000000000157e-04,-3.299999999999999982e-04,-1.800000000000000113e-04,3.000000000000000000e+00,5.000000000000000000e+00
1.194600000000000000e+04,-2.500000000000000052e-04,-6.999999999999999387e-05,-1.300000000000000157e-04,-5.999999999999999474e-04,-4.899999999999999842e-04,-4.400000000000000157e-04,-3.299999999999999982e-04,-1.800000000000000113e-04,3.000000000000000000e+00,5.000000000000000000e+00
1.194700000000000000e+04,-2.500000000000000052e-04,-6.999999999999999387e-05,-1.300000000000000157e-04,-5.999999999999999474e-04,-4.899999999999999842e-04,-4.400000000000000157e-04,-3.299999999999999982e-04,-1.800000000000000113e-04,3.000000000000000000e+00,5.000000000000000000e+00
1.194800000000000000e+04,-2.500000000000000052e-04,-6.999999999999999387e-05,-1.300000000000000157e-04,-5.999999999999999474e-04,-4.899999999999999842e-04,-4.400000000000000157e-04,-3.299999999999999982e-04,-1.800000000000000113e-04,3.000000000000000000e+00,5.000000000000000000e+00
1.194900000000000000e+04,-2.500000000000000052e-04,-6.999999999999999387e-05,-1.300000000000000157e-04,-5.999999999999999474e-04,-4.899999999999999842e-04,-4.400000000000000157e-04,-3.299999999999999982e-04,-1.800000000000000113e-04,3.000000000000000000e+00,5.000000000000000000e+00
1.195000000000000000e+04,-2.500000000000000052e-04,-6.999999999999999387e-05,-1.300000000000000157e-04,-5.999999999999999474e-04,-4.899999999999999842e-04,-4.400000000000000157e-04,-3.299999999999999982e-04,-1.800000000000000113e-04,3.000000000000000000e+00,5.000000000000000000e+00
1.195100000000000000e+04,-2.500000000000000052e-04,-6.999999999999999387e-05,-1.300000000000000157e-04,-5.999999999999999474e-04,-4.899999999999999842e-04,-4.400000000000000157e-04,-3.299999999999999982e-04,-1.800000000000000113e-04,3.000000000000000000e+00,5.000000000000000000e+00
1.195200000000000000e+04,-2.500000000000000052e-04,-6.999999999999999387e-05,-1.300000000000000157e-04,-5.999999999999999474e-04,-4.899999999999999842e-04,-4.400000000000000157e-04,-3.299999999999999982e-04,-1.800000000000000113e-04,3.000000000000000000e+00,5.000000000000000000e+00
1.195400000000000000e+04,-1.199999999999999895e-04,-2.999999999999999737e-05,0.000000000000000000e+00,1.000000000000000048e-04,1.199999999999999895e-04,-2.999999999999999737e-05,4.299999999999999894e-04,2.900000000000000017e-04,3.000000000000000000e+00,5.000000000000000000e+00
1.195500000000000000e+04,-1.199999999999999895e-04,-2.999999999999999737e-05,0.000000000000000000e+00,1.000000000000000048e-04,1.199999999999999895e-04,-2.999999999999999737e-05,4.299999999999999894e-04,2.900000000000000017e-04,3.000000000000000000e+00,5.000000000000000000e+00
1.195600000000000000e+04,-1.199999999999999895e-04,-2.999999999999999737e-05,0.000000000000000000e+00,1.000000000000000048e-04,1.199999999999999895e-04,-2.999999999999999737e-05,4.299999999999999894e-04,2.900000000000000017e-04,3.000000000000000000e+00,5.000000000000000000e+00
1.195700000000000000e+04,-1.199999999999999895e-04,-2.999999999999999737e-05,0.000000000000000000e+00,1.000000000000000048e-04,1.199999999999999895e-04,-2.999999999999999737e-05,4.299999999999999894e-04,2.900000000000000017e-04,3.000000000000000000e+00,5.000000000000000000e+00
1.195800000000000000e+04,-1.199999999999999895e-04,-2.999999999999999737e-05,0.000000000000000000e+00,1.000000000000000048e-04,1.199999999999999895e-04,-2.999999999999999737e-05,4.299999999999999894e-04,2.900000000000000017e-04,3.000000000000000000e+00,5.000000000000000000e+00
1.195900000000000000e+04,-1.199999999999999895e-04,-2.999999999999999737e-05,0.000000000000000000e+00,1.000000000000000048e-04,1.199999999999999895e-04,-2.999999999999999737e-05,4.299999999999999894e-04,2.900000000000000017e-04,3.000000000000000000e+00,5.000000000000000000e+00
1.196000000000000000e+04,-1.800000000000000113e-04,-5.999999999999999474e-05,-4.000000000000000327e-05,-1.300000000000000157e-04,-2.900000000000000017e-04,-2.000000000000000164e-05,1.000000000000000082e-05,-2.399999999999999790e-04,3.000000000000000000e+00,5.000000000000000000e+00
1.196100000000000000e+04,-1.800000000000000113e-04,-5.999999999999999474e-05,-4.000000000000000327e-05,-1.300000000000000157e-04,-2.900000000000000017e-04,-2.000000000000000164e-05,1.000000000000000082e-05,-2.399999999999999790e-04,3.000000000000000000e+00,5.000000000000000000e+00
1.196200000000000000e+04,-1.800000000000000113e-04,-5.999999999999999474e-05,-4.000000000000000327e-05,-1.300000000000000157e-04,-2.900000000000000017e-04,-2.000000000000000164e-05,1.000000000000000082e-05,-2.399999999999999790e-04,3.000000000000000000e+00,5.000000000000000000e+00
1.196300000000000000e+04,-1.800000000000000113e-04,-5.999999999999999474e-05,-4.000000000000000327e-05,-1.300000000000000157e-04,-2.900000000000000017e-04,-2.000000000000000164e-05,1.000000000000000082e-05,-2.399999999999999790e-04,3.000000000000000000e+00,5.000000000000000000e+00
1.196400000000000000e+04,-1.800000000000000113e-04,-5.999999999999999474e-05,-4.000000000000000327e-05,-1.300000000000000157e-04,-2.900000000000000017e-04,-2.000000000000000164e-05,1.000000000000000082e-05,-2.399999999999999790e-04,3.000000000000000000e+00,5.000000000000000000e+00
1.196500000000000000e+04,-1.800000000000000113e-04,-5.999999999999999474e-05,-4.000000000000000327e-05,-1.300000000000000157e-04,-2.900000000000000017e-04,-2.000000000000000164e-05,1.000000000000000082e-05,-2.399999999999999790e-04,3.000000000000000000e+00,5.000000000000000000e+00
1.196600000000000000e+04,-1.800000000000000113e-04,-5.999999999999999474e-05,-4.000000000000000327e-05,-1.300000000000000157e-04,-2.900000000000000017e-04,-2.000000000000000164e-05,1.000000000000000082e-05,-2.399999999999999790e-04,3.000000000000000000e+00,5.000000000000000000e+00
1.196700000000000000e+04,-1.800000000000000113e-04,-5.999999999999999474e-05,-4.000000000000000327e-05,-1.300000000000000157e-04,-2.900000000000000017e-04,-2.000000000000000164e-05,1.000000000000000082e-05,-2.399999999999999790e-04,3.000000000000000000e+00,5.000000000000000000e+00
1.196800000000000000e+04,-1.800000000000000113e-04,-5.999999999999999474e-05,-4.000000000000000327e-05,-1.300000000000000157e-04,-2.900000000000000017e-04,-2.000000000000000164e-05,1.000000000000000082e-05,-2.399999999999999790e-04,3.000000000000000000e+00,5.000000000000000000e+00
1.196900000000000000e+04,-1.800000000000000113e-04,-5.999999999999999474e-05,-4.000000000000000327e-05,-1.300000000000000157e-04,-2.900000000000000017e-04,-2.000000000000000164e-05,1.000000000000000082e-05,-2.399999999999999790e-04,3.000000000000000000e+00,5.000000000000000000e+00
1.197000000000000000e+04,-1.800000000000000113e-04,-5.999999999999999474e-05,-4.000000000000000327e-05,-1.300000000000000157e-04,-2.900000000000000017e-04,-2.000000000000000164e-05,1.000000000000000082e-05,-2.399999999999999790e-04,3.000000000000000000e+00,5.000000000000000000e+00
1.197100000000000000e+04,-1.800000000000000113e-04,-5.999999999999999474e-05,-4.000000000000000327e-05,-1.300000000000000157e-04,-2.900000000000000017e-04,-2.000000000000000164e-05,1.000000000000000082e-05,-2.399999999999999790e-04,3.000000000000000000e+00,5.000000000000000000e+00
1.197200000000000000e+04,-1.800000000000000113e-04,-5.999999999999999474e-05,-4.000000000000000327e-05,-1.300000000000000157e-04,-2.900000000000000017e-04,-2.000000000000000164e-05,1.000000000000000082e-05,-2.399999999999999790e-04,3.000000000000000000e+00,5.000000000000000000e+00
1.197300000000000000e+04,-1.800000000000000113e-04,-5.999999999999999474e-05,-4.000000000000000327e-05,-1.300000000000000157e-04,-2.900000000000000017e-04,-2.000000000000000164e-05,1.000000000000000082e-05,-2.399999999999999790e-04,3.000000000000000000e+00,5.000000000000000000e+00
1.197400000000000000e+04,-1.800000000000000113e-04,-5.999999999999999474e-05,-4.000000000000000327e-05,-1.300000000000000157e-04,-2.900000000000000017e-04,-2.000000000000000164e-05,1.000000000000000082e-05,-2.399999999999999790e-04,3.000000000000000000e+00,5.000000000000000000e+00
1.197500000000000000e+04,-1.800000000000000113e-04,-5.999999999999999474e-05,-4.000000000000000327e-05,-1.300000000000000157e-04,-2.900000000000000017e-04,-2.000000000000000164e-05,1.000000000000000082e-05,-2.399999999999999790e-04,3.000000000000000000e+00,5.000000000000000000e+00
1.197600000000000000e+04,1.600000000000000131e-04,2.000000000000000164e-05,-2.999999999999999737e-05,-2.900000000000000017e-04,-5.999999999999999474e-04,-2.000000000000000096e-04,5.400000000000000069e-04,-2.000000000000000164e-05,3.000000000000000000e+00,5.000000000000000000e+00
1.197700000000000000e+04,1.600000000000000131e-04,2.000000000000000164e-05,-2.999999999999999737e-05,-2.900000000000000017e-04,-5.999999999999999474e-04,-2.000000000000000096e-04,5.400000000000000069e-04,-2.000000000000000164e-05,3.000000000000000000e+00,5.000000000000000000e+00
1.197800000000000000e+04,1.300000000000000157e-04,-2.000000000000000164e-05,2.000000000000000164e-05,0.000000000000000000e+00,-1.000000000000000048e-04,-1.899999999999999834e-04,1.899999999999999834e-04,4.499999999999999877e-04,3.000000000000000000e+00,5.000000000000000000e+00
1.197900000000000000e+04,1.300000000000000157e-04,-2.000000000000000164e-05,2.000000000000000164e-05,0.000000000000000000e+00,-1.000000000000000048e-04,-1.899999999999999834e-04,1.899999999999999834e-04,4.499999999999999877e-04,3.000000000000000000e+00,5.000000000000000000e+00
1.198000000000000000e+04,1.300000000000000157e-04,-2.000000000000000164e-05,2.000000000000000164e-05,0.000000000000000000e+00,-1.000000000000000048e-04,-1.899999999999999834e-04,1.899999999999999834e-04,4.499999999999999877e-04,3.000000000000000000e+00,5.000000000000000000e+00
1.198100000000000000e+04,1.300000000000000157e-04,-2.000000000000000164e-05,2.000000000000000164e-05,0.000000000000000000e+00,-1.000000000000000048e-04,-1.899999999999999834e-04,1.899999999999999834e-04,4.499999999999999877e-04,3.000000000000000000e+00,5.000000000000000000e+00
1.198200000000000000e+04,1.300000000000000157e-04,-2.000000000000000164e-05,2.000000000000000164e-05,0.000000000000000000e+00,-1.000000000000000048e-04,-1.899999999999999834e-04,1.899999999999999834e-04,4.499999999999999877e-04,3.000000000000000000e+00,5.000000000000000000e+00
1.198300000000000000e+04,1.300000000000000157e-04,-2.000000000000000164e-05,2.000000000000000164e-05,0.000000000000000000e+00,-1.000000000000000048e-04,-1.899999999999999834e-04,1.899999999999999834e-04,4.499999999999999877e-04,3.000000000000000000e+00,5.000000000000000000e+00
1.198400000000000000e+04,1.300000000000000157e-04,-2.000000000000000164e-05,2.000000000000000164e-05,0.000000000000000000e+00,-1.000000000000000048e-04,-1.899999999999999834e-04,1.899999999999999834e-04,4.499999999999999877e-04,3.000000000000000000e+00,5.000000000000000000e+00
1.198500000000000000e+04,1.300000000000000157e-04,-2.000000000000000164e-05,2.000000000000000164e-05,0.000000000000000000e+00,-1.000000000000000048e-04,-1.899999999999999834e-04,1.899999999999999834e-04,4.499999999999999877e-04,3.000000000000000000e+00,5.000000000000000000e+00
1.198600000000000000e+04,1.300000000000000157e-04,-2.000000000000000164e-05,2.000000000000000164e-05,0.000000000000000000e+00,-1.000000000000000048e-04,-1.899999999999999834e-04,1.899999999999999834e-04,4.499999999999999877e-04,3.000000000000000000e+00,5.000000000000000000e+00
1.198800000000000000e+04,1.300000000000000157e-04,-2.000000000000000164e-05,2.000000000000000164e-05,0.000000000000000000e+00,-1.000000000000000048e-04,-1.899999999999999834e-04,1.899999999999999834e-04,4.499999999999999877e-04,3.000000000000000000e+00,5.000000000000000000e+00
1.198900000000000000e+04,1.300000000000000157e-04,-2.000000000000000164e-05,2.000000000000000164e-05,0.000000000000000000e+00,-1.000000000000000048e-04,-1.899999999999999834e-04,1.899999999999999834e-04,4.499999999999999877e-04,3.000000000000000000e+00,5.000000000000000000e+00
1.199000000000000000e+04,1.300000000000000157e-04,-2.000000000000000164e-05,2.000000000000000164e-05,0.000000000000000000e+00,-1.000000000000000048e-04,-1.899999999999999834e-04,1.899999999999999834e-04,4.499999999999999877e-04,3.000000000000000000e+00,5.000000000000000000e+00
1.199100000000000000e+04,1.300000000000000157e-04,-2.000000000000000164e-05,2.000000000000000164e-05,0.000000000000000000e+00,-1.000000000000000048e-04,-1.899999999999999834e-04,1.899999999999999834e-04,4.499999999999999877e-04,3.000000000000000000e+00,5.000000000000000000e+00
1.199200000000000000e+04,1.300000000000000157e-04,-2.000000000000000164e-05,2.000000000000000164e-05,0.000000000000000000e+00,-1.000000000000000048e-04,-1.899999999999999834e-04,1.899999999999999834e-04,4.499999999999999877e-04,3.000000000000000000e+00,5.000000000000000000e+00
1.199300000000000000e+04,1.300000000000000157e-04,-2.000000000000000164e-05,2.000000000000000164e-05,0.000000000000000000e+00,-1.000000000000000048e-04,-1.899999999999999834e-04,1.899999999999999834e-04,4.499999999999999877e-04,3.000000000000000000e+00,5.000000000000000000e+00
1.199400000000000000e+04,1.300000000000000157e-04,-2.000000000000000164e-05,2.000000000000000164e-05,0.000000000000000000e+00,-1.000000000000000048e-04,-1.899999999999999834e-04,1.899999999999999834e-04,4.499999999999999877e-04,3.000000000000000000e+00,5.000000000000000000e+00
1.199500000000000000e+04,1.300000000000000157e-04,-2.000000000000000164e-05,2.000000000000000164e-05,0.000000000000000000e+00,-1.000000000000000048e-04,-1.899999999999999834e-04,1.899999999999999834e-04,4.499999999999999877e-04,3.000000000000000000e+00,5.000000000000000000e+00
1.199600000000000000e+04,1.300000000000000157e-04,-2.000000000000000164e-05,2.000000000000000164e-05,0.000000000000000000e+00,-1.000000000000000048e-04,-1.899999999999999834e-04,1.899999999999999834e-04,4.499999999999999877e-04,3.000000000000000000e+00,5.000000000000000000e+00
1.199700000000000000e+04,1.300000000000000157e-04,-2.000000000000000164e-05,2.000000000000000164e-05,0.000000000000000000e+00,-1.000000000000000048e-04,-1.899999999999999834e-04,1.899999999999999834e-04,4.499999999999999877e-04,3.000000000000000000e+00,5.000000000000000000e+00
1.199800000000000000e+04,1.300000000000000157e-04,-2.000000000000000164e-05,2.000000000000000164e-05,0.000000000000000000e+00,-1.000000000000000048e-04,-1.899999999999999834e-04,1.899999999999999834e-04,4.499999999999999877e-04,3.000000000000000000e+00,5.000000000000000000e+00
1.199900000000000000e+04,5.000000000000000104e-04,1.899999999999999834e-04,1.800000000000000113e-04,1.100000000000000039e-04,-9.000000000000000567e-05,1.800000000000000113e-04,2.200000000000000078e-04,-1.499999999999999869e-04,3.000000000000000000e+00,5.000000000000000000e+00
1.200000000000000000e+04,5.000000000000000104e-04,1.899999999999999834e-04,1.800000000000000113e-04,1.100000000000000039e-04,-9.000000000000000567e-05,1.800000000000000113e-04,2.200000000000000078e-04,-1.499999999999999869e-04,3.000000000000000000e+00,5.000000000000000000e+00
1.200100000000000000e+04,-1.499999999999999869e-04,-9.000000000000000567e-05,-5.000000000000000240e-05,3.099999999999999999e-04,5.299999999999999807e-04,6.999999999999999387e-05,-2.900000000000000017e-04,-1.300000000000000157e-04,3.000000000000000000e+00,5.000000000000000000e+00
1.200200000000000000e+04,-1.499999999999999869e-04,-9.000000000000000567e-05,-5.000000000000000240e-05,3.099999999999999999e-04,5.299999999999999807e-04,6.999999999999999387e-05,-2.900000000000000017e-04,-1.300000000000000157e-04,3.000000000000000000e+00,5.000000000000000000e+00
1.200400000000000000e+04,-1.499999999999999869e-04,-9.000000000000000567e-05,-5.000000000000000240e-05,3.099999999999999999e-04,5.299999999999999807e-04,6.999999999999999387e-05,-2.900000000000000017e-04,-1.300000000000000157e-04,3.000000000000000000e+00,5.000000000000000000e+00
1.200500000000000000e+04,-1.499999999999999869e-04,-9.000000000000000567e-05,-5.000000000000000240e-05,3.099999999999999999e-04,5.299999999999999807e-04,6.999999999999999387e-05,-2.900000000000000017e-04,-1.300000000000000157e-04,3.000000000000000000e+00,5.000000000000000000e+00
1.200600000000000000e+04,-1.499999999999999869e-04,-9.000000000000000567e-05,-5.000000000000000240e-05,3.099999999999999999e-04,5.299999999999999807e-04,6.999999999999999387e-05,-2.900000000000000017e-04,-1.300000000000000157e-04,3.000000000000000000e+00,5.000000000000000000e+00
1.200700000000000000e+04,-1.499999999999999869e-04,-9.000000000000000567e-05,-5.000000000000000240e-05,3.099999999999999999e-04,5.299999999999999807e-04,6.999999999999999387e-05,-2.900000000000000017e-04,-1.300000000000000157e-04,3.000000000000000000e+00,5.000000000000000000e+00
1.200800000000000000e+04,-1.499999999999999869e-04,-9.000000000000000567e-05,-5.000000000000000240e-05,3.099999999999999999e-04,5.299999999999999807e-04,6.999999999999999387e-05,-2.900000000000000017e-04,-1.300000000000000157e-04,3.000000000000000000e+00,5.000000000000000000e+00
1.200900000000000000e+04,-1.499999999999999869e-04,-9.000000000000000567e-05,-5.000000000000000240e-05,3.099999999999999999e-04,5.299999999999999807e-04,6.999999999999999387e-05,-2.900000000000000017e-04,-1.300000000000000157e-04,3.000000000000000000e+00,5.000000000000000000e+00
1.201000000000000000e+04,-1.499999999999999869e-04,-9.000000000000000567e-05,-5.000000000000000240e-05,3.099999999999999999e-04,5.299999999999999807e-04,6.999999999999999387e-05,-2.900000000000000017e-04,-1.300000000000000157e-04,3.000000000000000000e+00,5.000000000000000000e+00
1.201100000000000000e+04,-1.499999999999999869e-04,-9.000000000000000567e-05,-5.000000000000000240e-05,3.099999999999999999e-04,5.299999999999999807e-04,6.999999999999999387e-05,-2.900000000000000017e-04,-1.300000000000000157e-04,3.000000000000000000e+00,5.000000000000000000e+00
1.201200000000000000e+04,-6.799999999999999404e-04,-2.999999999999999737e-05,1.000000000000000048e-04,-1.800000000000000113e-04,5.000000000000000104e-04,4.400000000000000157e-04,4.299999999999999894e-04,-3.499999999999999964e-04,3.000000000000000000e+00,5.000000000000000000e+00
1.201300000000000000e+04,-6.799999999999999404e-04,-2.999999999999999737e-05,1.000000000000000048e-04,-1.800000000000000113e-04,5.000000000000000104e-04,4.400000000000000157e-04,4.299999999999999894e-04,-3.499999999999999964e-04,3.000000000000000000e+00,5.000000000000000000e+00
1.201400000000000000e+04,-6.799999999999999404e-04,-2.999999999999999737e-05,1.000000000000000048e-04,-1.800000000000000113e-04,5.000000000000000104e-04,4.400000000000000157e-04,4.299999999999999894e-04,-3.499999999999999964e-04,3.000000000000000000e+00,5.000000000000000000e+00
1.201500000000000000e+04,-6.799999999999999404e-04,-2.999999999999999737e-05,1.000000000000000048e-04,-1.800000000000000113e-04,5.000000000000000104e-04,4.400000000000000157e-04,4.299999999999999894e-04,-3.499999999999999964e-04,3.000000000000000000e+00,5.000000000000000000e+00
1.201600000000000000e+04,-6.799999999999999404e-04,-2.999999999999999737e-05,1.000000000000000048e-04,-1.800000000000000113e-04,5.000000000000000104e-04,4.400000000000000157e-04,4.299999999999999894e-04,-3.499999999999999964e-04,3.000000000000000000e+00,5.000000000000000000e+00
1.201700000000000000e+04,-6.799999999999999404e-04,-2.999999999999999737e-05,1.000000000000000048e-04,-1.800000000000000113e-04,5.000000000000000104e-04,4.400000000000000157e-04,4.299999999999999894e-04,-3.499999999999999964e-04,3.000000000000000000e+00,5.000000000000000000e+00
1.201800000000000000e+04,-6.799999999999999404e-04,-2.999999999999999737e-05,1.000000000000000048e-04,-1.800000000000000113e-04,5.000000000000000104e-04,4.400000000000000157e-04,4.299999999999999894e-04,-3.499999999999999964e-04,3.000000000000000000e+00,5.000000000000000000e+00
1.201900000000000000e+04,-6.799999999999999404e-04,-2.999999999999999737e-05,1.000000000000000048e-04,-1.800000000000000113e-04,5.000000000000000104e-04,4.400000000000000157e-04,4.299999999999999894e-04,-3.499999999999999964e-04,3.000000000000000000e+00,5.000000000000000000e+00
1.202000000000000000e+04,-6.799999999999999404e-04,-2.999999999999999737e-05,1.000000000000000048e-04,-1.800000000000000113e-04,5.000000000000000104e-04,4.400000000000000157e-04,4.299999999999999894e-04,-3.499999999999999964e-04,3.000000000000000000e+00,5.000000000000000000e+00
1.202100000000000000e+04,-2.399999999999999790e-04,-1.000000000000000048e-04,-6.999999999999999387e-05,2.100000000000000087e-04,5.999999999999999474e-04,2.000000000000000164e-05,4.799999999999999580e-04,-4.799999999999999580e-04,3.000000000000000000e+00,5.000000000000000000e+00
1.202200000000000000e+04,-2.399999999999999790e-04,-1.000000000000000048e-04,-6.999999999999999387e-05,2.100000000000000087e-04,5.999999999999999474e-04,2.000000000000000164e-05,4.799999999999999580e-04,-4.799999999999999580e-04,3.000000000000000000e+00,5.000000000000000000e+00
1.202300000000000000e+04,-2.399999999999999790e-04,-1.000000000000000048e-04,-6.999999999999999387e-05,2.100000000000000087e-04,5.999999999999999474e-04,2.000000000000000164e-05,4.799999999999999580e-04,-4.799999999999999580e-04,3.000000000000000000e+00,5.000000000000000000e+00
1.202400000000000000e+04,-2.399999999999999790e-04,-1.000000000000000048e-04,-6.999999999999999387e-05,2.100000000000000087e-04,5.999999999999999474e-04,2.000000000000000164e-05,4.799999999999999580e-04,-4.799999999999999580e-04,3.000000000000000000e+00,5.000000000000000000e+00
1.202500000000000000e+04,-2.399999999999999790e-04,-1.000000000000000048e-04,-6.999999999999999387e-05,2.100000000000000087e-04,5.999999999999999474e-04,2.000000000000000164e-05,4.799999999999999580e-04,-4.799999999999999580e-04,3.000000000000000000e+00,5.000000000000000000e+00
1.202600000000000000e+04,-2.399999999999999790e-04,-1.000000000000000048e-04,-6.999999999999999387e-05,2.100000000000000087e-04,5.999999999999999474e-04,2.000000000000000164e-05,4.799999999999999580e-04,-4.799999999999999580e-04,3.000000000000000000e+00,5.000000000000000000e+00
1.202700000000000000e+04,-2.399999999999999790e-04,-1.000000000000000048e-04,-6.999999999999999387e-05,2.100000000000000087e-04,5.999999999999999474e-04,2.000000000000000164e-05,4.799999999999999580e-04,-4.799999999999999580e-04,3.000000000000000000e+00,5.000000000000000000e+00
1.202800000000000000e+04,-2.399999999999999790e-04,-1.000000000000000048e-04,-6.999999999999999387e-05,2.100000000000000087e-04,5.999999999999999474e-04,2.000000000000000164e-05,4.799999999999999580e-04,-4.799999999999999580e-04,3.000000000000000000e+00,5.000000000000000000e+00
1.202900000000000000e+04,-2.399999999999999790e-04,-1.000000000000000048e-04,-6.999999999999999387e-05,2.100000000000000087e-04,5.999999999999999474e-04,2.000000000000000164e-05,4.799999999999999580e-04,-4.799999999999999580e-04,3.000000000000000000e+00,5.000000000000000000e+00
1.203000000000000000e+04,-2.399999999999999790e-04,-1.000000000000000048e-04,-6.999999999999999387e-05,2.100000000000000087e-04,5.999999999999999474e-04,2.000000000000000164e-05,4.799999999999999580e-04,-4.799999999999999580e-04,3.000000000000000000e+00,5.000000000000000000e+00
1.203100000000000000e+04,-2.399999999999999790e-04,-1.000000000000000048e-04,-6.999999999999999387e-05,2.100000000000000087e-04,5.999999999999999474e-04,2.000000000000000164e-05,4.799999999999999580e-04,-4.799999999999999580e-04,3.000000000000000000e+00,5.000000000000000000e+00
1.203200000000000000e+04,-2.399999999999999790e-04,-1.000000000000000048e-04,-6.999999999999999387e-05,2.100000000000000087e-04,5.999999999999999474e-04,2.000000000000000164e-05,4.799999999999999580e-04,-4.799999999999999580e-04,3.000000000000000000e+00,5.000000000000000000e+00
1.203300000000000000e+04,-2.399999999999999790e-04,-1.000000000000000048e-04,-6.999999999999999387e-05,2.100000000000000087e-04,5.999999999999999474e-04,2.000000000000000164e-05,4.799999999999999580e-04,-4.799999999999999580e-04,3.000000000000000000e+00,5.000000000000000000e+00
1.203400000000000000e+04,-2.399999999999999790e-04,-1.000000000000000048e-04,-6.999999999999999387e-05,2.100000000000000087e-04,5.999999999999999474e-04,2.000000000000000164e-05,4.799999999999999580e-04,-4.799999999999999580e-04,3.000000000000000000e+00,5.000000000000000000e+00
1.203500000000000000e+04,-2.399999999999999790e-04,-1.000000000000000048e-04,-6.999999999999999387e-05,2.100000000000000087e-04,5.999999999999999474e-04,2.000000000000000164e-05,4.799999999999999580e-04,-4.799999999999999580e-04,3.000000000000000000e+00,5.000000000000000000e+00
1.203600000000000000e+04,-2.000000000000000096e-04,-1.399999999999999877e-04,-1.100000000000000039e-04,-1.300000000000000157e-04,-7.900000000000000121e-04,-3.799999999999999667e-04,5.999999999999999474e-05,-6.199999999999999999e-04,3.000000000000000000e+00,5.000000000000000000e+00
1.203800000000000000e+04,1.199999999999999895e-04,-2.000000000000000164e-05,1.000000000000000048e-04,4.499999999999999877e-04,6.799999999999999404e-04,5.000000000000000240e-05,-1.899999999999999834e-04,-2.700000000000000035e-04,3.000000000000000000e+00,5.000000000000000000e+00
1.203900000000000000e+04,1.199999999999999895e-04,-2.000000000000000164e-05,1.000000000000000048e-04,4.499999999999999877e-04,6.799999999999999404e-04,5.000000000000000240e-05,-1.899999999999999834e-04,-2.700000000000000035e-04,3.000000000000000000e+00,5.000000000000000000e+00
1.204000000000000000e+04,1.199999999999999895e-04,-2.000000000000000164e-05,1.000000000000000048e-04,4.499999999999999877e-04,6.799999999999999404e-04,5.000000000000000240e-05,-1.899999999999999834e-04,-2.700000000000000035e-04,3.000000000000000000e+00,5.000000000000000000e+00
1.204100000000000000e+04,1.199999999999999895e-04,-2.000000000000000164e-05,1.000000000000000048e-04,4.499999999999999877e-04,6.799999999999999404e-04,5.000000000000000240e-05,-1.899999999999999834e-04,-2.700000000000000035e-04,3.000000000000000000e+00,5.000000000000000000e+00
1.204200000000000000e+04,1.199999999999999895e-04,-2.000000000000000164e-05,1.000000000000000048e-04,4.499999999999999877e-04,6.799999999999999404e-04,5.000000000000000240e-05,-1.899999999999999834e-04,-2.700000000000000035e-04,3.000000000000000000e+00,5.000000000000000000e+00
1.204300000000000000e+04,1.199999999999999895e-04,-2.000000000000000164e-05,1.000000000000000048e-04,4.499999999999999877e-04,6.799999999999999404e-04,5.000000000000000240e-05,-1.899999999999999834e-04,-2.700000000000000035e-04,3.000000000000000000e+00,5.000000000000000000e+00
1.204400000000000000e+04,1.199999999999999895e-04,-2.000000000000000164e-05,1.000000000000000048e-04,4.499999999999999877e-04,6.799999999999999404e-04,5.000000000000000240e-05,-1.899999999999999834e-04,-2.700000000000000035e-04,3.000000000000000000e+00,5.000000000000000000e+00
1.204500000000000000e+04,1.199999999999999895e-04,-2.000000000000000164e-05,1.000000000000000048e-04,4.499999999999999877e-04,6.799999999999999404e-04,5.000000000000000240e-05,-1.899999999999999834e-04,-2.700000000000000035e-04,3.000000000000000000e+00,5.000000000000000000e+00
1.204600000000000000e+04,1.199999999999999895e-04,-2.000000000000000164e-05,1.000000000000000048e-04,4.499999999999999877e-04,6.799999999999999404e-04,5.000000000000000240e-05,-1.899999999999999834e-04,-2.700000000000000035e-04,3.000000000000000000e+00,5.000000000000000000e+00
1.204700000000000000e+04,1.199999999999999895e-04,-2.000000000000000164e-05,1.000000000000000048e-04,4.499999999999999877e-04,6.799999999999999404e-04,5.000000000000000240e-05,-1.899999999999999834e-04,-2.700000000000000035e-04,3.000000000000000000e+00,5.000000000000000000e+00
1.204800000000000000e+04,1.199999999999999895e-04,-2.000000000000000164e-05,1.000000000000000048e-04,4.499999999999999877e-04,6.799999999999999404e-04,5.000000000000000240e-05,-1.899999999999999834e-04,-2.700000000000000035e-04,3.000000000000000000e+00,5.000000000000000000e+00
1.204900000000000000e+04,1.199999999999999895e-04,-2.000000000000000164e-05,1.000000000000000048e-04,4.499999999999999877e-04,6.799999999999999404e-04,5.000000000000000240e-05,-1.899999999999999834e-04,-2.700000000000000035e-04,3.000000000000000000e+00,5.000000000000000000e+00
1.205000000000000000e+04,1.199999999999999895e-04,-2.000000000000000164e-05,1.000000000000000048e-04,4.499999999999999877e-04,6.799999999999999404e-04,5.000000000000000240e-05,-1.899999999999999834e-04,-2.700000000000000035e-04,3.000000000000000000e+00,5.000000000000000000e+00
1.205100000000000000e+04,1.199999999999999895e-04,-2.000000000000000164e-05,1.000000000000000048e-04,4.499999999999999877e-04,6.799999999999999404e-04,5.000000000000000240e-05,-1.899999999999999834e-04,-2.700000000000000035e-04,3.000000000000000000e+00,5.000000000000000000e+00
1.205200000000000000e+04,1.199999999999999895e-04,-2.000000000000000164e-05,1.000000000000000048e-04,4.499999999999999877e-04,6.799999999999999404e-04,5.000000000000000240e-05,-1.899999999999999834e-04,-2.700000000000000035e-04,3.000000000000000000e+00,5.000000000000000000e+00
1.205400000000000000e+04,1.199999999999999895e-04,-2.000000000000000164e-05,1.000000000000000048e-04,4.499999999999999877e-04,6.799999999999999404e-04,5.000000000000000240e-05,-1.899999999999999834e-04,-2.700000000000000035e-04,3.000000000000000000e+00,5.000000000000000000e+00
1.205500000000000000e+04,1.199999999999999895e-04,-2.000000000000000164e-05,1.000000000000000048e-04,4.499999999999999877e-04,6.799999999999999404e-04,5.000000000000000240e-05,-1.899999999999999834e-04,-2.700000000000000035e-04,3.000000000000000000e+00,5.000000000000000000e+00
1.205600000000000000e+04,1.199999999999999895e-04,-2.000000000000000164e-05,1.000000000000000048e-04,4.499999999999999877e-04,6.799999999999999404e-04,5.000000000000000240e-05,-1.899999999999999834e-04,-2.700000000000000035e-04,3.000000000000000000e+00,5.000000000000000000e+00
1.205700000000000000e+04,1.199999999999999895e-04,-2.000000000000000164e-05,1.000000000000000048e-04,4.499999999999999877e-04,6.799999999999999404e-04,5.000000000000000240e-05,-1.899999999999999834e-04,-2.700000000000000035e-04,3.000000000000000000e+00,5.000000000000000000e+00
1.205800000000000000e+04,1.199999999999999895e-04,-2.000000000000000164e-05,1.000000000000000048e-04,4.499999999999999877e-04,6.799999999999999404e-04,5.000000000000000240e-05,-1.899999999999999834e-04,-2.700000000000000035e-04,3.000000000000000000e+00,5.000000000000000000e+00
1.205900000000000000e+04,9.100000000000000016e-04,-1.000000000000000082e-05,-1.499999999999999869e-04,-2.299999999999999799e-04,-4.799999999999999580e-04,-2.000000000000000096e-04,-4.400000000000000157e-04,9.699999999999999421e-04,3.000000000000000000e+00,5.000000000000000000e+00
1.206000000000000000e+04,2.000000000000000164e-05,6.999999999999999387e-05,1.199999999999999895e-04,1.000000000000000082e-05,-2.399999999999999790e-04,4.000000000000000327e-05,6.999999999999999387e-05,-1.199999999999999895e-04,3.000000000000000000e+00,5.000000000000000000e+00
1.206100000000000000e+04,2.000000000000000164e-05,6.999999999999999387e-05,1.199999999999999895e-04,1.000000000000000082e-05,-2.399999999999999790e-04,4.000000000000000327e-05,6.999999999999999387e-05,-1.199999999999999895e-04,3.000000000000000000e+00,5.000000000000000000e+00
1.206200000000000000e+04,2.000000000000000164e-05,6.999999999999999387e-05,1.199999999999999895e-04,1.000000000000000082e-05,-2.399999999999999790e-04,4.000000000000000327e-05,6.999999999999999387e-05,-1.199999999999999895e-04,3.000000000000000000e+00,5.000000000000000000e+00
1.206300000000000000e+04,2.000000000000000164e-05,6.999999999999999387e-05,1.199999999999999895e-04,1.000000000000000082e-05,-2.399999999999999790e-04,4.000000000000000327e-05,6.999999999999999387e-05,-1.199999999999999895e-04,3.000000000000000000e+00,5.000000000000000000e+00
1.206400000000000000e+04,2.000000000000000164e-05,6.999999999999999387e-05,1.199999999999999895e-04,1.000000000000000082e-05,-2.399999999999999790e-04,4.000000000000000327e-05,6.999999999999999387e-05,-1.199999999999999895e-04,3.000000000000000000e+00,5.000000000000000000e+00
1.206500000000000000e+04,2.000000000000000164e-05,6.999999999999999387e-05,1.199999999999999895e-04,1.000000000000000082e-05,-2.399999999999999790e-04,4.000000000000000327e-05,6.999999999999999387e-05,-1.199999999999999895e-04,3.000000000000000000e+00,5.000000000000000000e+00
1.206600000000000000e+04,2.000000000000000164e-05,6.999999999999999387e-05,1.199999999999999895e-04,1.000000000000000082e-05,-2.399999999999999790e-04,4.000000000000000327e-05,6.999999999999999387e-05,-1.199999999999999895e-04,3.000000000000000000e+00,5.000000000000000000e+00
1.206700000000000000e+04,2.000000000000000164e-05,6.999999999999999387e-05,1.199999999999999895e-04,1.000000000000000082e-05,-2.399999999999999790e-04,4.000000000000000327e-05,6.999999999999999387e-05,-1.199999999999999895e-04,3.000000000000000000e+00,5.000000000000000000e+00
1.206800000000000000e+04,2.000000000000000164e-05,6.999999999999999387e-05,1.199999999999999895e-04,1.000000000000000082e-05,-2.399999999999999790e-04,4.000000000000000327e-05,6.999999999999999387e-05,-1.199999999999999895e-04,3.000000000000000000e+00,5.000000000000000000e+00
1.206900000000000000e+04,2.000000000000000164e-05,6.999999999999999387e-05,1.199999999999999895e-04,1.000000000000000082e-05,-2.399999999999999790e-04,4.000000000000000327e-05,6.999999999999999387e-05,-1.199999999999999895e-04,3.000000000000000000e+00,5.000000000000000000e+00
1.207000000000000000e+04,2.000000000000000164e-05,6.999999999999999387e-05,1.199999999999999895e-04,1.000000000000000082e-05,-2.399999999999999790e-04,4.000000000000000327e-05,6.999999999999999387e-05,-1.199999999999999895e-04,3.000000000000000000e+00,5.000000000000000000e+00
1.207100000000000000e+04,2.000000000000000164e-05,6.999999999999999387e-05,1.199999999999999895e-04,1.000000000000000082e-05,-2.399999999999999790e-04,4.000000000000000327e-05,6.999999999999999387e-05,-1.199999999999999895e-04,3.000000000000000000e+00,5.000000000000000000e+00
1.207200000000000000e+04,1.199999999999999895e-04,2.000000000000000164e-05,-1.000000000000000082e-05,1.600000000000000131e-04,1.100000000000000039e-04,1.399999999999999877e-04,1.199999999999999895e-04,2.500000000000000052e-04,3.000000000000000000e+00,5.000000000000000000e+00
1.207300000000000000e+04,1.199999999999999895e-04,2.000000000000000164e-05,-1.000000000000000082e-05,1.600000000000000131e-04,1.100000000000000039e-04,1.399999999999999877e-04,1.199999999999999895e-04,2.500000000000000052e-04,3.000000000000000000e+00,5.000000000000000000e+00
1.207400000000000000e+04,1.199999999999999895e-04,2.000000000000000164e-05,-1.000000000000000082e-05,1.600000000000000131e-04,1.100000000000000039e-04,1.399999999999999877e-04,1.199999999999999895e-04,2.500000000000000052e-04,3.000000000000000000e+00,5.000000000000000000e+00
1.207500000000000000e+04,1.199999999999999895e-04,2.000000000000000164e-05,-1.000000000000000082e-05,1.600000000000000131e-04,1.100000000000000039e-04,1.399999999999999877e-04,1.199999999999999895e-04,2.500000000000000052e-04,3.000000000000000000e+00,5.000000000000000000e+00
1.207600000000000000e+04,1.199999999999999895e-04,2.000000000000000164e-05,-1.000000000000000082e-05,1.600000000000000131e-04,1.100000000000000039e-04,1.399999999999999877e-04,1.199999999999999895e-04,2.500000000000000052e-04,3.000000000000000000e+00,5.000000000000000000e+00
1.207700000000000000e+04,1.199999999999999895e-04,2.000000000000000164e-05,-1.000000000000000082e-05,1.600000000000000131e-04,1.100000000000000039e-04,1.399999999999999877e-04,1.199999999999999895e-04,2.500000000000000052e-04,3.000000000000000000e+00,5.000000000000000000e+00
1.207800000000000000e+04,1.199999999999999895e-04,2.000000000000000164e-05,-1.000000000000000082e-05,1.600000000000000131e-04,1.100000000000000039e-04,1.399999999999999877e-04,1.199999999999999895e-04,2.500000000000000052e-04,3.000000000000000000e+00,5.000000000000000000e+00
1.208000000000000000e+04,1.199999999999999895e-04,2.000000000000000164e-05,-1.000000000000000082e-05,1.600000000000000131e-04,1.100000000000000039e-04,1.399999999999999877e-04,1.199999999999999895e-04,2.500000000000000052e-04,3.000000000000000000e+00,5.000000000000000000e+00
1.208100000000000000e+04,2.700000000000000035e-04,0.000000000000000000e+00,1.000000000000000082e-05,3.399999999999999702e-04,5.099999999999999282e-04,-1.800000000000000113e-04,-6.599999999999999964e-04,1.800000000000000113e-04,3.000000000000000000e+00,5.000000000000000000e+00
1.208200000000000000e+04,2.700000000000000035e-04,0.000000000000000000e+00,1.000000000000000082e-05,3.399999999999999702e-04,5.099999999999999282e-04,-1.800000000000000113e-04,-6.599999999999999964e-04,1.800000000000000113e-04,3.000000000000000000e+00,5.000000000000000000e+00
1.208300000000000000e+04,2.700000000000000035e-04,0.000000000000000000e+00,1.000000000000000082e-05,3.399999999999999702e-04,5.099999999999999282e-04,-1.800000000000000113e-04,-6.599999999999999964e-04,1.800000000000000113e-04,3.000000000000000000e+00,5.000000000000000000e+00
1.208400000000000000e+04,2.700000000000000035e-04,0.000000000000000000e+00,1.000000000000000082e-05,3.399999999999999702e-04,5.099999999999999282e-04,-1.800000000000000113e-04,-6.599999999999999964e-04,1.800000000000000113e-04,3.000000000000000000e+00,5.000000000000000000e+00
1.208500000000000000e+04,2.700000000000000035e-04,0.000000000000000000e+00,1.000000000000000082e-05,3.399999999999999702e-04,5.099999999999999282e-04,-1.800000000000000113e-04,-6.599999999999999964e-04,1.800000000000000113e-04,3.000000000000000000e+00,5.000000000000000000e+00
1.208600000000000000e+04,2.700000000000000035e-04,0.000000000000000000e+00,1.000000000000000082e-05,3.399999999999999702e-04,5.099999999999999282e-04,-1.800000000000000113e-04,-6.599999999999999964e-04,1.800000000000000113e-04,3.000000000000000000e+00,5.000000000000000000e+00
1.208800000000000000e+04,2.700000000000000035e-04,0.000000000000000000e+00,1.000000000000000082e-05,3.399999999999999702e-04,5.099999999999999282e-04,-1.800000000000000113e-04,-6.599999999999999964e-04,1.800000000000000113e-04,3.000000000000000000e+00,5.000000000000000000e+00
1.208900000000000000e+04,2.700000000000000035e-04,0.000000000000000000e+00,1.000000000000000082e-05,3.399999999999999702e-04,5.099999999999999282e-04,-1.800000000000000113e-04,-6.599999999999999964e-04,1.800000000000000113e-04,3.000000000000000000e+00,5.000000000000000000e+00
1.209000000000000000e+04,2.700000000000000035e-04,0.000000000000000000e+00,1.000000000000000082e-05,3.399999999999999702e-04,5.099999999999999282e-04,-1.800000000000000113e-04,-6.599999999999999964e-04,1.800000000000000113e-04,3.000000000000000000e+00,5.000000000000000000e+00
1.209100000000000000e+04,2.700000000000000035e-04,0.000000000000000000e+00,1.000000000000000082e-05,3.399999999999999702e-04,5.099999999999999282e-04,-1.800000000000000113e-04,-6.599999999999999964e-04,1.800000000000000113e-04,3.000000000000000000e+00,5.000000000000000000e+00
1.209200000000000000e+04,2.700000000000000035e-04,0.000000000000000000e+00,1.000000000000000082e-05,3.399999999999999702e-04,5.099999999999999282e-04,-1.800000000000000113e-04,-6.599999999999999964e-04,1.800000000000000113e-04,3.000000000000000000e+00,5.000000000000000000e+00
1.209300000000000000e+04,2.700000000000000035e-04,0.000000000000000000e+00,1.000000000000000082e-05,3.399999999999999702e-04,5.099999999999999282e-04,-1.800000000000000113e-04,-6.599999999999999964e-04,1.800000000000000113e-04,3.000000000000000000e+00,5.000000000000000000e+00
1.209400000000000000e+04,2.700000000000000035e-04,0.000000000000000000e+00,1.000000000000000082e-05,3.399999999999999702e-04,5.099999999999999282e-04,-1.800000000000000113e-04,-6.599999999999999964e-04,1.800000000000000113e-04,3.000000000000000000e+00,5.000000000000000000e+00
1.209500000000000000e+04,2.700000000000000035e-04,0.000000000000000000e+00,1.000000000000000082e-05,3.399999999999999702e-04,5.099999999999999282e-04,-1.800000000000000113e-04,-6.599999999999999964e-04,1.800000000000000113e-04,3.000000000000000000e+00,5.000000000000000000e+00
1.209600000000000000e+04,1.699999999999999851e-04,5.999999999999999474e-05,-2.000000000000000164e-05,1.399999999999999877e-04,7.700000000000000681e-04,1.199999999999999895e-04,1.300000000000000157e-04,3.799999999999999667e-04,3.000000000000000000e+00,5.000000000000000000e+00
1.209700000000000000e+04,1.699999999999999851e-04,5.999999999999999474e-05,-2.000000000000000164e-05,1.399999999999999877e-04,7.700000000000000681e-04,1.199999999999999895e-04,1.300000000000000157e-04,3.799999999999999667e-04,3.000000000000000000e+00,5.000000000000000000e+00
1.209800000000000000e+04,4.400000000000000157e-04,-2.999999999999999737e-05,-5.000000000000000240e-05,-1.199999999999999895e-04,8.000000000000000654e-05,-1.000000000000000082e-05,-1.699999999999999851e-04,4.899999999999999842e-04,3.000000000000000000e+00,5.000000000000000000e+00
1.209900000000000000e+04,4.400000000000000157e-04,-2.999999999999999737e-05,-5.000000000000000240e-05,-1.199999999999999895e-04,8.000000000000000654e-05,-1.000000000000000082e-05,-1.699999999999999851e-04,4.899999999999999842e-04,3.000000000000000000e+00,5.000000000000000000e+00
1.210000000000000000e+04,4.400000000000000157e-04,-2.999999999999999737e-05,-5.000000000000000240e-05,-1.199999999999999895e-04,8.000000000000000654e-05,-1.000000000000000082e-05,-1.699999999999999851e-04,4.899999999999999842e-04,3.000000000000000000e+00,5.000000000000000000e+00
1.210100000000000000e+04,4.400000000000000157e-04,-2.999999999999999737e-05,-5.000000000000000240e-05,-1.199999999999999895e-04,8.000000000000000654e-05,-1.000000000000000082e-05,-1.699999999999999851e-04,4.899999999999999842e-04,3.000000000000000000e+00,5.000000000000000000e+00
1.210200000000000000e+04,4.400000000000000157e-04,-2.999999999999999737e-05,-5.000000000000000240e-05,-1.199999999999999895e-04,8.000000000000000654e-05,-1.000000000000000082e-05,-1.699999999999999851e-04,4.899999999999999842e-04,3.000000000000000000e+00,5.000000000000000000e+00
1.210300000000000000e+04,4.400000000000000157e-04,-2.999999999999999737e-05,-5.000000000000000240e-05,-1.199999999999999895e-04,8.000000000000000654e-05,-1.000000000000000082e-05,-1.699999999999999851e-04,4.899999999999999842e-04,3.000000000000000000e+00,5.000000000000000000e+00
1.210400000000000000e+04,4.400000000000000157e-04,-2.999999999999999737e-05,-5.000000000000000240e-05,-1.199999999999999895e-04,8.000000000000000654e-05,-1.000000000000000082e-05,-1.699999999999999851e-04,4.899999999999999842e-04,3.000000000000000000e+00,5.000000000000000000e+00
1.210500000000000000e+04,4.400000000000000157e-04,-2.999999999999999737e-05,-5.000000000000000240e-05,-1.199999999999999895e-04,8.000000000000000654e-05,-1.000000000000000082e-05,-1.699999999999999851e-04,4.899999999999999842e-04,3.000000000000000000e+00,5.000000000000000000e+00
1.210600000000000000e+04,4.400000000000000157e-04,-2.999999999999999737e-05,-5.000000000000000240e-05,-1.199999999999999895e-04,8.000000000000000654e-05,-1.000000000000000082e-05,-1.699999999999999851e-04,4.899999999999999842e-04,3.000000000000000000e+00,5.000000000000000000e+00
1.210700000000000000e+04,4.400000000000000157e-04,-2.999999999999999737e-05,-5.000000000000000240e-05,-1.199999999999999895e-04,8.000000000000000654e-05,-1.000000000000000082e-05,-1.699999999999999851e-04,4.899999999999999842e-04,3.000000000000000000e+00,5.000000000000000000e+00
1.210800000000000000e+04,4.400000000000000157e-04,-2.999999999999999737e-05,-5.000000000000000240e-05,-1.199999999999999895e-04,8.000000000000000654e-05,-1.000000000000000082e-05,-1.699999999999999851e-04,4.899999999999999842e-04,3.000000000000000000e+00,5.000000000000000000e+00
1.210900000000000000e+04,4.400000000000000157e-04,-2.999999999999999737e-05,-5.000000000000000240e-05,-1.199999999999999895e-04,8.000000000000000654e-05,-1.000000000000000082e-05,-1.699999999999999851e-04,4.899999999999999842e-04,3.000000000000000000e+00,5.000000000000000000e+00
1.211000000000000000e+04,4.400000000000000157e-04,-2.999999999999999737e-05,-5.000000000000000240e-05,-1.199999999999999895e-04,8.000000000000000654e-05,-1.000000000000000082e-05,-1.699999999999999851e-04,4.899999999999999842e-04,3.000000000000000000e+00,5.000000000000000000e+00
1.211100000000000000e+04,4.400000000000000157e-04,-2.999999999999999737e-05,-5.000000000000000240e-05,-1.199999999999999895e-04,8.000000000000000654e-05,-1.000000000000000082e-05,-1.699999999999999851e-04,4.899999999999999842e-04,3.000000000000000000e+00,5.000000000000000000e+00
1.211200000000000000e+04,4.400000000000000157e-04,-2.999999999999999737e-05,-5.000000000000000240e-05,-1.199999999999999895e-04,8.000000000000000654e-05,-1.000000000000000082e-05,-1.699999999999999851e-04,4.899999999999999842e-04,3.000000000000000000e+00,5.000000000000000000e+00
1.211300000000000000e+04,4.400000000000000157e-04,-2.999999999999999737e-05,-5.000000000000000240e-05,-1.199999999999999895e-04,8.000000000000000654e-05,-1.000000000000000082e-05,-1.699999999999999851e-04,4.899999999999999842e-04,3.000000000000000000e+00,5.000000000000000000e+00
1.211400000000000000e+04,4.400000000000000157e-04,-2.999999999999999737e-05,-5.000000000000000240e-05,-1.199999999999999895e-04,8.000000000000000654e-05,-1.000000000000000082e-05,-1.699999999999999851e-04,4.899999999999999842e-04,3.000000000000000000e+00,5.000000000000000000e+00
1.211500000000000000e+04,4.400000000000000157e-04,-2.999999999999999737e-05,-5.000000000000000240e-05,-1.199999999999999895e-04,8.000000000000000654e-05,-1.000000000000000082e-05,-1.699999999999999851e-04,4.899999999999999842e-04,3.000000000000000000e+00,5.000000000000000000e+00
1.211600000000000000e+04,4.400000000000000157e-04,-2.999999999999999737e-05,-5.000000000000000240e-05,-1.199999999999999895e-04,8.000000000000000654e-05,-1.000000000000000082e-05,-1.699999999999999851e-04,4.899999999999999842e-04,3.000000000000000000e+00,5.000000000000000000e+00
1.211700000000000000e+04,4.400000000000000157e-04,-2.999999999999999737e-05,-5.000000000000000240e-05,-1.199999999999999895e-04,8.000000000000000654e-05,-1.000000000000000082e-05,-1.699999999999999851e-04,4.899999999999999842e-04,3.000000000000000000e+00,5.000000000000000000e+00
1.211800000000000000e+04,4.400000000000000157e-04,-2.999999999999999737e-05,-5.000000000000000240e-05,-1.199999999999999895e-04,8.000000000000000654e-05,-1.000000000000000082e-05,-1.699999999999999851e-04,4.899999999999999842e-04,3.000000000000000000e+00,5.000000000000000000e+00
1.211900000000000000e+04,2.700000000000000035e-04,2.000000000000000096e-04,1.399999999999999877e-04,6.999999999999999387e-05,4.400000000000000157e-04,2.999999999999999737e-05,-5.299999999999999807e-04,-1.199999999999999895e-04,3.000000000000000000e+00,5.000000000000000000e+00
1.212000000000000000e+04,1.600000000000000131e-04,-4.000000000000000327e-05,-6.999999999999999387e-05,-2.100000000000000087e-04,-5.800000000000000034e-04,-1.899999999999999834e-04,-3.699999999999999947e-04,1.800000000000000113e-04,3.000000000000000000e+00,5.000000000000000000e+00
1.212100000000000000e+04,1.600000000000000131e-04,-4.000000000000000327e-05,-6.999999999999999387e-05,-2.100000000000000087e-04,-5.800000000000000034e-04,-1.899999999999999834e-04,-3.699999999999999947e-04,1.800000000000000113e-04,3.000000000000000000e+00,5.000000000000000000e+00
1.212200000000000000e+04,1.600000000000000131e-04,-4.000000000000000327e-05,-6.999999999999999387e-05,-2.100000000000000087e-04,-5.800000000000000034e-04,-1.899999999999999834e-04,-3.699999999999999947e-04,1.800000000000000113e-04,3.000000000000000000e+00,5.000000000000000000e+00
1.212300000000000000e+04,1.600000000000000131e-04,-4.000000000000000327e-05,-6.999999999999999387e-05,-2.100000000000000087e-04,-5.800000000000000034e-04,-1.899999999999999834e-04,-3.699999999999999947e-04,1.800000000000000113e-04,3.000000000000000000e+00,5.000000000000000000e+00
1.212400000000000000e+04,1.600000000000000131e-04,-4.000000000000000327e-05,-6.999999999999999387e-05,-2.100000000000000087e-04,-5.800000000000000034e-04,-1.899999999999999834e-04,-3.699999999999999947e-04,1.800000000000000113e-04,3.000000000000000000e+00,5.000000000000000000e+00
1.212500000000000000e+04,1.600000000000000131e-04,-4.000000000000000327e-05,-6.999999999999999387e-05,-2.100000000000000087e-04,-5.800000000000000034e-04,-1.899999999999999834e-04,-3.699999999999999947e-04,1.800000000000000113e-04,3.000000000000000000e+00,5.000000000000000000e+00
1.212600000000000000e+04,1.600000000000000131e-04,-4.000000000000000327e-05,-6.999999999999999387e-05,-2.100000000000000087e-04,-5.800000000000000034e-04,-1.899999999999999834e-04,-3.699999999999999947e-04,1.800000000000000113e-04,3.000000000000000000e+00,5.000000000000000000e+00
1.212700000000000000e+04,1.600000000000000131e-04,-4.000000000000000327e-05,-6.999999999999999387e-05,-2.100000000000000087e-04,-5.800000000000000034e-04,-1.899999999999999834e-04,-3.699999999999999947e-04,1.800000000000000113e-04,3.000000000000000000e+00,5.000000000000000000e+00
1.212800000000000000e+04,1.600000000000000131e-04,-4.000000000000000327e-05,-6.999999999999999387e-05,-2.100000000000000087e-04,-5.800000000000000034e-04,-1.899999999999999834e-04,-3.699999999999999947e-04,1.800000000000000113e-04,3.000000000000000000e+00,5.000000000000000000e+00
1.212900000000000000e+04,1.600000000000000131e-04,-4.000000000000000327e-05,-6.999999999999999387e-05,-2.100000000000000087e-04,-5.800000000000000034e-04,-1.899999999999999834e-04,-3.699999999999999947e-04,1.800000000000000113e-04,3.000000000000000000e+00,5.000000000000000000e+00
1.213000000000000000e+04,1.600000000000000131e-04,-4.000000000000000327e-05,-6.999999999999999387e-05,-2.100000000000000087e-04,-5.800000000000000034e-04,-1.899999999999999834e-04,-3.699999999999999947e-04,1.800000000000000113e-04,3.000000000000000000e+00,5.000000000000000000e+00
1.213100000000000000e+04,1.600000000000000131e-04,-4.000000000000000327e-05,-6.999999999999999387e-05,-2.100000000000000087e-04,-5.800000000000000034e-04,-1.899999999999999834e-04,-3.699999999999999947e-04,1.800000000000000113e-04,3.000000000000000000e+00,5.000000000000000000e+00
1.213200000000000000e+04,-2.999999999999999737e-04,-4.000000000000000327e-05,4.000000000000000327e-05,4.299999999999999894e-04,5.999999999999999474e-04,-2.999999999999999737e-05,2.000000000000000096e-04,-4.299999999999999894e-04,3.000000000000000000e+00,5.000000000000000000e+00
1.213300000000000000e+04,-2.999999999999999737e-04,-4.000000000000000327e-05,4.000000000000000327e-05,4.299999999999999894e-04,5.999999999999999474e-04,-2.999999999999999737e-05,2.000000000000000096e-04,-4.299999999999999894e-04,3.000000000000000000e+00,5.000000000000000000e+00
1.213400000000000000e+04,-2.999999999999999737e-04,-4.000000000000000327e-05,4.000000000000000327e-05,4.299999999999999894e-04,5.999999999999999474e-04,-2.999999999999999737e-05,2.000000000000000096e-04,-4.299999999999999894e-04,3.000000000000000000e+00,5.000000000000000000e+00
1.213500000000000000e+04,-2.999999999999999737e-04,-4.000000000000000327e-05,4.000000000000000327e-05,4.299999999999999894e-04,5.999999999999999474e-04,-2.999999999999999737e-05,2.000000000000000096e-04,-4.299999999999999894e-04,3.000000000000000000e+00,5.000000000000000000e+00
1.213600000000000000e+04,-2.999999999999999737e-04,-4.000000000000000327e-05,4.000000000000000327e-05,4.299999999999999894e-04,5.999999999999999474e-04,-2.999999999999999737e-05,2.000000000000000096e-04,-4.299999999999999894e-04,3.000000000000000000e+00,5.000000000000000000e+00
1.213800000000000000e+04,-2.999999999999999737e-04,-4.000000000000000327e-05,4.000000000000000327e-05,4.299999999999999894e-04,5.999999999999999474e-04,-2.999999999999999737e-05,2.000000000000000096e-04,-4.299999999999999894e-04,3.000000000000000000e+00,5.000000000000000000e+00
1.213900000000000000e+04,-2.999999999999999737e-04,-4.000000000000000327e-05,4.000000000000000327e-05,4.299999999999999894e-04,5.999999999999999474e-04,-2.999999999999999737e-05,2.000000000000000096e-04,-4.299999999999999894e-04,3.000000000000000000e+00,5.000000000000000000e+00
1.214000000000000000e+04,-2.999999999999999737e-04,-4.000000000000000327e-05,4.000000000000000327e-05,4.299999999999999894e-04,5.999999999999999474e-04,-2.999999999999999737e-05,2.000000000000000096e-04,-4.299999999999999894e-04,3.000000000000000000e+00,5.000000000000000000e+00
1.214100000000000000e+04,-4.000000000000000327e-05,6.999999999999999387e-05,-2.999999999999999737e-05,-9.000000000000000567e-05,1.899999999999999834e-04,6.999999999999999387e-05,-3.099999999999999999e-04,-2.600000000000000314e-04,3.000000000000000000e+00,5.000000000000000000e+00
1.214200000000000000e+04,-4.000000000000000327e-05,6.999999999999999387e-05,-2.999999999999999737e-05,-9.000000000000000567e-05,1.899999999999999834e-04,6.999999999999999387e-05,-3.099999999999999999e-04,-2.600000000000000314e-04,3.000000000000000000e+00,5.000000000000000000e+00
1.214300000000000000e+04,-4.000000000000000327e-05,6.999999999999999387e-05,-2.999999999999999737e-05,-9.000000000000000567e-05,1.899999999999999834e-04,6.999999999999999387e-05,-3.099999999999999999e-04,-2.600000000000000314e-04,3.000000000000000000e+00,5.000000000000000000e+00
1.214400000000000000e+04,-4.000000000000000327e-05,6.999999999999999387e-05,-2.999999999999999737e-05,-9.000000000000000567e-05,1.899999999999999834e-04,6.999999999999999387e-05,-3.099999999999999999e-04,-2.600000000000000314e-04,3.000000000000000000e+00,5.000000000000000000e+00
1.214500000000000000e+04,-4.000000000000000327e-05,6.999999999999999387e-05,-2.999999999999999737e-05,-9.000000000000000567e-05,1.899999999999999834e-04,6.999999999999999387e-05,-3.099999999999999999e-04,-2.600000000000000314e-04,3.000000000000000000e+00,5.000000000000000000e+00
1.214600000000000000e+04,-4.000000000000000327e-05,6.999999999999999387e-05,-2.999999999999999737e-05,-9.000000000000000567e-05,1.899999999999999834e-04,6.999999999999999387e-05,-3.099999999999999999e-04,-2.600000000000000314e-04,3.000000000000000000e+00,5.000000000000000000e+00
1.214700000000000000e+04,-4.000000000000000327e-05,6.999999999999999387e-05,-2.999999999999999737e-05,-9.000000000000000567e-05,1.899999999999999834e-04,6.999999999999999387e-05,-3.099999999999999999e-04,-2.600000000000000314e-04,3.000000000000000000e+00,5.000000000000000000e+00
1.214800000000000000e+04,-4.000000000000000327e-05,6.999999999999999387e-05,-2.999999999999999737e-05,-9.000000000000000567e-05,1.899999999999999834e-04,6.999999999999999387e-05,-3.099999999999999999e-04,-2.600000000000000314e-04,3.000000000000000000e+00,5.000000000000000000e+00
1.214900000000000000e+04,-4.000000000000000327e-05,6.999999999999999387e-05,-2.999999999999999737e-05,-9.000000000000000567e-05,1.899999999999999834e-04,6.999999999999999387e-05,-3.099999999999999999e-04,-2.600000000000000314e-04,3.000000000000000000e+00,5.000000000000000000e+00
1.215000000000000000e+04,-4.000000000000000327e-05,6.999999999999999387e-05,-2.999999999999999737e-05,-9.000000000000000567e-05,1.899999999999999834e-04,6.999999999999999387e-05,-3.099999999999999999e-04,-2.600000000000000314e-04,3.000000000000000000e+00,5.000000000000000000e+00
1.215100000000000000e+04,-4.000000000000000327e-05,6.999999999999999387e-05,-2.999999999999999737e-05,-9.000000000000000567e-05,1.899999999999999834e-04,6.999999999999999387e-05,-3.099999999999999999e-04,-2.600000000000000314e-04,3.000000000000000000e+00,5.000000000000000000e+00
1.215200000000000000e+04,-4.000000000000000327e-05,6.999999999999999387e-05,-2.999999999999999737e-05,-9.000000000000000567e-05,1.899999999999999834e-04,6.999999999999999387e-05,-3.099999999999999999e-04,-2.600000000000000314e-04,3.000000000000000000e+00,5.000000000000000000e+00
1.215300000000000000e+04,-4.000000000000000327e-05,6.999999999999999387e-05,-2.999999999999999737e-05,-9.000000000000000567e-05,1.899999999999999834e-04,6.999999999999999387e-05,-3.099999999999999999e-04,-2.600000000000000314e-04,3.000000000000000000e+00,5.000000000000000000e+00
1.215400000000000000e+04,-4.000000000000000327e-05,6.999999999999999387e-05,-2.999999999999999737e-05,-9.000000000000000567e-05,1.899999999999999834e-04,6.999999999999999387e-05,-3.099999999999999999e-04,-2.600000000000000314e-04,3.000000000000000000e+00,5.000000000000000000e+00
1.215500000000000000e+04,-4.000000000000000327e-05,6.999999999999999387e-05,-2.999999999999999737e-05,-9.000000000000000567e-05,1.899999999999999834e-04,6.999999999999999387e-05,-3.099999999999999999e-04,-2.600000000000000314e-04,3.000000000000000000e+00,5.000000000000000000e+00
1.215600000000000000e+04,-4.000000000000000327e-05,6.999999999999999387e-05,-2.999999999999999737e-05,-9.000000000000000567e-05,1.899999999999999834e-04,6.999999999999999387e-05,-3.099999999999999999e-04,-2.600000000000000314e-04,3.000000000000000000e+00,5.000000000000000000e+00
1.215700000000000000e+04,-4.000000000000000327e-05,6.999999999999999387e-05,-2.999999999999999737e-05,-9.000000000000000567e-05,1.899999999999999834e-04,6.999999999999999387e-05,-3.099999999999999999e-04,-2.600000000000000314e-04,3.000000000000000000e+00,5.000000000000000000e+00
1.215800000000000000e+04,-4.000000000000000327e-05,6.999999999999999387e-05,-2.999999999999999737e-05,-9.000000000000000567e-05,1.899999999999999834e-04,6.999999999999999387e-05,-3.099999999999999999e-04,-2.600000000000000314e-04,3.000000000000000000e+00,5.000000000000000000e+00
1.215900000000000000e+04,-4.000000000000000327e-05,6.999999999999999387e-05,-2.999999999999999737e-05,-9.000000000000000567e-05,1.899999999999999834e-04,6.999999999999999387e-05,-3.099999999999999999e-04,-2.600000000000000314e-04,3.000000000000000000e+00,5.000000000000000000e+00
1.216000000000000000e+04,-4.000000000000000327e-05,6.999999999999999387e-05,-2.999999999999999737e-05,-9.000000000000000567e-05,1.899999999999999834e-04,6.999999999999999387e-05,-3.099999999999999999e-04,-2.600000000000000314e-04,3.000000000000000000e+00,5.000000000000000000e+00
1.216100000000000000e+04,-4.000000000000000327e-05,6.999999999999999387e-05,-2.999999999999999737e-05,-9.000000000000000567e-05,1.899999999999999834e-04,6.999999999999999387e-05,-3.099999999999999999e-04,-2.600000000000000314e-04,3.000000000000000000e+00,5.000000000000000000e+00
1.216200000000000000e+04,-4.000000000000000327e-05,6.999999999999999387e-05,-2.999999999999999737e-05,-9.000000000000000567e-05,1.899999999999999834e-04,6.999999999999999387e-05,-3.099999999999999999e-04,-2.600000000000000314e-04,3.000000000000000000e+00,5.000000000000000000e+00
1.216300000000000000e+04,-4.000000000000000327e-05,6.999999999999999387e-05,-2.999999999999999737e-05,-9.000000000000000567e-05,1.899999999999999834e-04,6.999999999999999387e-05,-3.099999999999999999e-04,-2.600000000000000314e-04,3.000000000000000000e+00,5.000000000000000000e+00
1.216400000000000000e+04,-6.999999999999999387e-05,-6.999999999999999387e-05,-2.999999999999999737e-05,3.399999999999999702e-04,3.600000000000000227e-04,-2.000000000000000164e-05,-2.799999999999999755e-04,-1.699999999999999851e-04,3.000000000000000000e+00,5.000000000000000000e+00
1.216500000000000000e+04,2.999999999999999737e-05,9.000000000000000567e-05,1.000000000000000048e-04,1.000000000000000048e-04,3.200000000000000262e-04,2.299999999999999799e-04,2.500000000000000052e-04,6.099999999999999737e-04,3.000000000000000000e+00,5.000000000000000000e+00
1.216600000000000000e+04,2.999999999999999737e-05,9.000000000000000567e-05,1.000000000000000048e-04,1.000000000000000048e-04,3.200000000000000262e-04,2.299999999999999799e-04,2.500000000000000052e-04,6.099999999999999737e-04,3.000000000000000000e+00,5.000000000000000000e+00
1.216700000000000000e+04,2.999999999999999737e-05,9.000000000000000567e-05,1.000000000000000048e-04,1.000000000000000048e-04,3.200000000000000262e-04,2.299999999999999799e-04,2.500000000000000052e-04,6.099999999999999737e-04,3.000000000000000000e+00,5.000000000000000000e+00
1.216800000000000000e+04,2.999999999999999737e-05,9.000000000000000567e-05,1.000000000000000048e-04,1.000000000000000048e-04,3.200000000000000262e-04,2.299999999999999799e-04,2.500000000000000052e-04,6.099999999999999737e-04,3.000000000000000000e+00,5.000000000000000000e+00
1.216900000000000000e+04,2.999999999999999737e-05,9.000000000000000567e-05,1.000000000000000048e-04,1.000000000000000048e-04,3.200000000000000262e-04,2.299999999999999799e-04,2.500000000000000052e-04,6.099999999999999737e-04,3.000000000000000000e+00,5.000000000000000000e+00
1.217000000000000000e+04,2.999999999999999737e-05,9.000000000000000567e-05,1.000000000000000048e-04,1.000000000000000048e-04,3.200000000000000262e-04,2.299999999999999799e-04,2.500000000000000052e-04,6.099999999999999737e-04,3.000000000000000000e+00,5.000000000000000000e+00
1.217100000000000000e+04,2.999999999999999737e-05,9.000000000000000567e-05,1.000000000000000048e-04,1.000000000000000048e-04,3.200000000000000262e-04,2.299999999999999799e-04,2.500000000000000052e-04,6.099999999999999737e-04,3.000000000000000000e+00,5.000000000000000000e+00
1.217200000000000000e+04,2.999999999999999737e-05,9.000000000000000567e-05,1.000000000000000048e-04,1.000000000000000048e-04,3.200000000000000262e-04,2.299999999999999799e-04,2.500000000000000052e-04,6.099999999999999737e-04,3.000000000000000000e+00,5.000000000000000000e+00
1.217300000000000000e+04,2.999999999999999737e-05,9.000000000000000567e-05,1.000000000000000048e-04,1.000000000000000048e-04,3.200000000000000262e-04,2.299999999999999799e-04,2.500000000000000052e-04,6.099999999999999737e-04,3.000000000000000000e+00,5.000000000000000000e+00
1.217400000000000000e+04,2.999999999999999737e-05,9.000000000000000567e-05,1.000000000000000048e-04,1.000000000000000048e-04,3.200000000000000262e-04,2.299999999999999799e-04,2.500000000000000052e-04,6.099999999999999737e-04,3.000000000000000000e+00,5.000000000000000000e+00
1.217500000000000000e+04,2.999999999999999737e-05,9.000000000000000567e-05,1.000000000000000048e-04,1.000000000000000048e-04,3.200000000000000262e-04,2.299999999999999799e-04,2.500000000000000052e-04,6.099999999999999737e-04,3.000000000000000000e+00,5.000000000000000000e+00
1.217600000000000000e+04,2.999999999999999737e-05,9.000000000000000567e-05,1.000000000000000048e-04,1.000000000000000048e-04,3.200000000000000262e-04,2.299999999999999799e-04,2.500000000000000052e-04,6.099999999999999737e-04,3.000000000000000000e+00,5.000000000000000000e+00
1.217700000000000000e+04,2.999999999999999737e-05,9.000000000000000567e-05,1.000000000000000048e-04,1.000000000000000048e-04,3.200000000000000262e-04,2.299999999999999799e-04,2.500000000000000052e-04,6.099999999999999737e-04,3.000000000000000000e+00,5.000000000000000000e+00
1.217800000000000000e+04,2.999999999999999737e-05,9.000000000000000567e-05,1.000000000000000048e-04,1.000000000000000048e-04,3.200000000000000262e-04,2.299999999999999799e-04,2.500000000000000052e-04,6.099999999999999737e-04,3.000000000000000000e+00,5.000000000000000000e+00
1.217900000000000000e+04,2.200000000000000078e-04,-1.199999999999999895e-04,-1.100000000000000039e-04,-1.100000000000000039e-04,-2.999999999999999737e-04,1.000000000000000082e-05,-3.600000000000000227e-04,1.300000000000000157e-04,3.000000000000000000e+00,5.000000000000000000e+00
1.218000000000000000e+04,-6.900000000000000751e-04,0.000000000000000000e+00,-2.000000000000000164e-05,-1.699999999999999851e-04,-3.299999999999999982e-04,1.499999999999999869e-04,4.799999999999999580e-04,-1.499999999999999869e-04,3.000000000000000000e+00,5.000000000000000000e+00
1.218100000000000000e+04,-6.900000000000000751e-04,0.000000000000000000e+00,-2.000000000000000164e-05,-1.699999999999999851e-04,-3.299999999999999982e-04,1.499999999999999869e-04,4.799999999999999580e-04,-1.499999999999999869e-04,3.000000000000000000e+00,5.000000000000000000e+00
1.218200000000000000e+04,-6.900000000000000751e-04,0.000000000000000000e+00,-2.000000000000000164e-05,-1.699999999999999851e-04,-3.299999999999999982e-04,1.499999999999999869e-04,4.799999999999999580e-04,-1.499999999999999869e-04,3.000000000000000000e+00,5.000000000000000000e+00
1.218300000000000000e+04,-6.900000000000000751e-04,0.000000000000000000e+00,-2.000000000000000164e-05,-1.699999999999999851e-04,-3.299999999999999982e-04,1.499999999999999869e-04,4.799999999999999580e-04,-1.499999999999999869e-04,3.000000000000000000e+00,5.000000000000000000e+00
1.218400000000000000e+04,-6.900000000000000751e-04,0.000000000000000000e+00,-2.000000000000000164e-05,-1.699999999999999851e-04,-3.299999999999999982e-04,1.499999999999999869e-04,4.799999999999999580e-04,-1.499999999999999869e-04,3.000000000000000000e+00,5.000000000000000000e+00
1.218500000000000000e+04,-6.900000000000000751e-04,0.000000000000000000e+00,-2.000000000000000164e-05,-1.699999999999999851e-04,-3.299999999999999982e-04,1.499999999999999869e-04,4.799999999999999580e-04,-1.499999999999999869e-04,3.000000000000000000e+00,5.000000000000000000e+00
1.218600000000000000e+04,-6.900000000000000751e-04,0.000000000000000000e+00,-2.000000000000000164e-05,-1.699999999999999851e-04,-3.299999999999999982e-04,1.499999999999999869e-04,4.799999999999999580e-04,-1.499999999999999869e-04,3.000000000000000000e+00,5.000000000000000000e+00
1.218800000000000000e+04,-6.900000000000000751e-04,0.000000000000000000e+00,-2.000000000000000164e-05,-1.699999999999999851e-04,-3.299999999999999982e-04,1.499999999999999869e-04,4.799999999999999580e-04,-1.499999999999999869e-04,3.000000000000000000e+00,5.000000000000000000e+00
1.218900000000000000e+04,-6.900000000000000751e-04,0.000000000000000000e+00,-2.000000000000000164e-05,-1.699999999999999851e-04,-3.299999999999999982e-04,1.499999999999999869e-04,4.799999999999999580e-04,-1.499999999999999869e-04,3.000000000000000000e+00,5.000000000000000000e+00
1.219000000000000000e+04,-6.900000000000000751e-04,0.000000000000000000e+00,-2.000000000000000164e-05,-1.699999999999999851e-04,-3.299999999999999982e-04,1.499999999999999869e-04,4.799999999999999580e-04,-1.499999999999999869e-04,3.000000000000000000e+00,5.000000000000000000e+00
1.219100000000000000e+04,-6.900000000000000751e-04,0.000000000000000000e+00,-2.000000000000000164e-05,-1.699999999999999851e-04,-3.299999999999999982e-04,1.499999999999999869e-04,4.799999999999999580e-04,-1.499999999999999869e-04,3.000000000000000000e+00,5.000000000000000000e+00
1.219200000000000000e+04,9.000000000000000567e-05,0.000000000000000000e+00,-1.000000000000000082e-05,-2.200000000000000078e-04,-1.000000000000000048e-04,2.999999999999999737e-05,-2.200000000000000078e-04,2.200000000000000078e-04,3.000000000000000000e+00,5.000000000000000000e+00
1.219300000000000000e+04,9.000000000000000567e-05,0.000000000000000000e+00,-1.000000000000000082e-05,-2.200000000000000078e-04,-1.000000000000000048e-04,2.999999999999999737e-05,-2.200000000000000078e-04,2.200000000000000078e-04,3.000000000000000000e+00,5.000000000000000000e+00
1.219400000000000000e+04,9.000000000000000567e-05,0.000000000000000000e+00,-1.000000000000000082e-05,-2.200000000000000078e-04,-1.000000000000000048e-04,2.999999999999999737e-05,-2.200000000000000078e-04,2.200000000000000078e-04,3.000000000000000000e+00,5.000000000000000000e+00
1.219500000000000000e+04,9.000000000000000567e-05,0.000000000000000000e+00,-1.000000000000000082e-05,-2.200000000000000078e-04,-1.000000000000000048e-04,2.999999999999999737e-05,-2.200000000000000078e-04,2.200000000000000078e-04,3.000000000000000000e+00,5.000000000000000000e+00
1.219600000000000000e+04,9.000000000000000567e-05,0.000000000000000000e+00,-1.000000000000000082e-05,-2.200000000000000078e-04,-1.000000000000000048e-04,2.999999999999999737e-05,-2.200000000000000078e-04,2.200000000000000078e-04,3.000000000000000000e+00,5.000000000000000000e+00
1.219700000000000000e+04,9.000000000000000567e-05,0.000000000000000000e+00,-1.000000000000000082e-05,-2.200000000000000078e-04,-1.000000000000000048e-04,2.999999999999999737e-05,-2.200000000000000078e-04,2.200000000000000078e-04,3.000000000000000000e+00,5.000000000000000000e+00
1.219800000000000000e+04,9.000000000000000567e-05,0.000000000000000000e+00,-1.000000000000000082e-05,-2.200000000000000078e-04,-1.000000000000000048e-04,2.999999999999999737e-05,-2.200000000000000078e-04,2.200000000000000078e-04,3.000000000000000000e+00,5.000000000000000000e+00
1.219900000000000000e+04,9.000000000000000567e-05,0.000000000000000000e+00,-1.000000000000000082e-05,-2.200000000000000078e-04,-1.000000000000000048e-04,2.999999999999999737e-05,-2.200000000000000078e-04,2.200000000000000078e-04,3.000000000000000000e+00,5.000000000000000000e+00
1.220000000000000000e+04,9.000000000000000567e-05,0.000000000000000000e+00,-1.000000000000000082e-05,-2.200000000000000078e-04,-1.000000000000000048e-04,2.999999999999999737e-05,-2.200000000000000078e-04,2.200000000000000078e-04,3.000000000000000000e+00,5.000000000000000000e+00
1.220100000000000000e+04,2.700000000000000035e-04,2.999999999999999737e-05,2.999999999999999737e-05,2.100000000000000087e-04,4.000000000000000192e-04,-2.299999999999999799e-04,-1.399999999999999877e-04,2.200000000000000078e-04,3.000000000000000000e+00,5.000000000000000000e+00
1.220200000000000000e+04,-2.000000000000000096e-04,-1.100000000000000039e-04,-1.000000000000000048e-04,-1.899999999999999834e-04,-9.300000000000000541e-04,-2.999999999999999737e-05,-2.100000000000000087e-04,-3.899999999999999929e-04,3.000000000000000000e+00,5.000000000000000000e+00
1.220300000000000000e+04,-2.000000000000000096e-04,-1.100000000000000039e-04,-1.000000000000000048e-04,-1.899999999999999834e-04,-9.300000000000000541e-04,-2.999999999999999737e-05,-2.100000000000000087e-04,-3.899999999999999929e-04,3.000000000000000000e+00,5.000000000000000000e+00
1.220400000000000000e+04,-2.000000000000000096e-04,-1.100000000000000039e-04,-1.000000000000000048e-04,-1.899999999999999834e-04,-9.300000000000000541e-04,-2.999999999999999737e-05,-2.100000000000000087e-04,-3.899999999999999929e-04,3.000000000000000000e+00,5.000000000000000000e+00
1.220500000000000000e+04,-2.000000000000000096e-04,-1.100000000000000039e-04,-1.000000000000000048e-04,-1.899999999999999834e-04,-9.300000000000000541e-04,-2.999999999999999737e-05,-2.100000000000000087e-04,-3.899999999999999929e-04,3.000000000000000000e+00,5.000000000000000000e+00
1.220600000000000000e+04,-2.000000000000000096e-04,-1.100000000000000039e-04,-1.000000000000000048e-04,-1.899999999999999834e-04,-9.300000000000000541e-04,-2.999999999999999737e-05,-2.100000000000000087e-04,-3.899999999999999929e-04,3.000000000000000000e+00,5.000000000000000000e+00
1.220700000000000000e+04,-2.000000000000000096e-04,-1.100000000000000039e-04,-1.000000000000000048e-04,-1.899999999999999834e-04,-9.300000000000000541e-04,-2.999999999999999737e-05,-2.100000000000000087e-04,-3.899999999999999929e-04,3.000000000000000000e+00,5.000000000000000000e+00
1.220800000000000000e+04,-2.000000000000000096e-04,-1.100000000000000039e-04,-1.000000000000000048e-04,-1.899999999999999834e-04,-9.300000000000000541e-04,-2.999999999999999737e-05,-2.100000000000000087e-04,-3.899999999999999929e-04,3.000000000000000000e+00,5.000000000000000000e+00
1.220900000000000000e+04,-2.000000000000000096e-04,-1.100000000000000039e-04,-1.000000000000000048e-04,-1.899999999999999834e-04,-9.300000000000000541e-04,-2.999999999999999737e-05,-2.100000000000000087e-04,-3.899999999999999929e-04,3.000000000000000000e+00,5.000000000000000000e+00
1.221000000000000000e+04,-2.000000000000000096e-04,-1.100000000000000039e-04,-1.000000000000000048e-04,-1.899999999999999834e-04,-9.300000000000000541e-04,-2.999999999999999737e-05,-2.100000000000000087e-04,-3.899999999999999929e-04,3.000000000000000000e+00,5.000000000000000000e+00
1.221100000000000000e+04,-2.000000000000000096e-04,-1.100000000000000039e-04,-1.000000000000000048e-04,-1.899999999999999834e-04,-9.300000000000000541e-04,-2.999999999999999737e-05,-2.100000000000000087e-04,-3.899999999999999929e-04,3.000000000000000000e+00,5.000000000000000000e+00
1.221200000000000000e+04,-2.000000000000000096e-04,-1.100000000000000039e-04,-1.000000000000000048e-04,-1.899999999999999834e-04,-9.300000000000000541e-04,-2.999999999999999737e-05,-2.100000000000000087e-04,-3.899999999999999929e-04,3.000000000000000000e+00,5.000000000000000000e+00
1.221300000000000000e+04,-2.000000000000000096e-04,-1.100000000000000039e-04,-1.000000000000000048e-04,-1.899999999999999834e-04,-9.300000000000000541e-04,-2.999999999999999737e-05,-2.100000000000000087e-04,-3.899999999999999929e-04,3.000000000000000000e+00,5.000000000000000000e+00
1.221400000000000000e+04,-2.000000000000000096e-04,-1.100000000000000039e-04,-1.000000000000000048e-04,-1.899999999999999834e-04,-9.300000000000000541e-04,-2.999999999999999737e-05,-2.100000000000000087e-04,-3.899999999999999929e-04,3.000000000000000000e+00,5.000000000000000000e+00
1.221500000000000000e+04,-2.000000000000000096e-04,-1.100000000000000039e-04,-1.000000000000000048e-04,-1.899999999999999834e-04,-9.300000000000000541e-04,-2.999999999999999737e-05,-2.100000000000000087e-04,-3.899999999999999929e-04,3.000000000000000000e+00,5.000000000000000000e+00
1.221600000000000000e+04,-3.699999999999999947e-04,-2.000000000000000164e-05,2.999999999999999737e-05,1.499999999999999869e-04,3.799999999999999667e-04,-9.000000000000000567e-05,-2.000000000000000096e-04,-7.500000000000000156e-04,3.000000000000000000e+00,5.000000000000000000e+00
1.221700000000000000e+04,-3.699999999999999947e-04,-2.000000000000000164e-05,2.999999999999999737e-05,1.499999999999999869e-04,3.799999999999999667e-04,-9.000000000000000567e-05,-2.000000000000000096e-04,-7.500000000000000156e-04,3.000000000000000000e+00,5.000000000000000000e+00
1.221800000000000000e+04,-2.799999999999999755e-04,-1.000000000000000082e-05,0.000000000000000000e+00,-9.000000000000000567e-05,3.200000000000000262e-04,3.899999999999999929e-04,4.099999999999999912e-04,-6.999999999999999929e-04,3.000000000000000000e+00,5.000000000000000000e+00
1.221900000000000000e+04,-2.799999999999999755e-04,-1.000000000000000082e-05,0.000000000000000000e+00,-9.000000000000000567e-05,3.200000000000000262e-04,3.899999999999999929e-04,4.099999999999999912e-04,-6.999999999999999929e-04,3.000000000000000000e+00,5.000000000000000000e+00
1.222000000000000000e+04,-2.799999999999999755e-04,-1.000000000000000082e-05,0.000000000000000000e+00,-9.000000000000000567e-05,3.200000000000000262e-04,3.899999999999999929e-04,4.099999999999999912e-04,-6.999999999999999929e-04,3.000000000000000000e+00,5.000000000000000000e+00
1.222100000000000000e+04,-2.799999999999999755e-04,-1.000000000000000082e-05,0.000000000000000000e+00,-9.000000000000000567e-05,3.200000000000000262e-04,3.899999999999999929e-04,4.099999999999999912e-04,-6.999999999999999929e-04,3.000000000000000000e+00,5.000000000000000000e+00
1.222200000000000000e+04,-2.799999999999999755e-04,-1.000000000000000082e-05,0.000000000000000000e+00,-9.000000000000000567e-05,3.200000000000000262e-04,3.899999999999999929e-04,4.099999999999999912e-04,-6.999999999999999929e-04,3.000000000000000000e+00,5.000000000000000000e+00
1.222300000000000000e+04,-2.799999999999999755e-04,-1.000000000000000082e-05,0.000000000000000000e+00,-9.000000000000000567e-05,3.200000000000000262e-04,3.899999999999999929e-04,4.099999999999999912e-04,-6.999999999999999929e-04,3.000000000000000000e+00,5.000000000000000000e+00
1.222400000000000000e+04,-2.799999999999999755e-04,-1.000000000000000082e-05,0.000000000000000000e+00,-9.000000000000000567e-05,3.200000000000000262e-04,3.899999999999999929e-04,4.099999999999999912e-04,-6.999999999999999929e-04,3.000000000000000000e+00,5.000000000000000000e+00
1.222500000000000000e+04,-2.799999999999999755e-04,-1.000000000000000082e-05,0.000000000000000000e+00,-9.000000000000000567e-05,3.200000000000000262e-04,3.899999999999999929e-04,4.099999999999999912e-04,-6.999999999999999929e-04,3.000000000000000000e+00,5.000000000000000000e+00
1.222600000000000000e+04,-2.799999999999999755e-04,-1.000000000000000082e-05,0.000000000000000000e+00,-9.000000000000000567e-05,3.200000000000000262e-04,3.899999999999999929e-04,4.099999999999999912e-04,-6.999999999999999929e-04,3.000000000000000000e+00,5.000000000000000000e+00
1.222700000000000000e+04,-2.799999999999999755e-04,-1.000000000000000082e-05,0.000000000000000000e+00,-9.000000000000000567e-05,3.200000000000000262e-04,3.899999999999999929e-04,4.099999999999999912e-04,-6.999999999999999929e-04,3.000000000000000000e+00,5.000000000000000000e+00
1.222800000000000000e+04,-2.799999999999999755e-04,-1.000000000000000082e-05,0.000000000000000000e+00,-9.000000000000000567e-05,3.200000000000000262e-04,3.899999999999999929e-04,4.099999999999999912e-04,-6.999999999999999929e-04,3.000000000000000000e+00,5.000000000000000000e+00
1.222900000000000000e+04,-2.799999999999999755e-04,-1.000000000000000082e-05,0.000000000000000000e+00,-9.000000000000000567e-05,3.200000000000000262e-04,3.899999999999999929e-04,4.099999999999999912e-04,-6.999999999999999929e-04,3.000000000000000000e+00,5.000000000000000000e+00
1.223000000000000000e+04,-2.799999999999999755e-04,-1.000000000000000082e-05,0.000000000000000000e+00,-9.000000000000000567e-05,3.200000000000000262e-04,3.899999999999999929e-04,4.099999999999999912e-04,-6.999999999999999929e-04,3.000000000000000000e+00,5.000000000000000000e+00
1.223100000000000000e+04,-2.799999999999999755e-04,-1.000000000000000082e-05,0.000000000000000000e+00,-9.000000000000000567e-05,3.200000000000000262e-04,3.899999999999999929e-04,4.099999999999999912e-04,-6.999999999999999929e-04,3.000000000000000000e+00,5.000000000000000000e+00
1.223200000000000000e+04,-2.799999999999999755e-04,-1.000000000000000082e-05,0.000000000000000000e+00,-9.000000000000000567e-05,3.200000000000000262e-04,3.899999999999999929e-04,4.099999999999999912e-04,-6.999999999999999929e-04,3.000000000000000000e+00,5.000000000000000000e+00
1.223300000000000000e+04,-2.799999999999999755e-04,-1.000000000000000082e-05,0.000000000000000000e+00,-9.000000000000000567e-05,3.200000000000000262e-04,3.899999999999999929e-04,4.099999999999999912e-04,-6.999999999999999929e-04,3.000000000000000000e+00,5.000000000000000000e+00
1.223400000000000000e+04,-2.799999999999999755e-04,-1.000000000000000082e-05,0.000000000000000000e+00,-9.000000000000000567e-05,3.200000000000000262e-04,3.899999999999999929e-04,4.099999999999999912e-04,-6.999999999999999929e-04,3.000000000000000000e+00,5.000000000000000000e+00
1.223500000000000000e+04,-2.799999999999999755e-04,-1.000000000000000082e-05,0.000000000000000000e+00,-9.000000000000000567e-05,3.200000000000000262e-04,3.899999999999999929e-04,4.099999999999999912e-04,-6.999999999999999929e-04,3.000000000000000000e+00,5.000000000000000000e+00
1.223700000000000000e+04,-2.799999999999999755e-04,-1.000000000000000082e-05,0.000000000000000000e+00,-9.000000000000000567e-05,3.200000000000000262e-04,3.899999999999999929e-04,4.099999999999999912e-04,-6.999999999999999929e-04,3.000000000000000000e+00,5.000000000000000000e+00
1.223900000000000000e+04,-1.399999999999999877e-04,-2.000000000000000164e-05,5.000000000000000240e-05,2.700000000000000035e-04,6.999999999999999387e-05,-2.999999999999999737e-05,1.000000000000000048e-04,-7.099999999999999107e-04,3.000000000000000000e+00,5.000000000000000000e+00
1.224000000000000000e+04,3.499999999999999964e-04,5.000000000000000240e-05,0.000000000000000000e+00,-4.000000000000000327e-05,4.000000000000000192e-04,1.499999999999999869e-04,2.100000000000000087e-04,2.799999999999999755e-04,3.000000000000000000e+00,5.000000000000000000e+00
1.224100000000000000e+04,3.499999999999999964e-04,5.000000000000000240e-05,0.000000000000000000e+00,-4.000000000000000327e-05,4.000000000000000192e-04,1.499999999999999869e-04,2.100000000000000087e-04,2.799999999999999755e-04,3.000000000000000000e+00,5.000000000000000000e+00
1.224200000000000000e+04,3.499999999999999964e-04,5.000000000000000240e-05,0.000000000000000000e+00,-4.000000000000000327e-05,4.000000000000000192e-04,1.499999999999999869e-04,2.100000000000000087e-04,2.799999999999999755e-04,3.000000000000000000e+00,5.000000000000000000e+00
1.224300000000000000e+04,3.499999999999999964e-04,5.000000000000000240e-05,0.000000000000000000e+00,-4.000000000000000327e-05,4.000000000000000192e-04,1.499999999999999869e-04,2.100000000000000087e-04,2.799999999999999755e-04,3.000000000000000000e+00,5.000000000000000000e+00
1.224400000000000000e+04,3.499999999999999964e-04,5.000000000000000240e-05,0.000000000000000000e+00,-4.000000000000000327e-05,4.000000000000000192e-04,1.499999999999999869e-04,2.100000000000000087e-04,2.799999999999999755e-04,3.000000000000000000e+00,5.000000000000000000e+00
1.224500000000000000e+04,2.000000000000000096e-04,-2.999999999999999737e-05,5.000000000000000240e-05,4.000000000000000327e-05,4.000000000000000327e-05,6.999999999999999387e-05,3.600000000000000227e-04,1.000000000000000021e-03,3.000000000000000000e+00,5.000000000000000000e+00
1.224600000000000000e+04,2.000000000000000096e-04,-2.999999999999999737e-05,5.000000000000000240e-05,4.000000000000000327e-05,4.000000000000000327e-05,6.999999999999999387e-05,3.600000000000000227e-04,1.000000000000000021e-03,3.000000000000000000e+00,5.000000000000000000e+00
1.224700000000000000e+04,2.000000000000000096e-04,-2.999999999999999737e-05,5.000000000000000240e-05,4.000000000000000327e-05,4.000000000000000327e-05,6.999999999999999387e-05,3.600000000000000227e-04,1.000000000000000021e-03,3.000000000000000000e+00,5.000000000000000000e+00
1.224800000000000000e+04,2.000000000000000096e-04,-2.999999999999999737e-05,5.000000000000000240e-05,4.000000000000000327e-05,4.000000000000000327e-05,6.999999999999999387e-05,3.600000000000000227e-04,1.000000000000000021e-03,3.000000000000000000e+00,5.000000000000000000e+00
1.224900000000000000e+04,2.000000000000000096e-04,-2.999999999999999737e-05,5.000000000000000240e-05,4.000000000000000327e-05,4.000000000000000327e-05,6.999999999999999387e-05,3.600000000000000227e-04,1.000000000000000021e-03,3.000000000000000000e+00,5.000000000000000000e+00
1.225000000000000000e+04,2.000000000000000096e-04,-2.999999999999999737e-05,5.000000000000000240e-05,4.000000000000000327e-05,4.000000000000000327e-05,6.999999999999999387e-05,3.600000000000000227e-04,1.000000000000000021e-03,3.000000000000000000e+00,5.000000000000000000e+00
1.225100000000000000e+04,2.000000000000000096e-04,-2.999999999999999737e-05,5.000000000000000240e-05,4.000000000000000327e-05,4.000000000000000327e-05,6.999999999999999387e-05,3.600000000000000227e-04,1.000000000000000021e-03,3.000000000000000000e+00,5.000000000000000000e+00
1.225200000000000000e+04,-3.600000000000000227e-04,-1.300000000000000157e-04,-9.000000000000000567e-05,-3.299999999999999982e-04,-4.599999999999999597e-04,-3.899999999999999929e-04,-5.000000000000000240e-05,-2.999999999999999737e-04,3.000000000000000000e+00,5.000000000000000000e+00
1.225400000000000000e+04,-3.600000000000000227e-04,-1.300000000000000157e-04,-9.000000000000000567e-05,-3.299999999999999982e-04,-4.599999999999999597e-04,-3.899999999999999929e-04,-5.000000000000000240e-05,-2.999999999999999737e-04,3.000000000000000000e+00,5.000000000000000000e+00
1.225500000000000000e+04,-3.600000000000000227e-04,-1.300000000000000157e-04,-9.000000000000000567e-05,-3.299999999999999982e-04,-4.599999999999999597e-04,-3.899999999999999929e-04,-5.000000000000000240e-05,-2.999999999999999737e-04,3.000000000000000000e+00,5.000000000000000000e+00
1.225600000000000000e+04,-3.600000000000000227e-04,-1.300000000000000157e-04,-9.000000000000000567e-05,-3.299999999999999982e-04,-4.599999999999999597e-04,-3.899999999999999929e-04,-5.000000000000000240e-05,-2.999999999999999737e-04,3.000000000000000000e+00,5.000000000000000000e+00
1.225700000000000000e+04,-3.600000000000000227e-04,-1.300000000000000157e-04,-9.000000000000000567e-05,-3.299999999999999982e-04,-4.599999999999999597e-04,-3.899999999999999929e-04,-5.000000000000000240e-05,-2.999999999999999737e-04,3.000000000000000000e+00,5.000000000000000000e+00
1.225800000000000000e+04,-3.600000000000000227e-04,-1.300000000000000157e-04,-9.000000000000000567e-05,-3.299999999999999982e-04,-4.599999999999999597e-04,-3.899999999999999929e-04,-5.000000000000000240e-05,-2.999999999999999737e-04,3.000000000000000000e+00,5.000000000000000000e+00
1.225900000000000000e+04,-3.600000000000000227e-04,-1.300000000000000157e-04,-9.000000000000000567e-05,-3.299999999999999982e-04,-4.599999999999999597e-04,-3.899999999999999929e-04,-5.000000000000000240e-05,-2.999999999999999737e-04,3.000000000000000000e+00,5.000000000000000000e+00
1.226000000000000000e+04,-3.600000000000000227e-04,-1.300000000000000157e-04,-9.000000000000000567e-05,-3.299999999999999982e-04,-4.599999999999999597e-04,-3.899999999999999929e-04,-5.000000000000000240e-05,-2.999999999999999737e-04,3.000000000000000000e+00,5.000000000000000000e+00
