6.360000000000000000e+04,4.799999999999999580e-04,2.000000000000000164e-05,-5.999999999999999474e-04,-8.400000000000000348e-04,2.399999999999999790e-04,1.000000000000000048e-04,-2.000000000000000164e-05,4.000000000000000327e-05,5.000000000000000000e+00,2.100000000000000000e+01
6.360100000000000000e+04,4.799999999999999580e-04,2.000000000000000164e-05,-5.999999999999999474e-04,-8.400000000000000348e-04,2.399999999999999790e-04,1.000000000000000048e-04,-2.000000000000000164e-05,4.000000000000000327e-05,5.000000000000000000e+00,2.100000000000000000e+01
6.360200000000000000e+04,4.799999999999999580e-04,2.000000000000000164e-05,-5.999999999999999474e-04,-8.400000000000000348e-04,2.399999999999999790e-04,1.000000000000000048e-04,-2.000000000000000164e-05,4.000000000000000327e-05,5.000000000000000000e+00,2.100000000000000000e+01
6.360400000000000000e+04,4.799999999999999580e-04,2.000000000000000164e-05,-5.999999999999999474e-04,-8.400000000000000348e-04,2.399999999999999790e-04,1.000000000000000048e-04,-2.000000000000000164e-05,4.000000000000000327e-05,5.000000000000000000e+00,2.100000000000000000e+01
6.360500000000000000e+04,4.799999999999999580e-04,2.000000000000000164e-05,-5.999999999999999474e-04,-8.400000000000000348e-04,2.399999999999999790e-04,1.000000000000000048e-04,-2.000000000000000164e-05,4.000000000000000327e-05,5.000000000000000000e+00,2.100000000000000000e+01
6.360600000000000000e+04,4.799999999999999580e-04,2.000000000000000164e-05,-5.999999999999999474e-04,-8.400000000000000348e-04,2.399999999999999790e-04,1.000000000000000048e-04,-2.000000000000000164e-05,4.000000000000000327e-05,5.000000000000000000e+00,2.100000000000000000e+01
6.360700000000000000e+04,-3.600000000000000227e-04,-2.799999999999999755e-04,-1.600000000000000131e-04,-1.699999999999999851e-04,1.269999999999999862e-03,2.000000000000000096e-04,2.000000000000000164e-05,-5.999999999999999474e-05,5.000000000000000000e+00,2.100000000000000000e+01
6.360800000000000000e+04,-4.000000000000000192e-04,0.000000000000000000e+00,-1.199999999999999895e-04,-8.300000000000001170e-04,3.499999999999999964e-04,2.900000000000000017e-04,8.000000000000000654e-05,-4.000000000000000327e-05,5.000000000000000000e+00,2.100000000000000000e+01
6.360900000000000000e+04,-4.000000000000000192e-04,0.000000000000000000e+00,-1.199999999999999895e-04,-8.300000000000001170e-04,3.499999999999999964e-04,2.900000000000000017e-04,8.000000000000000654e-05,-4.000000000000000327e-05,5.000000000000000000e+00,2.100000000000000000e+01
6.361000000000000000e+04,-4.000000000000000192e-04,0.000000000000000000e+00,-1.199999999999999895e-04,-8.300000000000001170e-04,3.499999999999999964e-04,2.900000000000000017e-04,8.000000000000000654e-05,-4.000000000000000327e-05,5.000000000000000000e+00,2.100000000000000000e+01
6.361100000000000000e+04,-4.000000000000000192e-04,0.000000000000000000e+00,-1.199999999999999895e-04,-8.300000000000001170e-04,3.499999999999999964e-04,2.900000000000000017e-04,8.000000000000000654e-05,-4.000000000000000327e-05,5.000000000000000000e+00,2.100000000000000000e+01
6.361200000000000000e+04,-4.000000000000000192e-04,0.000000000000000000e+00,-1.199999999999999895e-04,-8.300000000000001170e-04,3.499999999999999964e-04,2.900000000000000017e-04,8.000000000000000654e-05,-4.000000000000000327e-05,5.000000000000000000e+00,2.100000000000000000e+01
6.361300000000000000e+04,-4.000000000000000192e-04,0.000000000000000000e+00,-1.199999999999999895e-04,-8.300000000000001170e-04,3.499999999999999964e-04,2.900000000000000017e-04,8.000000000000000654e-05,-4.000000000000000327e-05,5.000000000000000000e+00,2.100000000000000000e+01
6.361400000000000000e+04,-2.000000000000000164e-05,-3.600000000000000227e-04,-4.299999999999999894e-04,2.000000000000000096e-04,-2.700000000000000035e-04,-5.000000000000000240e-05,-4.000000000000000327e-05,-6.999999999999999387e-05,5.000000000000000000e+00,2.100000000000000000e+01
6.361500000000000000e+04,-2.799999999999999755e-04,-2.600000000000000314e-04,-3.899999999999999929e-04,3.299999999999999982e-04,6.700000000000000226e-04,1.300000000000000157e-04,4.000000000000000327e-05,-5.000000000000000240e-05,5.000000000000000000e+00,2.100000000000000000e+01
6.361600000000000000e+04,-2.799999999999999755e-04,-2.600000000000000314e-04,-3.899999999999999929e-04,3.299999999999999982e-04,6.700000000000000226e-04,1.300000000000000157e-04,4.000000000000000327e-05,-5.000000000000000240e-05,5.000000000000000000e+00,2.100000000000000000e+01
6.361700000000000000e+04,-2.799999999999999755e-04,-2.600000000000000314e-04,-3.899999999999999929e-04,3.299999999999999982e-04,6.700000000000000226e-04,1.300000000000000157e-04,4.000000000000000327e-05,-5.000000000000000240e-05,5.000000000000000000e+00,2.100000000000000000e+01
6.361800000000000000e+04,-2.799999999999999755e-04,-2.600000000000000314e-04,-3.899999999999999929e-04,3.299999999999999982e-04,6.700000000000000226e-04,1.300000000000000157e-04,4.000000000000000327e-05,-5.000000000000000240e-05,5.000000000000000000e+00,2.100000000000000000e+01
6.361900000000000000e+04,-2.799999999999999755e-04,-2.600000000000000314e-04,-3.899999999999999929e-04,3.299999999999999982e-04,6.700000000000000226e-04,1.300000000000000157e-04,4.000000000000000327e-05,-5.000000000000000240e-05,5.000000000000000000e+00,2.100000000000000000e+01
6.362000000000000000e+04,-2.799999999999999755e-04,-2.600000000000000314e-04,-3.899999999999999929e-04,3.299999999999999982e-04,6.700000000000000226e-04,1.300000000000000157e-04,4.000000000000000327e-05,-5.000000000000000240e-05,5.000000000000000000e+00,2.100000000000000000e+01
6.362100000000000000e+04,-2.799999999999999755e-04,-2.600000000000000314e-04,-3.899999999999999929e-04,3.299999999999999982e-04,6.700000000000000226e-04,1.300000000000000157e-04,4.000000000000000327e-05,-5.000000000000000240e-05,5.000000000000000000e+00,2.100000000000000000e+01
6.362200000000000000e+04,-2.799999999999999755e-04,-2.600000000000000314e-04,-3.899999999999999929e-04,3.299999999999999982e-04,6.700000000000000226e-04,1.300000000000000157e-04,4.000000000000000327e-05,-5.000000000000000240e-05,5.000000000000000000e+00,2.100000000000000000e+01
6.362300000000000000e+04,-2.799999999999999755e-04,-2.600000000000000314e-04,-3.899999999999999929e-04,3.299999999999999982e-04,6.700000000000000226e-04,1.300000000000000157e-04,4.000000000000000327e-05,-5.000000000000000240e-05,5.000000000000000000e+00,2.100000000000000000e+01
6.362400000000000000e+04,-2.799999999999999755e-04,-2.600000000000000314e-04,-3.899999999999999929e-04,3.299999999999999982e-04,6.700000000000000226e-04,1.300000000000000157e-04,4.000000000000000327e-05,-5.000000000000000240e-05,5.000000000000000000e+00,2.100000000000000000e+01
6.362500000000000000e+04,-2.799999999999999755e-04,-2.600000000000000314e-04,-3.899999999999999929e-04,3.299999999999999982e-04,6.700000000000000226e-04,1.300000000000000157e-04,4.000000000000000327e-05,-5.000000000000000240e-05,5.000000000000000000e+00,2.100000000000000000e+01
6.362600000000000000e+04,-2.799999999999999755e-04,-2.600000000000000314e-04,-3.899999999999999929e-04,3.299999999999999982e-04,6.700000000000000226e-04,1.300000000000000157e-04,4.000000000000000327e-05,-5.000000000000000240e-05,5.000000000000000000e+00,2.100000000000000000e+01
6.362700000000000000e+04,-2.799999999999999755e-04,-2.600000000000000314e-04,-3.899999999999999929e-04,3.299999999999999982e-04,6.700000000000000226e-04,1.300000000000000157e-04,4.000000000000000327e-05,-5.000000000000000240e-05,5.000000000000000000e+00,2.100000000000000000e+01
6.362800000000000000e+04,-2.799999999999999755e-04,-2.600000000000000314e-04,-3.899999999999999929e-04,3.299999999999999982e-04,6.700000000000000226e-04,1.300000000000000157e-04,4.000000000000000327e-05,-5.000000000000000240e-05,5.000000000000000000e+00,2.100000000000000000e+01
6.362900000000000000e+04,-2.799999999999999755e-04,-2.600000000000000314e-04,-3.899999999999999929e-04,3.299999999999999982e-04,6.700000000000000226e-04,1.300000000000000157e-04,4.000000000000000327e-05,-5.000000000000000240e-05,5.000000000000000000e+00,2.100000000000000000e+01
6.363000000000000000e+04,-2.799999999999999755e-04,-2.600000000000000314e-04,-3.899999999999999929e-04,3.299999999999999982e-04,6.700000000000000226e-04,1.300000000000000157e-04,4.000000000000000327e-05,-5.000000000000000240e-05,5.000000000000000000e+00,2.100000000000000000e+01
6.363100000000000000e+04,-2.799999999999999755e-04,-2.600000000000000314e-04,-3.899999999999999929e-04,3.299999999999999982e-04,6.700000000000000226e-04,1.300000000000000157e-04,4.000000000000000327e-05,-5.000000000000000240e-05,5.000000000000000000e+00,2.100000000000000000e+01
6.363200000000000000e+04,-2.799999999999999755e-04,-2.600000000000000314e-04,-3.899999999999999929e-04,3.299999999999999982e-04,6.700000000000000226e-04,1.300000000000000157e-04,4.000000000000000327e-05,-5.000000000000000240e-05,5.000000000000000000e+00,2.100000000000000000e+01
6.363300000000000000e+04,-2.799999999999999755e-04,-2.600000000000000314e-04,-3.899999999999999929e-04,3.299999999999999982e-04,6.700000000000000226e-04,1.300000000000000157e-04,4.000000000000000327e-05,-5.000000000000000240e-05,5.000000000000000000e+00,2.100000000000000000e+01
6.363400000000000000e+04,-2.799999999999999755e-04,-2.600000000000000314e-04,-3.899999999999999929e-04,3.299999999999999982e-04,6.700000000000000226e-04,1.300000000000000157e-04,4.000000000000000327e-05,-5.000000000000000240e-05,5.000000000000000000e+00,2.100000000000000000e+01
6.363500000000000000e+04,-2.799999999999999755e-04,-2.600000000000000314e-04,-3.899999999999999929e-04,3.299999999999999982e-04,6.700000000000000226e-04,1.300000000000000157e-04,4.000000000000000327e-05,-5.000000000000000240e-05,5.000000000000000000e+00,2.100000000000000000e+01
6.363700000000000000e+04,3.399999999999999702e-04,1.800000000000000113e-04,2.500000000000000052e-04,-1.899999999999999834e-04,-5.699999999999999772e-04,2.999999999999999737e-05,2.999999999999999737e-05,2.999999999999999737e-05,5.000000000000000000e+00,2.100000000000000000e+01
6.363900000000000000e+04,-1.899999999999999834e-04,-2.200000000000000078e-04,-6.999999999999999387e-05,3.600000000000000227e-04,6.999999999999999387e-05,-1.000000000000000048e-04,-5.000000000000000240e-05,-1.300000000000000157e-04,5.000000000000000000e+00,2.100000000000000000e+01
6.364100000000000000e+04,-1.899999999999999834e-04,-2.200000000000000078e-04,-6.999999999999999387e-05,3.600000000000000227e-04,6.999999999999999387e-05,-1.000000000000000048e-04,-5.000000000000000240e-05,-1.300000000000000157e-04,5.000000000000000000e+00,2.100000000000000000e+01
6.364200000000000000e+04,-1.899999999999999834e-04,-2.200000000000000078e-04,-6.999999999999999387e-05,3.600000000000000227e-04,6.999999999999999387e-05,-1.000000000000000048e-04,-5.000000000000000240e-05,-1.300000000000000157e-04,5.000000000000000000e+00,2.100000000000000000e+01
6.364300000000000000e+04,-1.899999999999999834e-04,-2.200000000000000078e-04,-6.999999999999999387e-05,3.600000000000000227e-04,6.999999999999999387e-05,-1.000000000000000048e-04,-5.000000000000000240e-05,-1.300000000000000157e-04,5.000000000000000000e+00,2.100000000000000000e+01
6.364400000000000000e+04,-1.899999999999999834e-04,-2.200000000000000078e-04,-6.999999999999999387e-05,3.600000000000000227e-04,6.999999999999999387e-05,-1.000000000000000048e-04,-5.000000000000000240e-05,-1.300000000000000157e-04,5.000000000000000000e+00,2.100000000000000000e+01
6.364500000000000000e+04,-1.899999999999999834e-04,-2.200000000000000078e-04,-6.999999999999999387e-05,3.600000000000000227e-04,6.999999999999999387e-05,-1.000000000000000048e-04,-5.000000000000000240e-05,-1.300000000000000157e-04,5.000000000000000000e+00,2.100000000000000000e+01
6.364600000000000000e+04,-1.899999999999999834e-04,-2.200000000000000078e-04,-6.999999999999999387e-05,3.600000000000000227e-04,6.999999999999999387e-05,-1.000000000000000048e-04,-5.000000000000000240e-05,-1.300000000000000157e-04,5.000000000000000000e+00,2.100000000000000000e+01
6.364700000000000000e+04,-1.899999999999999834e-04,-2.200000000000000078e-04,-6.999999999999999387e-05,3.600000000000000227e-04,6.999999999999999387e-05,-1.000000000000000048e-04,-5.000000000000000240e-05,-1.300000000000000157e-04,5.000000000000000000e+00,2.100000000000000000e+01
6.364800000000000000e+04,-1.899999999999999834e-04,-2.200000000000000078e-04,-6.999999999999999387e-05,3.600000000000000227e-04,6.999999999999999387e-05,-1.000000000000000048e-04,-5.000000000000000240e-05,-1.300000000000000157e-04,5.000000000000000000e+00,2.100000000000000000e+01
6.364900000000000000e+04,-1.899999999999999834e-04,-2.200000000000000078e-04,-6.999999999999999387e-05,3.600000000000000227e-04,6.999999999999999387e-05,-1.000000000000000048e-04,-5.000000000000000240e-05,-1.300000000000000157e-04,5.000000000000000000e+00,2.100000000000000000e+01
6.365000000000000000e+04,-1.899999999999999834e-04,-2.200000000000000078e-04,-6.999999999999999387e-05,3.600000000000000227e-04,6.999999999999999387e-05,-1.000000000000000048e-04,-5.000000000000000240e-05,-1.300000000000000157e-04,5.000000000000000000e+00,2.100000000000000000e+01
6.365100000000000000e+04,-1.899999999999999834e-04,-2.200000000000000078e-04,-6.999999999999999387e-05,3.600000000000000227e-04,6.999999999999999387e-05,-1.000000000000000048e-04,-5.000000000000000240e-05,-1.300000000000000157e-04,5.000000000000000000e+00,2.100000000000000000e+01
6.365200000000000000e+04,4.000000000000000327e-05,2.000000000000000096e-04,5.299999999999999807e-04,7.299999999999999632e-04,-1.000000000000000082e-05,-2.200000000000000078e-04,6.999999999999999387e-05,9.000000000000000567e-05,5.000000000000000000e+00,2.100000000000000000e+01
6.365400000000000000e+04,4.000000000000000327e-05,2.000000000000000096e-04,5.299999999999999807e-04,7.299999999999999632e-04,-1.000000000000000082e-05,-2.200000000000000078e-04,6.999999999999999387e-05,9.000000000000000567e-05,5.000000000000000000e+00,2.100000000000000000e+01
6.365500000000000000e+04,4.000000000000000327e-05,2.000000000000000096e-04,5.299999999999999807e-04,7.299999999999999632e-04,-1.000000000000000082e-05,-2.200000000000000078e-04,6.999999999999999387e-05,9.000000000000000567e-05,5.000000000000000000e+00,2.100000000000000000e+01
6.365600000000000000e+04,4.000000000000000327e-05,2.000000000000000096e-04,5.299999999999999807e-04,7.299999999999999632e-04,-1.000000000000000082e-05,-2.200000000000000078e-04,6.999999999999999387e-05,9.000000000000000567e-05,5.000000000000000000e+00,2.100000000000000000e+01
6.365700000000000000e+04,4.000000000000000327e-05,2.000000000000000096e-04,5.299999999999999807e-04,7.299999999999999632e-04,-1.000000000000000082e-05,-2.200000000000000078e-04,6.999999999999999387e-05,9.000000000000000567e-05,5.000000000000000000e+00,2.100000000000000000e+01
6.365800000000000000e+04,4.000000000000000327e-05,2.000000000000000096e-04,5.299999999999999807e-04,7.299999999999999632e-04,-1.000000000000000082e-05,-2.200000000000000078e-04,6.999999999999999387e-05,9.000000000000000567e-05,5.000000000000000000e+00,2.100000000000000000e+01
6.365900000000000000e+04,4.000000000000000327e-05,2.000000000000000096e-04,5.299999999999999807e-04,7.299999999999999632e-04,-1.000000000000000082e-05,-2.200000000000000078e-04,6.999999999999999387e-05,9.000000000000000567e-05,5.000000000000000000e+00,2.100000000000000000e+01
6.366000000000000000e+04,4.000000000000000327e-05,2.000000000000000096e-04,5.299999999999999807e-04,7.299999999999999632e-04,-1.000000000000000082e-05,-2.200000000000000078e-04,6.999999999999999387e-05,9.000000000000000567e-05,5.000000000000000000e+00,2.100000000000000000e+01
6.366100000000000000e+04,4.000000000000000327e-05,2.000000000000000096e-04,5.299999999999999807e-04,7.299999999999999632e-04,-1.000000000000000082e-05,-2.200000000000000078e-04,6.999999999999999387e-05,9.000000000000000567e-05,5.000000000000000000e+00,2.100000000000000000e+01
6.366200000000000000e+04,4.000000000000000327e-05,2.000000000000000096e-04,5.299999999999999807e-04,7.299999999999999632e-04,-1.000000000000000082e-05,-2.200000000000000078e-04,6.999999999999999387e-05,9.000000000000000567e-05,5.000000000000000000e+00,2.100000000000000000e+01
6.366300000000000000e+04,4.000000000000000327e-05,2.000000000000000096e-04,5.299999999999999807e-04,7.299999999999999632e-04,-1.000000000000000082e-05,-2.200000000000000078e-04,6.999999999999999387e-05,9.000000000000000567e-05,5.000000000000000000e+00,2.100000000000000000e+01
6.366400000000000000e+04,4.000000000000000327e-05,2.000000000000000096e-04,5.299999999999999807e-04,7.299999999999999632e-04,-1.000000000000000082e-05,-2.200000000000000078e-04,6.999999999999999387e-05,9.000000000000000567e-05,5.000000000000000000e+00,2.100000000000000000e+01
6.366500000000000000e+04,4.000000000000000327e-05,2.000000000000000096e-04,5.299999999999999807e-04,7.299999999999999632e-04,-1.000000000000000082e-05,-2.200000000000000078e-04,6.999999999999999387e-05,9.000000000000000567e-05,5.000000000000000000e+00,2.100000000000000000e+01
6.366600000000000000e+04,-3.299999999999999982e-04,-1.000000000000000082e-05,6.999999999999999387e-05,2.999999999999999737e-05,-4.099999999999999912e-04,2.000000000000000096e-04,2.000000000000000164e-05,-1.000000000000000082e-05,5.000000000000000000e+00,2.100000000000000000e+01
6.366700000000000000e+04,-3.299999999999999982e-04,-1.000000000000000082e-05,6.999999999999999387e-05,2.999999999999999737e-05,-4.099999999999999912e-04,2.000000000000000096e-04,2.000000000000000164e-05,-1.000000000000000082e-05,5.000000000000000000e+00,2.100000000000000000e+01
6.366800000000000000e+04,-3.299999999999999982e-04,-1.000000000000000082e-05,6.999999999999999387e-05,2.999999999999999737e-05,-4.099999999999999912e-04,2.000000000000000096e-04,2.000000000000000164e-05,-1.000000000000000082e-05,5.000000000000000000e+00,2.100000000000000000e+01
6.366900000000000000e+04,-3.299999999999999982e-04,-1.000000000000000082e-05,6.999999999999999387e-05,2.999999999999999737e-05,-4.099999999999999912e-04,2.000000000000000096e-04,2.000000000000000164e-05,-1.000000000000000082e-05,5.000000000000000000e+00,2.100000000000000000e+01
6.367000000000000000e+04,-3.299999999999999982e-04,-1.000000000000000082e-05,6.999999999999999387e-05,2.999999999999999737e-05,-4.099999999999999912e-04,2.000000000000000096e-04,2.000000000000000164e-05,-1.000000000000000082e-05,5.000000000000000000e+00,2.100000000000000000e+01
6.367100000000000000e+04,-3.299999999999999982e-04,-1.000000000000000082e-05,6.999999999999999387e-05,2.999999999999999737e-05,-4.099999999999999912e-04,2.000000000000000096e-04,2.000000000000000164e-05,-1.000000000000000082e-05,5.000000000000000000e+00,2.100000000000000000e+01
6.367200000000000000e+04,-3.299999999999999982e-04,-1.000000000000000082e-05,6.999999999999999387e-05,2.999999999999999737e-05,-4.099999999999999912e-04,2.000000000000000096e-04,2.000000000000000164e-05,-1.000000000000000082e-05,5.000000000000000000e+00,2.100000000000000000e+01
6.367300000000000000e+04,-3.299999999999999982e-04,-1.000000000000000082e-05,6.999999999999999387e-05,2.999999999999999737e-05,-4.099999999999999912e-04,2.000000000000000096e-04,2.000000000000000164e-05,-1.000000000000000082e-05,5.000000000000000000e+00,2.100000000000000000e+01
6.367400000000000000e+04,-6.999999999999999387e-05,1.100000000000000039e-04,-1.899999999999999834e-04,-1.019999999999999856e-03,-5.200000000000000629e-04,9.000000000000000567e-05,1.600000000000000131e-04,1.100000000000000039e-04,5.000000000000000000e+00,2.100000000000000000e+01
6.367500000000000000e+04,5.000000000000000240e-05,-2.200000000000000078e-04,-1.199999999999999895e-04,-2.200000000000000078e-04,-1.300000000000000157e-04,2.000000000000000164e-05,-1.000000000000000082e-05,-5.000000000000000240e-05,5.000000000000000000e+00,2.100000000000000000e+01
6.367600000000000000e+04,5.000000000000000240e-05,-2.200000000000000078e-04,-1.199999999999999895e-04,-2.200000000000000078e-04,-1.300000000000000157e-04,2.000000000000000164e-05,-1.000000000000000082e-05,-5.000000000000000240e-05,5.000000000000000000e+00,2.100000000000000000e+01
6.367700000000000000e+04,5.000000000000000240e-05,-2.200000000000000078e-04,-1.199999999999999895e-04,-2.200000000000000078e-04,-1.300000000000000157e-04,2.000000000000000164e-05,-1.000000000000000082e-05,-5.000000000000000240e-05,5.000000000000000000e+00,2.100000000000000000e+01
6.367800000000000000e+04,5.000000000000000240e-05,-2.200000000000000078e-04,-1.199999999999999895e-04,-2.200000000000000078e-04,-1.300000000000000157e-04,2.000000000000000164e-05,-1.000000000000000082e-05,-5.000000000000000240e-05,5.000000000000000000e+00,2.100000000000000000e+01
6.367900000000000000e+04,5.000000000000000240e-05,-2.200000000000000078e-04,-1.199999999999999895e-04,-2.200000000000000078e-04,-1.300000000000000157e-04,2.000000000000000164e-05,-1.000000000000000082e-05,-5.000000000000000240e-05,5.000000000000000000e+00,2.100000000000000000e+01
6.368000000000000000e+04,5.000000000000000240e-05,-2.200000000000000078e-04,-1.199999999999999895e-04,-2.200000000000000078e-04,-1.300000000000000157e-04,2.000000000000000164e-05,-1.000000000000000082e-05,-5.000000000000000240e-05,5.000000000000000000e+00,2.100000000000000000e+01
6.368100000000000000e+04,5.000000000000000240e-05,-2.200000000000000078e-04,-1.199999999999999895e-04,-2.200000000000000078e-04,-1.300000000000000157e-04,2.000000000000000164e-05,-1.000000000000000082e-05,-5.000000000000000240e-05,5.000000000000000000e+00,2.100000000000000000e+01
6.368200000000000000e+04,5.000000000000000240e-05,-2.200000000000000078e-04,-1.199999999999999895e-04,-2.200000000000000078e-04,-1.300000000000000157e-04,2.000000000000000164e-05,-1.000000000000000082e-05,-5.000000000000000240e-05,5.000000000000000000e+00,2.100000000000000000e+01
6.368300000000000000e+04,5.000000000000000240e-05,-2.200000000000000078e-04,-1.199999999999999895e-04,-2.200000000000000078e-04,-1.300000000000000157e-04,2.000000000000000164e-05,-1.000000000000000082e-05,-5.000000000000000240e-05,5.000000000000000000e+00,2.100000000000000000e+01
6.368400000000000000e+04,5.000000000000000240e-05,-2.200000000000000078e-04,-1.199999999999999895e-04,-2.200000000000000078e-04,-1.300000000000000157e-04,2.000000000000000164e-05,-1.000000000000000082e-05,-5.000000000000000240e-05,5.000000000000000000e+00,2.100000000000000000e+01
6.368500000000000000e+04,5.000000000000000240e-05,-2.200000000000000078e-04,-1.199999999999999895e-04,-2.200000000000000078e-04,-1.300000000000000157e-04,2.000000000000000164e-05,-1.000000000000000082e-05,-5.000000000000000240e-05,5.000000000000000000e+00,2.100000000000000000e+01
6.368600000000000000e+04,5.000000000000000240e-05,-2.200000000000000078e-04,-1.199999999999999895e-04,-2.200000000000000078e-04,-1.300000000000000157e-04,2.000000000000000164e-05,-1.000000000000000082e-05,-5.000000000000000240e-05,5.000000000000000000e+00,2.100000000000000000e+01
6.368900000000000000e+04,5.000000000000000240e-05,-2.200000000000000078e-04,-1.199999999999999895e-04,-2.200000000000000078e-04,-1.300000000000000157e-04,2.000000000000000164e-05,-1.000000000000000082e-05,-5.000000000000000240e-05,5.000000000000000000e+00,2.100000000000000000e+01
6.369000000000000000e+04,5.000000000000000240e-05,-2.200000000000000078e-04,-1.199999999999999895e-04,-2.200000000000000078e-04,-1.300000000000000157e-04,2.000000000000000164e-05,-1.000000000000000082e-05,-5.000000000000000240e-05,5.000000000000000000e+00,2.100000000000000000e+01
6.369100000000000000e+04,5.000000000000000240e-05,-2.200000000000000078e-04,-1.199999999999999895e-04,-2.200000000000000078e-04,-1.300000000000000157e-04,2.000000000000000164e-05,-1.000000000000000082e-05,-5.000000000000000240e-05,5.000000000000000000e+00,2.100000000000000000e+01
6.369200000000000000e+04,5.000000000000000240e-05,-2.200000000000000078e-04,-1.199999999999999895e-04,-2.200000000000000078e-04,-1.300000000000000157e-04,2.000000000000000164e-05,-1.000000000000000082e-05,-5.000000000000000240e-05,5.000000000000000000e+00,2.100000000000000000e+01
6.369300000000000000e+04,5.000000000000000240e-05,-2.200000000000000078e-04,-1.199999999999999895e-04,-2.200000000000000078e-04,-1.300000000000000157e-04,2.000000000000000164e-05,-1.000000000000000082e-05,-5.000000000000000240e-05,5.000000000000000000e+00,2.100000000000000000e+01
6.369400000000000000e+04,5.000000000000000240e-05,-2.200000000000000078e-04,-1.199999999999999895e-04,-2.200000000000000078e-04,-1.300000000000000157e-04,2.000000000000000164e-05,-1.000000000000000082e-05,-5.000000000000000240e-05,5.000000000000000000e+00,2.100000000000000000e+01
6.369500000000000000e+04,5.000000000000000240e-05,-2.200000000000000078e-04,-1.199999999999999895e-04,-2.200000000000000078e-04,-1.300000000000000157e-04,2.000000000000000164e-05,-1.000000000000000082e-05,-5.000000000000000240e-05,5.000000000000000000e+00,2.100000000000000000e+01
6.369600000000000000e+04,5.000000000000000240e-05,-2.200000000000000078e-04,-1.199999999999999895e-04,-2.200000000000000078e-04,-1.300000000000000157e-04,2.000000000000000164e-05,-1.000000000000000082e-05,-5.000000000000000240e-05,5.000000000000000000e+00,2.100000000000000000e+01
6.369700000000000000e+04,-1.600000000000000131e-04,-2.999999999999999737e-05,-7.700000000000000681e-04,-4.400000000000000157e-04,6.900000000000000751e-04,1.399999999999999877e-04,6.999999999999999387e-05,-6.999999999999999387e-05,5.000000000000000000e+00,2.100000000000000000e+01
6.369800000000000000e+04,-1.600000000000000131e-04,-2.999999999999999737e-05,-7.700000000000000681e-04,-4.400000000000000157e-04,6.900000000000000751e-04,1.399999999999999877e-04,6.999999999999999387e-05,-6.999999999999999387e-05,5.000000000000000000e+00,2.100000000000000000e+01
6.369900000000000000e+04,1.699999999999999851e-04,2.000000000000000096e-04,4.200000000000000174e-04,-4.899999999999999842e-04,-3.699999999999999947e-04,-5.999999999999999474e-05,1.000000000000000082e-05,5.999999999999999474e-05,5.000000000000000000e+00,2.100000000000000000e+01
6.370000000000000000e+04,1.699999999999999851e-04,2.000000000000000096e-04,4.200000000000000174e-04,-4.899999999999999842e-04,-3.699999999999999947e-04,-5.999999999999999474e-05,1.000000000000000082e-05,5.999999999999999474e-05,5.000000000000000000e+00,2.100000000000000000e+01
6.370100000000000000e+04,1.699999999999999851e-04,2.000000000000000096e-04,4.200000000000000174e-04,-4.899999999999999842e-04,-3.699999999999999947e-04,-5.999999999999999474e-05,1.000000000000000082e-05,5.999999999999999474e-05,5.000000000000000000e+00,2.100000000000000000e+01
6.370200000000000000e+04,1.699999999999999851e-04,2.000000000000000096e-04,4.200000000000000174e-04,-4.899999999999999842e-04,-3.699999999999999947e-04,-5.999999999999999474e-05,1.000000000000000082e-05,5.999999999999999474e-05,5.000000000000000000e+00,2.100000000000000000e+01
6.370300000000000000e+04,1.699999999999999851e-04,2.000000000000000096e-04,4.200000000000000174e-04,-4.899999999999999842e-04,-3.699999999999999947e-04,-5.999999999999999474e-05,1.000000000000000082e-05,5.999999999999999474e-05,5.000000000000000000e+00,2.100000000000000000e+01
6.370400000000000000e+04,1.699999999999999851e-04,2.000000000000000096e-04,4.200000000000000174e-04,-4.899999999999999842e-04,-3.699999999999999947e-04,-5.999999999999999474e-05,1.000000000000000082e-05,5.999999999999999474e-05,5.000000000000000000e+00,2.100000000000000000e+01
6.370500000000000000e+04,1.699999999999999851e-04,2.000000000000000096e-04,4.200000000000000174e-04,-4.899999999999999842e-04,-3.699999999999999947e-04,-5.999999999999999474e-05,1.000000000000000082e-05,5.999999999999999474e-05,5.000000000000000000e+00,2.100000000000000000e+01
6.370600000000000000e+04,1.699999999999999851e-04,2.000000000000000096e-04,4.200000000000000174e-04,-4.899999999999999842e-04,-3.699999999999999947e-04,-5.999999999999999474e-05,1.000000000000000082e-05,5.999999999999999474e-05,5.000000000000000000e+00,2.100000000000000000e+01
6.370700000000000000e+04,1.699999999999999851e-04,2.000000000000000096e-04,4.200000000000000174e-04,-4.899999999999999842e-04,-3.699999999999999947e-04,-5.999999999999999474e-05,1.000000000000000082e-05,5.999999999999999474e-05,5.000000000000000000e+00,2.100000000000000000e+01
6.370800000000000000e+04,1.699999999999999851e-04,2.000000000000000096e-04,4.200000000000000174e-04,-4.899999999999999842e-04,-3.699999999999999947e-04,-5.999999999999999474e-05,1.000000000000000082e-05,5.999999999999999474e-05,5.000000000000000000e+00,2.100000000000000000e+01
6.370900000000000000e+04,1.699999999999999851e-04,2.000000000000000096e-04,4.200000000000000174e-04,-4.899999999999999842e-04,-3.699999999999999947e-04,-5.999999999999999474e-05,1.000000000000000082e-05,5.999999999999999474e-05,5.000000000000000000e+00,2.100000000000000000e+01
6.371000000000000000e+04,1.699999999999999851e-04,2.000000000000000096e-04,4.200000000000000174e-04,-4.899999999999999842e-04,-3.699999999999999947e-04,-5.999999999999999474e-05,1.000000000000000082e-05,5.999999999999999474e-05,5.000000000000000000e+00,2.100000000000000000e+01
6.371100000000000000e+04,5.999999999999999474e-05,-2.000000000000000164e-05,4.000000000000000192e-04,1.250000000000000026e-03,4.000000000000000192e-04,-1.000000000000000082e-05,-6.999999999999999387e-05,-5.000000000000000240e-05,5.000000000000000000e+00,2.100000000000000000e+01
6.371200000000000000e+04,1.499999999999999869e-04,1.199999999999999895e-04,-4.599999999999999597e-04,-7.900000000000000121e-04,5.200000000000000629e-04,-1.100000000000000039e-04,-2.999999999999999737e-05,5.000000000000000240e-05,5.000000000000000000e+00,2.100000000000000000e+01
6.371300000000000000e+04,1.499999999999999869e-04,1.199999999999999895e-04,-4.599999999999999597e-04,-7.900000000000000121e-04,5.200000000000000629e-04,-1.100000000000000039e-04,-2.999999999999999737e-05,5.000000000000000240e-05,5.000000000000000000e+00,2.100000000000000000e+01
6.371400000000000000e+04,1.499999999999999869e-04,1.199999999999999895e-04,-4.599999999999999597e-04,-7.900000000000000121e-04,5.200000000000000629e-04,-1.100000000000000039e-04,-2.999999999999999737e-05,5.000000000000000240e-05,5.000000000000000000e+00,2.100000000000000000e+01
6.371500000000000000e+04,1.499999999999999869e-04,1.199999999999999895e-04,-4.599999999999999597e-04,-7.900000000000000121e-04,5.200000000000000629e-04,-1.100000000000000039e-04,-2.999999999999999737e-05,5.000000000000000240e-05,5.000000000000000000e+00,2.100000000000000000e+01
6.371600000000000000e+04,1.499999999999999869e-04,1.199999999999999895e-04,-4.599999999999999597e-04,-7.900000000000000121e-04,5.200000000000000629e-04,-1.100000000000000039e-04,-2.999999999999999737e-05,5.000000000000000240e-05,5.000000000000000000e+00,2.100000000000000000e+01
6.371700000000000000e+04,1.499999999999999869e-04,1.199999999999999895e-04,-4.599999999999999597e-04,-7.900000000000000121e-04,5.200000000000000629e-04,-1.100000000000000039e-04,-2.999999999999999737e-05,5.000000000000000240e-05,5.000000000000000000e+00,2.100000000000000000e+01
6.371800000000000000e+04,1.499999999999999869e-04,1.199999999999999895e-04,-4.599999999999999597e-04,-7.900000000000000121e-04,5.200000000000000629e-04,-1.100000000000000039e-04,-2.999999999999999737e-05,5.000000000000000240e-05,5.000000000000000000e+00,2.100000000000000000e+01
6.371900000000000000e+04,1.499999999999999869e-04,1.199999999999999895e-04,-4.599999999999999597e-04,-7.900000000000000121e-04,5.200000000000000629e-04,-1.100000000000000039e-04,-2.999999999999999737e-05,5.000000000000000240e-05,5.000000000000000000e+00,2.100000000000000000e+01
6.372000000000000000e+04,1.499999999999999869e-04,1.199999999999999895e-04,-4.599999999999999597e-04,-7.900000000000000121e-04,5.200000000000000629e-04,-1.100000000000000039e-04,-2.999999999999999737e-05,5.000000000000000240e-05,5.000000000000000000e+00,2.100000000000000000e+01
6.372100000000000000e+04,1.499999999999999869e-04,1.199999999999999895e-04,-4.599999999999999597e-04,-7.900000000000000121e-04,5.200000000000000629e-04,-1.100000000000000039e-04,-2.999999999999999737e-05,5.000000000000000240e-05,5.000000000000000000e+00,2.100000000000000000e+01
6.372200000000000000e+04,1.499999999999999869e-04,1.199999999999999895e-04,-4.599999999999999597e-04,-7.900000000000000121e-04,5.200000000000000629e-04,-1.100000000000000039e-04,-2.999999999999999737e-05,5.000000000000000240e-05,5.000000000000000000e+00,2.100000000000000000e+01
6.372300000000000000e+04,1.499999999999999869e-04,1.199999999999999895e-04,-4.599999999999999597e-04,-7.900000000000000121e-04,5.200000000000000629e-04,-1.100000000000000039e-04,-2.999999999999999737e-05,5.000000000000000240e-05,5.000000000000000000e+00,2.100000000000000000e+01
6.372400000000000000e+04,1.499999999999999869e-04,1.199999999999999895e-04,-4.599999999999999597e-04,-7.900000000000000121e-04,5.200000000000000629e-04,-1.100000000000000039e-04,-2.999999999999999737e-05,5.000000000000000240e-05,5.000000000000000000e+00,2.100000000000000000e+01
6.372500000000000000e+04,1.499999999999999869e-04,1.199999999999999895e-04,-4.599999999999999597e-04,-7.900000000000000121e-04,5.200000000000000629e-04,-1.100000000000000039e-04,-2.999999999999999737e-05,5.000000000000000240e-05,5.000000000000000000e+00,2.100000000000000000e+01
6.372600000000000000e+04,1.499999999999999869e-04,1.199999999999999895e-04,-4.599999999999999597e-04,-7.900000000000000121e-04,5.200000000000000629e-04,-1.100000000000000039e-04,-2.999999999999999737e-05,5.000000000000000240e-05,5.000000000000000000e+00,2.100000000000000000e+01
6.372700000000000000e+04,1.499999999999999869e-04,1.199999999999999895e-04,-4.599999999999999597e-04,-7.900000000000000121e-04,5.200000000000000629e-04,-1.100000000000000039e-04,-2.999999999999999737e-05,5.000000000000000240e-05,5.000000000000000000e+00,2.100000000000000000e+01
6.372800000000000000e+04,1.499999999999999869e-04,1.199999999999999895e-04,-4.599999999999999597e-04,-7.900000000000000121e-04,5.200000000000000629e-04,-1.100000000000000039e-04,-2.999999999999999737e-05,5.000000000000000240e-05,5.000000000000000000e+00,2.100000000000000000e+01
6.372900000000000000e+04,1.499999999999999869e-04,1.199999999999999895e-04,-4.599999999999999597e-04,-7.900000000000000121e-04,5.200000000000000629e-04,-1.100000000000000039e-04,-2.999999999999999737e-05,5.000000000000000240e-05,5.000000000000000000e+00,2.100000000000000000e+01
6.373000000000000000e+04,1.499999999999999869e-04,1.199999999999999895e-04,-4.599999999999999597e-04,-7.900000000000000121e-04,5.200000000000000629e-04,-1.100000000000000039e-04,-2.999999999999999737e-05,5.000000000000000240e-05,5.000000000000000000e+00,2.100000000000000000e+01
6.373100000000000000e+04,1.499999999999999869e-04,1.199999999999999895e-04,-4.599999999999999597e-04,-7.900000000000000121e-04,5.200000000000000629e-04,-1.100000000000000039e-04,-2.999999999999999737e-05,5.000000000000000240e-05,5.000000000000000000e+00,2.100000000000000000e+01
6.373200000000000000e+04,1.499999999999999869e-04,1.199999999999999895e-04,-4.599999999999999597e-04,-7.900000000000000121e-04,5.200000000000000629e-04,-1.100000000000000039e-04,-2.999999999999999737e-05,5.000000000000000240e-05,5.000000000000000000e+00,2.100000000000000000e+01
6.373300000000000000e+04,1.499999999999999869e-04,1.199999999999999895e-04,-4.599999999999999597e-04,-7.900000000000000121e-04,5.200000000000000629e-04,-1.100000000000000039e-04,-2.999999999999999737e-05,5.000000000000000240e-05,5.000000000000000000e+00,2.100000000000000000e+01
6.373400000000000000e+04,4.000000000000000327e-05,0.000000000000000000e+00,-1.499999999999999869e-04,5.400000000000000069e-04,-5.999999999999999474e-05,-1.000000000000000082e-05,-1.000000000000000082e-05,-4.000000000000000327e-05,5.000000000000000000e+00,2.100000000000000000e+01
6.373500000000000000e+04,1.800000000000000113e-04,-2.000000000000000164e-05,2.100000000000000087e-04,-4.299999999999999894e-04,-5.699999999999999772e-04,8.000000000000000654e-05,2.999999999999999737e-05,8.000000000000000654e-05,5.000000000000000000e+00,2.100000000000000000e+01
6.373600000000000000e+04,1.800000000000000113e-04,-2.000000000000000164e-05,2.100000000000000087e-04,-4.299999999999999894e-04,-5.699999999999999772e-04,8.000000000000000654e-05,2.999999999999999737e-05,8.000000000000000654e-05,5.000000000000000000e+00,2.100000000000000000e+01
6.373800000000000000e+04,1.800000000000000113e-04,-2.000000000000000164e-05,2.100000000000000087e-04,-4.299999999999999894e-04,-5.699999999999999772e-04,8.000000000000000654e-05,2.999999999999999737e-05,8.000000000000000654e-05,5.000000000000000000e+00,2.100000000000000000e+01
6.374000000000000000e+04,1.800000000000000113e-04,-2.000000000000000164e-05,2.100000000000000087e-04,-4.299999999999999894e-04,-5.699999999999999772e-04,8.000000000000000654e-05,2.999999999999999737e-05,8.000000000000000654e-05,5.000000000000000000e+00,2.100000000000000000e+01
6.374100000000000000e+04,1.800000000000000113e-04,-2.000000000000000164e-05,2.100000000000000087e-04,-4.299999999999999894e-04,-5.699999999999999772e-04,8.000000000000000654e-05,2.999999999999999737e-05,8.000000000000000654e-05,5.000000000000000000e+00,2.100000000000000000e+01
6.374200000000000000e+04,1.800000000000000113e-04,-2.000000000000000164e-05,2.100000000000000087e-04,-4.299999999999999894e-04,-5.699999999999999772e-04,8.000000000000000654e-05,2.999999999999999737e-05,8.000000000000000654e-05,5.000000000000000000e+00,2.100000000000000000e+01
6.374300000000000000e+04,1.800000000000000113e-04,-2.000000000000000164e-05,2.100000000000000087e-04,-4.299999999999999894e-04,-5.699999999999999772e-04,8.000000000000000654e-05,2.999999999999999737e-05,8.000000000000000654e-05,5.000000000000000000e+00,2.100000000000000000e+01
6.374400000000000000e+04,1.800000000000000113e-04,-2.000000000000000164e-05,2.100000000000000087e-04,-4.299999999999999894e-04,-5.699999999999999772e-04,8.000000000000000654e-05,2.999999999999999737e-05,8.000000000000000654e-05,5.000000000000000000e+00,2.100000000000000000e+01
6.374500000000000000e+04,1.800000000000000113e-04,-2.000000000000000164e-05,2.100000000000000087e-04,-4.299999999999999894e-04,-5.699999999999999772e-04,8.000000000000000654e-05,2.999999999999999737e-05,8.000000000000000654e-05,5.000000000000000000e+00,2.100000000000000000e+01
6.374600000000000000e+04,1.800000000000000113e-04,-2.000000000000000164e-05,2.100000000000000087e-04,-4.299999999999999894e-04,-5.699999999999999772e-04,8.000000000000000654e-05,2.999999999999999737e-05,8.000000000000000654e-05,5.000000000000000000e+00,2.100000000000000000e+01
6.374700000000000000e+04,1.800000000000000113e-04,-2.000000000000000164e-05,2.100000000000000087e-04,-4.299999999999999894e-04,-5.699999999999999772e-04,8.000000000000000654e-05,2.999999999999999737e-05,8.000000000000000654e-05,5.000000000000000000e+00,2.100000000000000000e+01
6.374800000000000000e+04,1.800000000000000113e-04,-2.000000000000000164e-05,2.100000000000000087e-04,-4.299999999999999894e-04,-5.699999999999999772e-04,8.000000000000000654e-05,2.999999999999999737e-05,8.000000000000000654e-05,5.000000000000000000e+00,2.100000000000000000e+01
6.374900000000000000e+04,1.800000000000000113e-04,-2.000000000000000164e-05,2.100000000000000087e-04,-4.299999999999999894e-04,-5.699999999999999772e-04,8.000000000000000654e-05,2.999999999999999737e-05,8.000000000000000654e-05,5.000000000000000000e+00,2.100000000000000000e+01
6.375000000000000000e+04,1.800000000000000113e-04,-2.000000000000000164e-05,2.100000000000000087e-04,-4.299999999999999894e-04,-5.699999999999999772e-04,8.000000000000000654e-05,2.999999999999999737e-05,8.000000000000000654e-05,5.000000000000000000e+00,2.100000000000000000e+01
6.375100000000000000e+04,1.800000000000000113e-04,-2.000000000000000164e-05,2.100000000000000087e-04,-4.299999999999999894e-04,-5.699999999999999772e-04,8.000000000000000654e-05,2.999999999999999737e-05,8.000000000000000654e-05,5.000000000000000000e+00,2.100000000000000000e+01
6.375200000000000000e+04,1.800000000000000113e-04,-2.000000000000000164e-05,2.100000000000000087e-04,-4.299999999999999894e-04,-5.699999999999999772e-04,8.000000000000000654e-05,2.999999999999999737e-05,8.000000000000000654e-05,5.000000000000000000e+00,2.100000000000000000e+01
6.375300000000000000e+04,1.800000000000000113e-04,-2.000000000000000164e-05,2.100000000000000087e-04,-4.299999999999999894e-04,-5.699999999999999772e-04,8.000000000000000654e-05,2.999999999999999737e-05,8.000000000000000654e-05,5.000000000000000000e+00,2.100000000000000000e+01
6.375400000000000000e+04,1.800000000000000113e-04,-2.000000000000000164e-05,2.100000000000000087e-04,-4.299999999999999894e-04,-5.699999999999999772e-04,8.000000000000000654e-05,2.999999999999999737e-05,8.000000000000000654e-05,5.000000000000000000e+00,2.100000000000000000e+01
6.375500000000000000e+04,1.800000000000000113e-04,-2.000000000000000164e-05,2.100000000000000087e-04,-4.299999999999999894e-04,-5.699999999999999772e-04,8.000000000000000654e-05,2.999999999999999737e-05,8.000000000000000654e-05,5.000000000000000000e+00,2.100000000000000000e+01
6.375600000000000000e+04,1.800000000000000113e-04,-2.000000000000000164e-05,2.100000000000000087e-04,-4.299999999999999894e-04,-5.699999999999999772e-04,8.000000000000000654e-05,2.999999999999999737e-05,8.000000000000000654e-05,5.000000000000000000e+00,2.100000000000000000e+01
6.375700000000000000e+04,-2.000000000000000164e-05,-9.000000000000000567e-05,-1.399999999999999877e-04,1.899999999999999834e-04,3.099999999999999999e-04,9.000000000000000567e-05,-6.999999999999999387e-05,-8.000000000000000654e-05,5.000000000000000000e+00,2.100000000000000000e+01
6.375800000000000000e+04,-9.000000000000000567e-05,2.399999999999999790e-04,6.799999999999999404e-04,7.599999999999999334e-04,2.000000000000000164e-05,-9.000000000000000567e-05,0.000000000000000000e+00,-4.000000000000000327e-05,5.000000000000000000e+00,2.100000000000000000e+01
6.375900000000000000e+04,-9.000000000000000567e-05,2.399999999999999790e-04,6.799999999999999404e-04,7.599999999999999334e-04,2.000000000000000164e-05,-9.000000000000000567e-05,0.000000000000000000e+00,-4.000000000000000327e-05,5.000000000000000000e+00,2.100000000000000000e+01
6.376000000000000000e+04,-9.000000000000000567e-05,2.399999999999999790e-04,6.799999999999999404e-04,7.599999999999999334e-04,2.000000000000000164e-05,-9.000000000000000567e-05,0.000000000000000000e+00,-4.000000000000000327e-05,5.000000000000000000e+00,2.100000000000000000e+01
6.376100000000000000e+04,-9.000000000000000567e-05,2.399999999999999790e-04,6.799999999999999404e-04,7.599999999999999334e-04,2.000000000000000164e-05,-9.000000000000000567e-05,0.000000000000000000e+00,-4.000000000000000327e-05,5.000000000000000000e+00,2.100000000000000000e+01
6.376200000000000000e+04,-9.000000000000000567e-05,2.399999999999999790e-04,6.799999999999999404e-04,7.599999999999999334e-04,2.000000000000000164e-05,-9.000000000000000567e-05,0.000000000000000000e+00,-4.000000000000000327e-05,5.000000000000000000e+00,2.100000000000000000e+01
6.376300000000000000e+04,-9.000000000000000567e-05,2.399999999999999790e-04,6.799999999999999404e-04,7.599999999999999334e-04,2.000000000000000164e-05,-9.000000000000000567e-05,0.000000000000000000e+00,-4.000000000000000327e-05,5.000000000000000000e+00,2.100000000000000000e+01
6.376400000000000000e+04,-9.000000000000000567e-05,2.399999999999999790e-04,6.799999999999999404e-04,7.599999999999999334e-04,2.000000000000000164e-05,-9.000000000000000567e-05,0.000000000000000000e+00,-4.000000000000000327e-05,5.000000000000000000e+00,2.100000000000000000e+01
6.376500000000000000e+04,-9.000000000000000567e-05,2.399999999999999790e-04,6.799999999999999404e-04,7.599999999999999334e-04,2.000000000000000164e-05,-9.000000000000000567e-05,0.000000000000000000e+00,-4.000000000000000327e-05,5.000000000000000000e+00,2.100000000000000000e+01
6.376600000000000000e+04,-9.000000000000000567e-05,2.399999999999999790e-04,6.799999999999999404e-04,7.599999999999999334e-04,2.000000000000000164e-05,-9.000000000000000567e-05,0.000000000000000000e+00,-4.000000000000000327e-05,5.000000000000000000e+00,2.100000000000000000e+01
6.376700000000000000e+04,-9.000000000000000567e-05,2.399999999999999790e-04,6.799999999999999404e-04,7.599999999999999334e-04,2.000000000000000164e-05,-9.000000000000000567e-05,0.000000000000000000e+00,-4.000000000000000327e-05,5.000000000000000000e+00,2.100000000000000000e+01
6.376800000000000000e+04,-9.000000000000000567e-05,2.399999999999999790e-04,6.799999999999999404e-04,7.599999999999999334e-04,2.000000000000000164e-05,-9.000000000000000567e-05,0.000000000000000000e+00,-4.000000000000000327e-05,5.000000000000000000e+00,2.100000000000000000e+01
6.376900000000000000e+04,-9.000000000000000567e-05,2.399999999999999790e-04,6.799999999999999404e-04,7.599999999999999334e-04,2.000000000000000164e-05,-9.000000000000000567e-05,0.000000000000000000e+00,-4.000000000000000327e-05,5.000000000000000000e+00,2.100000000000000000e+01
6.377000000000000000e+04,-9.000000000000000567e-05,2.399999999999999790e-04,6.799999999999999404e-04,7.599999999999999334e-04,2.000000000000000164e-05,-9.000000000000000567e-05,0.000000000000000000e+00,-4.000000000000000327e-05,5.000000000000000000e+00,2.100000000000000000e+01
6.377100000000000000e+04,5.999999999999999474e-05,-3.099999999999999999e-04,-5.599999999999999509e-04,1.399999999999999877e-04,-1.699999999999999851e-04,-1.000000000000000082e-05,0.000000000000000000e+00,2.999999999999999737e-05,5.000000000000000000e+00,2.100000000000000000e+01
6.377200000000000000e+04,-5.999999999999999474e-05,4.000000000000000327e-05,-1.499999999999999869e-04,2.000000000000000164e-05,-4.700000000000000401e-04,-1.699999999999999851e-04,-9.000000000000000567e-05,-5.000000000000000240e-05,5.000000000000000000e+00,2.100000000000000000e+01
6.377300000000000000e+04,-5.999999999999999474e-05,4.000000000000000327e-05,-1.499999999999999869e-04,2.000000000000000164e-05,-4.700000000000000401e-04,-1.699999999999999851e-04,-9.000000000000000567e-05,-5.000000000000000240e-05,5.000000000000000000e+00,2.100000000000000000e+01
6.377400000000000000e+04,-5.999999999999999474e-05,4.000000000000000327e-05,-1.499999999999999869e-04,2.000000000000000164e-05,-4.700000000000000401e-04,-1.699999999999999851e-04,-9.000000000000000567e-05,-5.000000000000000240e-05,5.000000000000000000e+00,2.100000000000000000e+01
6.377500000000000000e+04,-5.999999999999999474e-05,4.000000000000000327e-05,-1.499999999999999869e-04,2.000000000000000164e-05,-4.700000000000000401e-04,-1.699999999999999851e-04,-9.000000000000000567e-05,-5.000000000000000240e-05,5.000000000000000000e+00,2.100000000000000000e+01
6.377600000000000000e+04,-5.999999999999999474e-05,4.000000000000000327e-05,-1.499999999999999869e-04,2.000000000000000164e-05,-4.700000000000000401e-04,-1.699999999999999851e-04,-9.000000000000000567e-05,-5.000000000000000240e-05,5.000000000000000000e+00,2.100000000000000000e+01
6.377700000000000000e+04,-5.999999999999999474e-05,4.000000000000000327e-05,-1.499999999999999869e-04,2.000000000000000164e-05,-4.700000000000000401e-04,-1.699999999999999851e-04,-9.000000000000000567e-05,-5.000000000000000240e-05,5.000000000000000000e+00,2.100000000000000000e+01
6.377800000000000000e+04,-5.999999999999999474e-05,4.000000000000000327e-05,-1.499999999999999869e-04,2.000000000000000164e-05,-4.700000000000000401e-04,-1.699999999999999851e-04,-9.000000000000000567e-05,-5.000000000000000240e-05,5.000000000000000000e+00,2.100000000000000000e+01
6.377900000000000000e+04,-5.999999999999999474e-05,4.000000000000000327e-05,-1.499999999999999869e-04,2.000000000000000164e-05,-4.700000000000000401e-04,-1.699999999999999851e-04,-9.000000000000000567e-05,-5.000000000000000240e-05,5.000000000000000000e+00,2.100000000000000000e+01
6.378000000000000000e+04,-5.999999999999999474e-05,4.000000000000000327e-05,-1.499999999999999869e-04,2.000000000000000164e-05,-4.700000000000000401e-04,-1.699999999999999851e-04,-9.000000000000000567e-05,-5.000000000000000240e-05,5.000000000000000000e+00,2.100000000000000000e+01
6.378100000000000000e+04,-5.999999999999999474e-05,4.000000000000000327e-05,-1.499999999999999869e-04,2.000000000000000164e-05,-4.700000000000000401e-04,-1.699999999999999851e-04,-9.000000000000000567e-05,-5.000000000000000240e-05,5.000000000000000000e+00,2.100000000000000000e+01
6.378200000000000000e+04,-5.999999999999999474e-05,4.000000000000000327e-05,-1.499999999999999869e-04,2.000000000000000164e-05,-4.700000000000000401e-04,-1.699999999999999851e-04,-9.000000000000000567e-05,-5.000000000000000240e-05,5.000000000000000000e+00,2.100000000000000000e+01
6.378300000000000000e+04,-5.999999999999999474e-05,4.000000000000000327e-05,-1.499999999999999869e-04,2.000000000000000164e-05,-4.700000000000000401e-04,-1.699999999999999851e-04,-9.000000000000000567e-05,-5.000000000000000240e-05,5.000000000000000000e+00,2.100000000000000000e+01
6.378400000000000000e+04,-5.999999999999999474e-05,4.000000000000000327e-05,-1.499999999999999869e-04,2.000000000000000164e-05,-4.700000000000000401e-04,-1.699999999999999851e-04,-9.000000000000000567e-05,-5.000000000000000240e-05,5.000000000000000000e+00,2.100000000000000000e+01
6.378500000000000000e+04,-5.999999999999999474e-05,4.000000000000000327e-05,-1.499999999999999869e-04,2.000000000000000164e-05,-4.700000000000000401e-04,-1.699999999999999851e-04,-9.000000000000000567e-05,-5.000000000000000240e-05,5.000000000000000000e+00,2.100000000000000000e+01
6.378600000000000000e+04,-5.999999999999999474e-05,4.000000000000000327e-05,-1.499999999999999869e-04,2.000000000000000164e-05,-4.700000000000000401e-04,-1.699999999999999851e-04,-9.000000000000000567e-05,-5.000000000000000240e-05,5.000000000000000000e+00,2.100000000000000000e+01
6.378800000000000000e+04,-5.999999999999999474e-05,4.000000000000000327e-05,-1.499999999999999869e-04,2.000000000000000164e-05,-4.700000000000000401e-04,-1.699999999999999851e-04,-9.000000000000000567e-05,-5.000000000000000240e-05,5.000000000000000000e+00,2.100000000000000000e+01
6.378900000000000000e+04,-5.999999999999999474e-05,4.000000000000000327e-05,-1.499999999999999869e-04,2.000000000000000164e-05,-4.700000000000000401e-04,-1.699999999999999851e-04,-9.000000000000000567e-05,-5.000000000000000240e-05,5.000000000000000000e+00,2.100000000000000000e+01
6.379000000000000000e+04,-5.999999999999999474e-05,4.000000000000000327e-05,-1.499999999999999869e-04,2.000000000000000164e-05,-4.700000000000000401e-04,-1.699999999999999851e-04,-9.000000000000000567e-05,-5.000000000000000240e-05,5.000000000000000000e+00,2.100000000000000000e+01
6.379100000000000000e+04,-5.999999999999999474e-05,4.000000000000000327e-05,-1.499999999999999869e-04,2.000000000000000164e-05,-4.700000000000000401e-04,-1.699999999999999851e-04,-9.000000000000000567e-05,-5.000000000000000240e-05,5.000000000000000000e+00,2.100000000000000000e+01
6.379200000000000000e+04,-5.999999999999999474e-05,4.000000000000000327e-05,-1.499999999999999869e-04,2.000000000000000164e-05,-4.700000000000000401e-04,-1.699999999999999851e-04,-9.000000000000000567e-05,-5.000000000000000240e-05,5.000000000000000000e+00,2.100000000000000000e+01
6.379300000000000000e+04,-5.999999999999999474e-05,4.000000000000000327e-05,-1.499999999999999869e-04,2.000000000000000164e-05,-4.700000000000000401e-04,-1.699999999999999851e-04,-9.000000000000000567e-05,-5.000000000000000240e-05,5.000000000000000000e+00,2.100000000000000000e+01
6.379400000000000000e+04,-1.699999999999999851e-04,-5.999999999999999474e-05,-3.299999999999999982e-04,-1.699999999999999851e-04,-2.600000000000000314e-04,5.999999999999999474e-05,5.000000000000000240e-05,1.000000000000000082e-05,5.000000000000000000e+00,2.100000000000000000e+01
6.379500000000000000e+04,1.300000000000000157e-04,3.600000000000000227e-04,4.099999999999999912e-04,-7.900000000000000121e-04,-1.899999999999999834e-04,0.000000000000000000e+00,6.999999999999999387e-05,5.999999999999999474e-05,5.000000000000000000e+00,2.100000000000000000e+01
6.379600000000000000e+04,1.300000000000000157e-04,3.600000000000000227e-04,4.099999999999999912e-04,-7.900000000000000121e-04,-1.899999999999999834e-04,0.000000000000000000e+00,6.999999999999999387e-05,5.999999999999999474e-05,5.000000000000000000e+00,2.100000000000000000e+01
6.379700000000000000e+04,1.300000000000000157e-04,3.600000000000000227e-04,4.099999999999999912e-04,-7.900000000000000121e-04,-1.899999999999999834e-04,0.000000000000000000e+00,6.999999999999999387e-05,5.999999999999999474e-05,5.000000000000000000e+00,2.100000000000000000e+01
6.379800000000000000e+04,1.300000000000000157e-04,3.600000000000000227e-04,4.099999999999999912e-04,-7.900000000000000121e-04,-1.899999999999999834e-04,0.000000000000000000e+00,6.999999999999999387e-05,5.999999999999999474e-05,5.000000000000000000e+00,2.100000000000000000e+01
6.379900000000000000e+04,1.300000000000000157e-04,3.600000000000000227e-04,4.099999999999999912e-04,-7.900000000000000121e-04,-1.899999999999999834e-04,0.000000000000000000e+00,6.999999999999999387e-05,5.999999999999999474e-05,5.000000000000000000e+00,2.100000000000000000e+01
6.380000000000000000e+04,1.300000000000000157e-04,3.600000000000000227e-04,4.099999999999999912e-04,-7.900000000000000121e-04,-1.899999999999999834e-04,0.000000000000000000e+00,6.999999999999999387e-05,5.999999999999999474e-05,5.000000000000000000e+00,2.100000000000000000e+01
6.380100000000000000e+04,1.300000000000000157e-04,3.600000000000000227e-04,4.099999999999999912e-04,-7.900000000000000121e-04,-1.899999999999999834e-04,0.000000000000000000e+00,6.999999999999999387e-05,5.999999999999999474e-05,5.000000000000000000e+00,2.100000000000000000e+01
6.380200000000000000e+04,1.300000000000000157e-04,3.600000000000000227e-04,4.099999999999999912e-04,-7.900000000000000121e-04,-1.899999999999999834e-04,0.000000000000000000e+00,6.999999999999999387e-05,5.999999999999999474e-05,5.000000000000000000e+00,2.100000000000000000e+01
6.380300000000000000e+04,1.300000000000000157e-04,3.600000000000000227e-04,4.099999999999999912e-04,-7.900000000000000121e-04,-1.899999999999999834e-04,0.000000000000000000e+00,6.999999999999999387e-05,5.999999999999999474e-05,5.000000000000000000e+00,2.100000000000000000e+01
6.380400000000000000e+04,1.300000000000000157e-04,3.600000000000000227e-04,4.099999999999999912e-04,-7.900000000000000121e-04,-1.899999999999999834e-04,0.000000000000000000e+00,6.999999999999999387e-05,5.999999999999999474e-05,5.000000000000000000e+00,2.100000000000000000e+01
6.380500000000000000e+04,1.300000000000000157e-04,3.600000000000000227e-04,4.099999999999999912e-04,-7.900000000000000121e-04,-1.899999999999999834e-04,0.000000000000000000e+00,6.999999999999999387e-05,5.999999999999999474e-05,5.000000000000000000e+00,2.100000000000000000e+01
6.380600000000000000e+04,1.300000000000000157e-04,3.600000000000000227e-04,4.099999999999999912e-04,-7.900000000000000121e-04,-1.899999999999999834e-04,0.000000000000000000e+00,6.999999999999999387e-05,5.999999999999999474e-05,5.000000000000000000e+00,2.100000000000000000e+01
6.380700000000000000e+04,1.300000000000000157e-04,3.600000000000000227e-04,4.099999999999999912e-04,-7.900000000000000121e-04,-1.899999999999999834e-04,0.000000000000000000e+00,6.999999999999999387e-05,5.999999999999999474e-05,5.000000000000000000e+00,2.100000000000000000e+01
6.380800000000000000e+04,1.300000000000000157e-04,3.600000000000000227e-04,4.099999999999999912e-04,-7.900000000000000121e-04,-1.899999999999999834e-04,0.000000000000000000e+00,6.999999999999999387e-05,5.999999999999999474e-05,5.000000000000000000e+00,2.100000000000000000e+01
6.380900000000000000e+04,1.300000000000000157e-04,3.600000000000000227e-04,4.099999999999999912e-04,-7.900000000000000121e-04,-1.899999999999999834e-04,0.000000000000000000e+00,6.999999999999999387e-05,5.999999999999999474e-05,5.000000000000000000e+00,2.100000000000000000e+01
6.381000000000000000e+04,1.300000000000000157e-04,3.600000000000000227e-04,4.099999999999999912e-04,-7.900000000000000121e-04,-1.899999999999999834e-04,0.000000000000000000e+00,6.999999999999999387e-05,5.999999999999999474e-05,5.000000000000000000e+00,2.100000000000000000e+01
6.381100000000000000e+04,1.300000000000000157e-04,3.600000000000000227e-04,4.099999999999999912e-04,-7.900000000000000121e-04,-1.899999999999999834e-04,0.000000000000000000e+00,6.999999999999999387e-05,5.999999999999999474e-05,5.000000000000000000e+00,2.100000000000000000e+01
6.381200000000000000e+04,1.300000000000000157e-04,3.600000000000000227e-04,4.099999999999999912e-04,-7.900000000000000121e-04,-1.899999999999999834e-04,0.000000000000000000e+00,6.999999999999999387e-05,5.999999999999999474e-05,5.000000000000000000e+00,2.100000000000000000e+01
6.381300000000000000e+04,1.300000000000000157e-04,3.600000000000000227e-04,4.099999999999999912e-04,-7.900000000000000121e-04,-1.899999999999999834e-04,0.000000000000000000e+00,6.999999999999999387e-05,5.999999999999999474e-05,5.000000000000000000e+00,2.100000000000000000e+01
6.381400000000000000e+04,1.300000000000000157e-04,3.600000000000000227e-04,4.099999999999999912e-04,-7.900000000000000121e-04,-1.899999999999999834e-04,0.000000000000000000e+00,6.999999999999999387e-05,5.999999999999999474e-05,5.000000000000000000e+00,2.100000000000000000e+01
6.381500000000000000e+04,1.300000000000000157e-04,3.600000000000000227e-04,4.099999999999999912e-04,-7.900000000000000121e-04,-1.899999999999999834e-04,0.000000000000000000e+00,6.999999999999999387e-05,5.999999999999999474e-05,5.000000000000000000e+00,2.100000000000000000e+01
6.381600000000000000e+04,1.300000000000000157e-04,3.600000000000000227e-04,4.099999999999999912e-04,-7.900000000000000121e-04,-1.899999999999999834e-04,0.000000000000000000e+00,6.999999999999999387e-05,5.999999999999999474e-05,5.000000000000000000e+00,2.100000000000000000e+01
6.381700000000000000e+04,0.000000000000000000e+00,5.000000000000000240e-05,1.899999999999999834e-04,-9.199999999999999194e-04,-2.700000000000000035e-04,-1.100000000000000039e-04,-4.000000000000000327e-05,5.000000000000000240e-05,5.000000000000000000e+00,2.100000000000000000e+01
6.381800000000000000e+04,5.000000000000000240e-05,-5.999999999999999474e-05,-1.800000000000000113e-04,-6.499999999999999702e-04,2.600000000000000314e-04,5.000000000000000240e-05,-6.999999999999999387e-05,-5.000000000000000240e-05,5.000000000000000000e+00,2.100000000000000000e+01
6.381900000000000000e+04,5.000000000000000240e-05,-5.999999999999999474e-05,-1.800000000000000113e-04,-6.499999999999999702e-04,2.600000000000000314e-04,5.000000000000000240e-05,-6.999999999999999387e-05,-5.000000000000000240e-05,5.000000000000000000e+00,2.100000000000000000e+01
6.382000000000000000e+04,5.000000000000000240e-05,-5.999999999999999474e-05,-1.800000000000000113e-04,-6.499999999999999702e-04,2.600000000000000314e-04,5.000000000000000240e-05,-6.999999999999999387e-05,-5.000000000000000240e-05,5.000000000000000000e+00,2.100000000000000000e+01
6.382100000000000000e+04,5.000000000000000240e-05,-5.999999999999999474e-05,-1.800000000000000113e-04,-6.499999999999999702e-04,2.600000000000000314e-04,5.000000000000000240e-05,-6.999999999999999387e-05,-5.000000000000000240e-05,5.000000000000000000e+00,2.100000000000000000e+01
6.382200000000000000e+04,5.000000000000000240e-05,-5.999999999999999474e-05,-1.800000000000000113e-04,-6.499999999999999702e-04,2.600000000000000314e-04,5.000000000000000240e-05,-6.999999999999999387e-05,-5.000000000000000240e-05,5.000000000000000000e+00,2.100000000000000000e+01
6.382300000000000000e+04,5.000000000000000240e-05,-5.999999999999999474e-05,-1.800000000000000113e-04,-6.499999999999999702e-04,2.600000000000000314e-04,5.000000000000000240e-05,-6.999999999999999387e-05,-5.000000000000000240e-05,5.000000000000000000e+00,2.100000000000000000e+01
6.382400000000000000e+04,5.000000000000000240e-05,-5.999999999999999474e-05,-1.800000000000000113e-04,-6.499999999999999702e-04,2.600000000000000314e-04,5.000000000000000240e-05,-6.999999999999999387e-05,-5.000000000000000240e-05,5.000000000000000000e+00,2.100000000000000000e+01
6.382500000000000000e+04,5.000000000000000240e-05,-5.999999999999999474e-05,-1.800000000000000113e-04,-6.499999999999999702e-04,2.600000000000000314e-04,5.000000000000000240e-05,-6.999999999999999387e-05,-5.000000000000000240e-05,5.000000000000000000e+00,2.100000000000000000e+01
6.382600000000000000e+04,5.000000000000000240e-05,-5.999999999999999474e-05,-1.800000000000000113e-04,-6.499999999999999702e-04,2.600000000000000314e-04,5.000000000000000240e-05,-6.999999999999999387e-05,-5.000000000000000240e-05,5.000000000000000000e+00,2.100000000000000000e+01
6.382700000000000000e+04,5.000000000000000240e-05,-5.999999999999999474e-05,-1.800000000000000113e-04,-6.499999999999999702e-04,2.600000000000000314e-04,5.000000000000000240e-05,-6.999999999999999387e-05,-5.000000000000000240e-05,5.000000000000000000e+00,2.100000000000000000e+01
6.382800000000000000e+04,5.000000000000000240e-05,-5.999999999999999474e-05,-1.800000000000000113e-04,-6.499999999999999702e-04,2.600000000000000314e-04,5.000000000000000240e-05,-6.999999999999999387e-05,-5.000000000000000240e-05,5.000000000000000000e+00,2.100000000000000000e+01
6.382900000000000000e+04,5.000000000000000240e-05,-5.999999999999999474e-05,-1.800000000000000113e-04,-6.499999999999999702e-04,2.600000000000000314e-04,5.000000000000000240e-05,-6.999999999999999387e-05,-5.000000000000000240e-05,5.000000000000000000e+00,2.100000000000000000e+01
6.383000000000000000e+04,5.000000000000000240e-05,-5.999999999999999474e-05,-1.800000000000000113e-04,-6.499999999999999702e-04,2.600000000000000314e-04,5.000000000000000240e-05,-6.999999999999999387e-05,-5.000000000000000240e-05,5.000000000000000000e+00,2.100000000000000000e+01
6.383100000000000000e+04,1.899999999999999834e-04,2.999999999999999737e-05,0.000000000000000000e+00,-1.019999999999999856e-03,-8.599999999999999789e-04,-1.899999999999999834e-04,-9.000000000000000567e-05,-8.000000000000000654e-05,5.000000000000000000e+00,2.100000000000000000e+01
6.383200000000000000e+04,-2.799999999999999755e-04,-4.400000000000000157e-04,-2.500000000000000052e-04,6.799999999999999404e-04,7.099999999999999107e-04,8.000000000000000654e-05,-1.000000000000000082e-05,-1.100000000000000039e-04,5.000000000000000000e+00,2.100000000000000000e+01
6.383300000000000000e+04,-1.100000000000000039e-04,1.499999999999999869e-04,5.000000000000000240e-05,5.000000000000000104e-04,-1.699999999999999851e-04,-8.000000000000000654e-05,0.000000000000000000e+00,2.000000000000000164e-05,5.000000000000000000e+00,2.100000000000000000e+01
6.383400000000000000e+04,-1.100000000000000039e-04,1.499999999999999869e-04,5.000000000000000240e-05,5.000000000000000104e-04,-1.699999999999999851e-04,-8.000000000000000654e-05,0.000000000000000000e+00,2.000000000000000164e-05,5.000000000000000000e+00,2.100000000000000000e+01
6.383500000000000000e+04,-1.100000000000000039e-04,1.499999999999999869e-04,5.000000000000000240e-05,5.000000000000000104e-04,-1.699999999999999851e-04,-8.000000000000000654e-05,0.000000000000000000e+00,2.000000000000000164e-05,5.000000000000000000e+00,2.100000000000000000e+01
6.383600000000000000e+04,-1.100000000000000039e-04,1.499999999999999869e-04,5.000000000000000240e-05,5.000000000000000104e-04,-1.699999999999999851e-04,-8.000000000000000654e-05,0.000000000000000000e+00,2.000000000000000164e-05,5.000000000000000000e+00,2.100000000000000000e+01
6.383800000000000000e+04,-1.100000000000000039e-04,1.499999999999999869e-04,5.000000000000000240e-05,5.000000000000000104e-04,-1.699999999999999851e-04,-8.000000000000000654e-05,0.000000000000000000e+00,2.000000000000000164e-05,5.000000000000000000e+00,2.100000000000000000e+01
6.384000000000000000e+04,-1.100000000000000039e-04,1.499999999999999869e-04,5.000000000000000240e-05,5.000000000000000104e-04,-1.699999999999999851e-04,-8.000000000000000654e-05,0.000000000000000000e+00,2.000000000000000164e-05,5.000000000000000000e+00,2.100000000000000000e+01
6.384100000000000000e+04,-1.100000000000000039e-04,1.499999999999999869e-04,5.000000000000000240e-05,5.000000000000000104e-04,-1.699999999999999851e-04,-8.000000000000000654e-05,0.000000000000000000e+00,2.000000000000000164e-05,5.000000000000000000e+00,2.100000000000000000e+01
6.384300000000000000e+04,-1.100000000000000039e-04,1.499999999999999869e-04,5.000000000000000240e-05,5.000000000000000104e-04,-1.699999999999999851e-04,-8.000000000000000654e-05,0.000000000000000000e+00,2.000000000000000164e-05,5.000000000000000000e+00,2.100000000000000000e+01
6.384400000000000000e+04,-1.100000000000000039e-04,1.499999999999999869e-04,5.000000000000000240e-05,5.000000000000000104e-04,-1.699999999999999851e-04,-8.000000000000000654e-05,0.000000000000000000e+00,2.000000000000000164e-05,5.000000000000000000e+00,2.100000000000000000e+01
6.384500000000000000e+04,-1.100000000000000039e-04,1.499999999999999869e-04,5.000000000000000240e-05,5.000000000000000104e-04,-1.699999999999999851e-04,-8.000000000000000654e-05,0.000000000000000000e+00,2.000000000000000164e-05,5.000000000000000000e+00,2.100000000000000000e+01
6.384600000000000000e+04,-1.100000000000000039e-04,1.499999999999999869e-04,5.000000000000000240e-05,5.000000000000000104e-04,-1.699999999999999851e-04,-8.000000000000000654e-05,0.000000000000000000e+00,2.000000000000000164e-05,5.000000000000000000e+00,2.100000000000000000e+01
6.384700000000000000e+04,-1.100000000000000039e-04,1.499999999999999869e-04,5.000000000000000240e-05,5.000000000000000104e-04,-1.699999999999999851e-04,-8.000000000000000654e-05,0.000000000000000000e+00,2.000000000000000164e-05,5.000000000000000000e+00,2.100000000000000000e+01
6.384800000000000000e+04,-1.100000000000000039e-04,1.499999999999999869e-04,5.000000000000000240e-05,5.000000000000000104e-04,-1.699999999999999851e-04,-8.000000000000000654e-05,0.000000000000000000e+00,2.000000000000000164e-05,5.000000000000000000e+00,2.100000000000000000e+01
6.384900000000000000e+04,-1.100000000000000039e-04,1.499999999999999869e-04,5.000000000000000240e-05,5.000000000000000104e-04,-1.699999999999999851e-04,-8.000000000000000654e-05,0.000000000000000000e+00,2.000000000000000164e-05,5.000000000000000000e+00,2.100000000000000000e+01
6.385000000000000000e+04,-1.100000000000000039e-04,1.499999999999999869e-04,5.000000000000000240e-05,5.000000000000000104e-04,-1.699999999999999851e-04,-8.000000000000000654e-05,0.000000000000000000e+00,2.000000000000000164e-05,5.000000000000000000e+00,2.100000000000000000e+01
6.385100000000000000e+04,-1.100000000000000039e-04,1.499999999999999869e-04,5.000000000000000240e-05,5.000000000000000104e-04,-1.699999999999999851e-04,-8.000000000000000654e-05,0.000000000000000000e+00,2.000000000000000164e-05,5.000000000000000000e+00,2.100000000000000000e+01
6.385200000000000000e+04,-1.100000000000000039e-04,1.499999999999999869e-04,5.000000000000000240e-05,5.000000000000000104e-04,-1.699999999999999851e-04,-8.000000000000000654e-05,0.000000000000000000e+00,2.000000000000000164e-05,5.000000000000000000e+00,2.100000000000000000e+01
6.385300000000000000e+04,-1.100000000000000039e-04,1.499999999999999869e-04,5.000000000000000240e-05,5.000000000000000104e-04,-1.699999999999999851e-04,-8.000000000000000654e-05,0.000000000000000000e+00,2.000000000000000164e-05,5.000000000000000000e+00,2.100000000000000000e+01
6.385400000000000000e+04,-1.699999999999999851e-04,1.000000000000000048e-04,2.600000000000000314e-04,-4.200000000000000174e-04,-1.000000000000000082e-05,-1.100000000000000039e-04,0.000000000000000000e+00,2.999999999999999737e-05,5.000000000000000000e+00,2.100000000000000000e+01
6.385500000000000000e+04,1.800000000000000113e-04,1.600000000000000131e-04,4.499999999999999877e-04,4.299999999999999894e-04,-2.999999999999999737e-04,-4.000000000000000327e-05,6.999999999999999387e-05,1.699999999999999851e-04,5.000000000000000000e+00,2.100000000000000000e+01
6.385600000000000000e+04,1.800000000000000113e-04,1.600000000000000131e-04,4.499999999999999877e-04,4.299999999999999894e-04,-2.999999999999999737e-04,-4.000000000000000327e-05,6.999999999999999387e-05,1.699999999999999851e-04,5.000000000000000000e+00,2.100000000000000000e+01
6.385700000000000000e+04,1.800000000000000113e-04,1.600000000000000131e-04,4.499999999999999877e-04,4.299999999999999894e-04,-2.999999999999999737e-04,-4.000000000000000327e-05,6.999999999999999387e-05,1.699999999999999851e-04,5.000000000000000000e+00,2.100000000000000000e+01
6.385800000000000000e+04,1.800000000000000113e-04,1.600000000000000131e-04,4.499999999999999877e-04,4.299999999999999894e-04,-2.999999999999999737e-04,-4.000000000000000327e-05,6.999999999999999387e-05,1.699999999999999851e-04,5.000000000000000000e+00,2.100000000000000000e+01
6.385900000000000000e+04,1.800000000000000113e-04,1.600000000000000131e-04,4.499999999999999877e-04,4.299999999999999894e-04,-2.999999999999999737e-04,-4.000000000000000327e-05,6.999999999999999387e-05,1.699999999999999851e-04,5.000000000000000000e+00,2.100000000000000000e+01
6.386000000000000000e+04,1.800000000000000113e-04,1.600000000000000131e-04,4.499999999999999877e-04,4.299999999999999894e-04,-2.999999999999999737e-04,-4.000000000000000327e-05,6.999999999999999387e-05,1.699999999999999851e-04,5.000000000000000000e+00,2.100000000000000000e+01
6.386100000000000000e+04,1.800000000000000113e-04,1.600000000000000131e-04,4.499999999999999877e-04,4.299999999999999894e-04,-2.999999999999999737e-04,-4.000000000000000327e-05,6.999999999999999387e-05,1.699999999999999851e-04,5.000000000000000000e+00,2.100000000000000000e+01
6.386200000000000000e+04,1.800000000000000113e-04,1.600000000000000131e-04,4.499999999999999877e-04,4.299999999999999894e-04,-2.999999999999999737e-04,-4.000000000000000327e-05,6.999999999999999387e-05,1.699999999999999851e-04,5.000000000000000000e+00,2.100000000000000000e+01
6.386300000000000000e+04,1.800000000000000113e-04,1.600000000000000131e-04,4.499999999999999877e-04,4.299999999999999894e-04,-2.999999999999999737e-04,-4.000000000000000327e-05,6.999999999999999387e-05,1.699999999999999851e-04,5.000000000000000000e+00,2.100000000000000000e+01
6.386400000000000000e+04,1.800000000000000113e-04,1.600000000000000131e-04,4.499999999999999877e-04,4.299999999999999894e-04,-2.999999999999999737e-04,-4.000000000000000327e-05,6.999999999999999387e-05,1.699999999999999851e-04,5.000000000000000000e+00,2.100000000000000000e+01
6.386500000000000000e+04,1.800000000000000113e-04,1.600000000000000131e-04,4.499999999999999877e-04,4.299999999999999894e-04,-2.999999999999999737e-04,-4.000000000000000327e-05,6.999999999999999387e-05,1.699999999999999851e-04,5.000000000000000000e+00,2.100000000000000000e+01
6.386600000000000000e+04,1.800000000000000113e-04,1.600000000000000131e-04,4.499999999999999877e-04,4.299999999999999894e-04,-2.999999999999999737e-04,-4.000000000000000327e-05,6.999999999999999387e-05,1.699999999999999851e-04,5.000000000000000000e+00,2.100000000000000000e+01
6.386700000000000000e+04,1.800000000000000113e-04,1.600000000000000131e-04,4.499999999999999877e-04,4.299999999999999894e-04,-2.999999999999999737e-04,-4.000000000000000327e-05,6.999999999999999387e-05,1.699999999999999851e-04,5.000000000000000000e+00,2.100000000000000000e+01
6.386800000000000000e+04,1.800000000000000113e-04,1.600000000000000131e-04,4.499999999999999877e-04,4.299999999999999894e-04,-2.999999999999999737e-04,-4.000000000000000327e-05,6.999999999999999387e-05,1.699999999999999851e-04,5.000000000000000000e+00,2.100000000000000000e+01
6.386900000000000000e+04,1.800000000000000113e-04,1.600000000000000131e-04,4.499999999999999877e-04,4.299999999999999894e-04,-2.999999999999999737e-04,-4.000000000000000327e-05,6.999999999999999387e-05,1.699999999999999851e-04,5.000000000000000000e+00,2.100000000000000000e+01
6.387000000000000000e+04,1.800000000000000113e-04,1.600000000000000131e-04,4.499999999999999877e-04,4.299999999999999894e-04,-2.999999999999999737e-04,-4.000000000000000327e-05,6.999999999999999387e-05,1.699999999999999851e-04,5.000000000000000000e+00,2.100000000000000000e+01
6.387100000000000000e+04,1.800000000000000113e-04,1.600000000000000131e-04,4.499999999999999877e-04,4.299999999999999894e-04,-2.999999999999999737e-04,-4.000000000000000327e-05,6.999999999999999387e-05,1.699999999999999851e-04,5.000000000000000000e+00,2.100000000000000000e+01
6.387200000000000000e+04,1.800000000000000113e-04,1.600000000000000131e-04,4.499999999999999877e-04,4.299999999999999894e-04,-2.999999999999999737e-04,-4.000000000000000327e-05,6.999999999999999387e-05,1.699999999999999851e-04,5.000000000000000000e+00,2.100000000000000000e+01
6.387300000000000000e+04,1.800000000000000113e-04,1.600000000000000131e-04,4.499999999999999877e-04,4.299999999999999894e-04,-2.999999999999999737e-04,-4.000000000000000327e-05,6.999999999999999387e-05,1.699999999999999851e-04,5.000000000000000000e+00,2.100000000000000000e+01
6.387400000000000000e+04,1.800000000000000113e-04,1.600000000000000131e-04,4.499999999999999877e-04,4.299999999999999894e-04,-2.999999999999999737e-04,-4.000000000000000327e-05,6.999999999999999387e-05,1.699999999999999851e-04,5.000000000000000000e+00,2.100000000000000000e+01
6.387500000000000000e+04,1.800000000000000113e-04,1.600000000000000131e-04,4.499999999999999877e-04,4.299999999999999894e-04,-2.999999999999999737e-04,-4.000000000000000327e-05,6.999999999999999387e-05,1.699999999999999851e-04,5.000000000000000000e+00,2.100000000000000000e+01
6.387600000000000000e+04,1.800000000000000113e-04,1.600000000000000131e-04,4.499999999999999877e-04,4.299999999999999894e-04,-2.999999999999999737e-04,-4.000000000000000327e-05,6.999999999999999387e-05,1.699999999999999851e-04,5.000000000000000000e+00,2.100000000000000000e+01
6.387700000000000000e+04,-1.000000000000000048e-04,-5.999999999999999474e-05,2.000000000000000164e-05,-2.600000000000000314e-04,-9.000000000000000567e-05,-4.000000000000000327e-05,-5.000000000000000240e-05,-1.000000000000000082e-05,5.000000000000000000e+00,2.100000000000000000e+01
6.387800000000000000e+04,-1.499999999999999869e-04,-5.999999999999999474e-05,2.399999999999999790e-04,7.599999999999999334e-04,9.599999999999999159e-04,1.800000000000000113e-04,1.000000000000000048e-04,1.000000000000000082e-05,5.000000000000000000e+00,2.100000000000000000e+01
6.387900000000000000e+04,-1.499999999999999869e-04,-5.999999999999999474e-05,2.399999999999999790e-04,7.599999999999999334e-04,9.599999999999999159e-04,1.800000000000000113e-04,1.000000000000000048e-04,1.000000000000000082e-05,5.000000000000000000e+00,2.100000000000000000e+01
6.388000000000000000e+04,-1.499999999999999869e-04,-5.999999999999999474e-05,2.399999999999999790e-04,7.599999999999999334e-04,9.599999999999999159e-04,1.800000000000000113e-04,1.000000000000000048e-04,1.000000000000000082e-05,5.000000000000000000e+00,2.100000000000000000e+01
6.388100000000000000e+04,-1.499999999999999869e-04,-5.999999999999999474e-05,2.399999999999999790e-04,7.599999999999999334e-04,9.599999999999999159e-04,1.800000000000000113e-04,1.000000000000000048e-04,1.000000000000000082e-05,5.000000000000000000e+00,2.100000000000000000e+01
6.388200000000000000e+04,-1.499999999999999869e-04,-5.999999999999999474e-05,2.399999999999999790e-04,7.599999999999999334e-04,9.599999999999999159e-04,1.800000000000000113e-04,1.000000000000000048e-04,1.000000000000000082e-05,5.000000000000000000e+00,2.100000000000000000e+01
6.388300000000000000e+04,-1.499999999999999869e-04,-5.999999999999999474e-05,2.399999999999999790e-04,7.599999999999999334e-04,9.599999999999999159e-04,1.800000000000000113e-04,1.000000000000000048e-04,1.000000000000000082e-05,5.000000000000000000e+00,2.100000000000000000e+01
6.388400000000000000e+04,-1.499999999999999869e-04,-5.999999999999999474e-05,2.399999999999999790e-04,7.599999999999999334e-04,9.599999999999999159e-04,1.800000000000000113e-04,1.000000000000000048e-04,1.000000000000000082e-05,5.000000000000000000e+00,2.100000000000000000e+01
6.388500000000000000e+04,-1.499999999999999869e-04,-5.999999999999999474e-05,2.399999999999999790e-04,7.599999999999999334e-04,9.599999999999999159e-04,1.800000000000000113e-04,1.000000000000000048e-04,1.000000000000000082e-05,5.000000000000000000e+00,2.100000000000000000e+01
6.388600000000000000e+04,-1.499999999999999869e-04,-5.999999999999999474e-05,2.399999999999999790e-04,7.599999999999999334e-04,9.599999999999999159e-04,1.800000000000000113e-04,1.000000000000000048e-04,1.000000000000000082e-05,5.000000000000000000e+00,2.100000000000000000e+01
6.388900000000000000e+04,-1.499999999999999869e-04,-5.999999999999999474e-05,2.399999999999999790e-04,7.599999999999999334e-04,9.599999999999999159e-04,1.800000000000000113e-04,1.000000000000000048e-04,1.000000000000000082e-05,5.000000000000000000e+00,2.100000000000000000e+01
6.389000000000000000e+04,-1.499999999999999869e-04,-5.999999999999999474e-05,2.399999999999999790e-04,7.599999999999999334e-04,9.599999999999999159e-04,1.800000000000000113e-04,1.000000000000000048e-04,1.000000000000000082e-05,5.000000000000000000e+00,2.100000000000000000e+01
6.389100000000000000e+04,-2.000000000000000164e-05,1.499999999999999869e-04,1.300000000000000157e-04,-4.000000000000000327e-05,0.000000000000000000e+00,1.899999999999999834e-04,9.000000000000000567e-05,0.000000000000000000e+00,5.000000000000000000e+00,2.100000000000000000e+01
6.389200000000000000e+04,-1.300000000000000157e-04,-5.000000000000000240e-05,-4.599999999999999597e-04,1.399999999999999877e-04,-4.000000000000000327e-05,6.999999999999999387e-05,1.000000000000000082e-05,1.000000000000000082e-05,5.000000000000000000e+00,2.100000000000000000e+01
6.389300000000000000e+04,-1.300000000000000157e-04,-5.000000000000000240e-05,-4.599999999999999597e-04,1.399999999999999877e-04,-4.000000000000000327e-05,6.999999999999999387e-05,1.000000000000000082e-05,1.000000000000000082e-05,5.000000000000000000e+00,2.100000000000000000e+01
6.389400000000000000e+04,-1.300000000000000157e-04,-5.000000000000000240e-05,-4.599999999999999597e-04,1.399999999999999877e-04,-4.000000000000000327e-05,6.999999999999999387e-05,1.000000000000000082e-05,1.000000000000000082e-05,5.000000000000000000e+00,2.100000000000000000e+01
6.389500000000000000e+04,-1.300000000000000157e-04,-5.000000000000000240e-05,-4.599999999999999597e-04,1.399999999999999877e-04,-4.000000000000000327e-05,6.999999999999999387e-05,1.000000000000000082e-05,1.000000000000000082e-05,5.000000000000000000e+00,2.100000000000000000e+01
6.389600000000000000e+04,-1.300000000000000157e-04,-5.000000000000000240e-05,-4.599999999999999597e-04,1.399999999999999877e-04,-4.000000000000000327e-05,6.999999999999999387e-05,1.000000000000000082e-05,1.000000000000000082e-05,5.000000000000000000e+00,2.100000000000000000e+01
6.389700000000000000e+04,-1.300000000000000157e-04,-5.000000000000000240e-05,-4.599999999999999597e-04,1.399999999999999877e-04,-4.000000000000000327e-05,6.999999999999999387e-05,1.000000000000000082e-05,1.000000000000000082e-05,5.000000000000000000e+00,2.100000000000000000e+01
6.389800000000000000e+04,-1.300000000000000157e-04,-5.000000000000000240e-05,-4.599999999999999597e-04,1.399999999999999877e-04,-4.000000000000000327e-05,6.999999999999999387e-05,1.000000000000000082e-05,1.000000000000000082e-05,5.000000000000000000e+00,2.100000000000000000e+01
6.389900000000000000e+04,-1.300000000000000157e-04,-5.000000000000000240e-05,-4.599999999999999597e-04,1.399999999999999877e-04,-4.000000000000000327e-05,6.999999999999999387e-05,1.000000000000000082e-05,1.000000000000000082e-05,5.000000000000000000e+00,2.100000000000000000e+01
6.390000000000000000e+04,-1.300000000000000157e-04,-5.000000000000000240e-05,-4.599999999999999597e-04,1.399999999999999877e-04,-4.000000000000000327e-05,6.999999999999999387e-05,1.000000000000000082e-05,1.000000000000000082e-05,5.000000000000000000e+00,2.100000000000000000e+01
6.390100000000000000e+04,-1.300000000000000157e-04,-5.000000000000000240e-05,-4.599999999999999597e-04,1.399999999999999877e-04,-4.000000000000000327e-05,6.999999999999999387e-05,1.000000000000000082e-05,1.000000000000000082e-05,5.000000000000000000e+00,2.100000000000000000e+01
6.390200000000000000e+04,-1.300000000000000157e-04,-5.000000000000000240e-05,-4.599999999999999597e-04,1.399999999999999877e-04,-4.000000000000000327e-05,6.999999999999999387e-05,1.000000000000000082e-05,1.000000000000000082e-05,5.000000000000000000e+00,2.100000000000000000e+01
6.390300000000000000e+04,-1.300000000000000157e-04,-5.000000000000000240e-05,-4.599999999999999597e-04,1.399999999999999877e-04,-4.000000000000000327e-05,6.999999999999999387e-05,1.000000000000000082e-05,1.000000000000000082e-05,5.000000000000000000e+00,2.100000000000000000e+01
6.390400000000000000e+04,-1.300000000000000157e-04,-5.000000000000000240e-05,-4.599999999999999597e-04,1.399999999999999877e-04,-4.000000000000000327e-05,6.999999999999999387e-05,1.000000000000000082e-05,1.000000000000000082e-05,5.000000000000000000e+00,2.100000000000000000e+01
6.390500000000000000e+04,-1.300000000000000157e-04,-5.000000000000000240e-05,-4.599999999999999597e-04,1.399999999999999877e-04,-4.000000000000000327e-05,6.999999999999999387e-05,1.000000000000000082e-05,1.000000000000000082e-05,5.000000000000000000e+00,2.100000000000000000e+01
6.390600000000000000e+04,-1.300000000000000157e-04,-5.000000000000000240e-05,-4.599999999999999597e-04,1.399999999999999877e-04,-4.000000000000000327e-05,6.999999999999999387e-05,1.000000000000000082e-05,1.000000000000000082e-05,5.000000000000000000e+00,2.100000000000000000e+01
6.390700000000000000e+04,-1.300000000000000157e-04,-5.000000000000000240e-05,-4.599999999999999597e-04,1.399999999999999877e-04,-4.000000000000000327e-05,6.999999999999999387e-05,1.000000000000000082e-05,1.000000000000000082e-05,5.000000000000000000e+00,2.100000000000000000e+01
6.390800000000000000e+04,-1.300000000000000157e-04,-5.000000000000000240e-05,-4.599999999999999597e-04,1.399999999999999877e-04,-4.000000000000000327e-05,6.999999999999999387e-05,1.000000000000000082e-05,1.000000000000000082e-05,5.000000000000000000e+00,2.100000000000000000e+01
6.390900000000000000e+04,-1.300000000000000157e-04,-5.000000000000000240e-05,-4.599999999999999597e-04,1.399999999999999877e-04,-4.000000000000000327e-05,6.999999999999999387e-05,1.000000000000000082e-05,1.000000000000000082e-05,5.000000000000000000e+00,2.100000000000000000e+01
6.391000000000000000e+04,-1.300000000000000157e-04,-5.000000000000000240e-05,-4.599999999999999597e-04,1.399999999999999877e-04,-4.000000000000000327e-05,6.999999999999999387e-05,1.000000000000000082e-05,1.000000000000000082e-05,5.000000000000000000e+00,2.100000000000000000e+01
6.391100000000000000e+04,-1.300000000000000157e-04,-5.000000000000000240e-05,-4.599999999999999597e-04,1.399999999999999877e-04,-4.000000000000000327e-05,6.999999999999999387e-05,1.000000000000000082e-05,1.000000000000000082e-05,5.000000000000000000e+00,2.100000000000000000e+01
6.391200000000000000e+04,-1.300000000000000157e-04,-5.000000000000000240e-05,-4.599999999999999597e-04,1.399999999999999877e-04,-4.000000000000000327e-05,6.999999999999999387e-05,1.000000000000000082e-05,1.000000000000000082e-05,5.000000000000000000e+00,2.100000000000000000e+01
6.391300000000000000e+04,-1.300000000000000157e-04,-5.000000000000000240e-05,-4.599999999999999597e-04,1.399999999999999877e-04,-4.000000000000000327e-05,6.999999999999999387e-05,1.000000000000000082e-05,1.000000000000000082e-05,5.000000000000000000e+00,2.100000000000000000e+01
6.391400000000000000e+04,-2.999999999999999737e-05,-4.000000000000000327e-05,-2.799999999999999755e-04,2.000000000000000164e-05,1.100000000000000039e-04,8.000000000000000654e-05,6.999999999999999387e-05,-2.000000000000000164e-05,5.000000000000000000e+00,2.100000000000000000e+01
6.391500000000000000e+04,1.800000000000000113e-04,5.999999999999999474e-05,3.799999999999999667e-04,8.900000000000000576e-04,6.999999999999999929e-04,-2.999999999999999737e-05,-6.999999999999999387e-05,-1.000000000000000082e-05,5.000000000000000000e+00,2.100000000000000000e+01
6.391600000000000000e+04,0.000000000000000000e+00,-4.000000000000000327e-05,-2.600000000000000314e-04,-1.000000000000000082e-05,-2.200000000000000078e-04,4.000000000000000327e-05,2.999999999999999737e-05,1.000000000000000082e-05,5.000000000000000000e+00,2.100000000000000000e+01
6.391700000000000000e+04,0.000000000000000000e+00,-4.000000000000000327e-05,-2.600000000000000314e-04,-1.000000000000000082e-05,-2.200000000000000078e-04,4.000000000000000327e-05,2.999999999999999737e-05,1.000000000000000082e-05,5.000000000000000000e+00,2.100000000000000000e+01
6.391800000000000000e+04,0.000000000000000000e+00,-4.000000000000000327e-05,-2.600000000000000314e-04,-1.000000000000000082e-05,-2.200000000000000078e-04,4.000000000000000327e-05,2.999999999999999737e-05,1.000000000000000082e-05,5.000000000000000000e+00,2.100000000000000000e+01
6.391900000000000000e+04,0.000000000000000000e+00,-4.000000000000000327e-05,-2.600000000000000314e-04,-1.000000000000000082e-05,-2.200000000000000078e-04,4.000000000000000327e-05,2.999999999999999737e-05,1.000000000000000082e-05,5.000000000000000000e+00,2.100000000000000000e+01
6.392000000000000000e+04,0.000000000000000000e+00,-4.000000000000000327e-05,-2.600000000000000314e-04,-1.000000000000000082e-05,-2.200000000000000078e-04,4.000000000000000327e-05,2.999999999999999737e-05,1.000000000000000082e-05,5.000000000000000000e+00,2.100000000000000000e+01
6.392100000000000000e+04,0.000000000000000000e+00,-4.000000000000000327e-05,-2.600000000000000314e-04,-1.000000000000000082e-05,-2.200000000000000078e-04,4.000000000000000327e-05,2.999999999999999737e-05,1.000000000000000082e-05,5.000000000000000000e+00,2.100000000000000000e+01
6.392200000000000000e+04,0.000000000000000000e+00,-4.000000000000000327e-05,-2.600000000000000314e-04,-1.000000000000000082e-05,-2.200000000000000078e-04,4.000000000000000327e-05,2.999999999999999737e-05,1.000000000000000082e-05,5.000000000000000000e+00,2.100000000000000000e+01
6.392300000000000000e+04,0.000000000000000000e+00,-4.000000000000000327e-05,-2.600000000000000314e-04,-1.000000000000000082e-05,-2.200000000000000078e-04,4.000000000000000327e-05,2.999999999999999737e-05,1.000000000000000082e-05,5.000000000000000000e+00,2.100000000000000000e+01
6.392400000000000000e+04,0.000000000000000000e+00,-4.000000000000000327e-05,-2.600000000000000314e-04,-1.000000000000000082e-05,-2.200000000000000078e-04,4.000000000000000327e-05,2.999999999999999737e-05,1.000000000000000082e-05,5.000000000000000000e+00,2.100000000000000000e+01
6.392500000000000000e+04,0.000000000000000000e+00,-4.000000000000000327e-05,-2.600000000000000314e-04,-1.000000000000000082e-05,-2.200000000000000078e-04,4.000000000000000327e-05,2.999999999999999737e-05,1.000000000000000082e-05,5.000000000000000000e+00,2.100000000000000000e+01
6.392600000000000000e+04,0.000000000000000000e+00,-4.000000000000000327e-05,-2.600000000000000314e-04,-1.000000000000000082e-05,-2.200000000000000078e-04,4.000000000000000327e-05,2.999999999999999737e-05,1.000000000000000082e-05,5.000000000000000000e+00,2.100000000000000000e+01
6.392700000000000000e+04,0.000000000000000000e+00,-4.000000000000000327e-05,-2.600000000000000314e-04,-1.000000000000000082e-05,-2.200000000000000078e-04,4.000000000000000327e-05,2.999999999999999737e-05,1.000000000000000082e-05,5.000000000000000000e+00,2.100000000000000000e+01
6.392800000000000000e+04,0.000000000000000000e+00,-4.000000000000000327e-05,-2.600000000000000314e-04,-1.000000000000000082e-05,-2.200000000000000078e-04,4.000000000000000327e-05,2.999999999999999737e-05,1.000000000000000082e-05,5.000000000000000000e+00,2.100000000000000000e+01
6.392900000000000000e+04,0.000000000000000000e+00,-4.000000000000000327e-05,-2.600000000000000314e-04,-1.000000000000000082e-05,-2.200000000000000078e-04,4.000000000000000327e-05,2.999999999999999737e-05,1.000000000000000082e-05,5.000000000000000000e+00,2.100000000000000000e+01
6.393000000000000000e+04,0.000000000000000000e+00,-4.000000000000000327e-05,-2.600000000000000314e-04,-1.000000000000000082e-05,-2.200000000000000078e-04,4.000000000000000327e-05,2.999999999999999737e-05,1.000000000000000082e-05,5.000000000000000000e+00,2.100000000000000000e+01
6.393100000000000000e+04,0.000000000000000000e+00,-4.000000000000000327e-05,-2.600000000000000314e-04,-1.000000000000000082e-05,-2.200000000000000078e-04,4.000000000000000327e-05,2.999999999999999737e-05,1.000000000000000082e-05,5.000000000000000000e+00,2.100000000000000000e+01
6.393200000000000000e+04,0.000000000000000000e+00,-4.000000000000000327e-05,-2.600000000000000314e-04,-1.000000000000000082e-05,-2.200000000000000078e-04,4.000000000000000327e-05,2.999999999999999737e-05,1.000000000000000082e-05,5.000000000000000000e+00,2.100000000000000000e+01
6.393300000000000000e+04,0.000000000000000000e+00,-4.000000000000000327e-05,-2.600000000000000314e-04,-1.000000000000000082e-05,-2.200000000000000078e-04,4.000000000000000327e-05,2.999999999999999737e-05,1.000000000000000082e-05,5.000000000000000000e+00,2.100000000000000000e+01
6.393400000000000000e+04,0.000000000000000000e+00,-4.000000000000000327e-05,-2.600000000000000314e-04,-1.000000000000000082e-05,-2.200000000000000078e-04,4.000000000000000327e-05,2.999999999999999737e-05,1.000000000000000082e-05,5.000000000000000000e+00,2.100000000000000000e+01
6.393500000000000000e+04,0.000000000000000000e+00,-4.000000000000000327e-05,-2.600000000000000314e-04,-1.000000000000000082e-05,-2.200000000000000078e-04,4.000000000000000327e-05,2.999999999999999737e-05,1.000000000000000082e-05,5.000000000000000000e+00,2.100000000000000000e+01
6.393700000000000000e+04,0.000000000000000000e+00,-4.000000000000000327e-05,-2.600000000000000314e-04,-1.000000000000000082e-05,-2.200000000000000078e-04,4.000000000000000327e-05,2.999999999999999737e-05,1.000000000000000082e-05,5.000000000000000000e+00,2.100000000000000000e+01
6.394000000000000000e+04,0.000000000000000000e+00,-4.000000000000000327e-05,-2.600000000000000314e-04,-1.000000000000000082e-05,-2.200000000000000078e-04,4.000000000000000327e-05,2.999999999999999737e-05,1.000000000000000082e-05,5.000000000000000000e+00,2.100000000000000000e+01
6.394100000000000000e+04,-3.899999999999999929e-04,-5.299999999999999807e-04,-7.599999999999999334e-04,-5.000000000000000240e-05,2.200000000000000078e-04,-2.200000000000000078e-04,-2.000000000000000096e-04,-1.600000000000000131e-04,5.000000000000000000e+00,2.100000000000000000e+01
6.394200000000000000e+04,-3.899999999999999929e-04,-5.299999999999999807e-04,-7.599999999999999334e-04,-5.000000000000000240e-05,2.200000000000000078e-04,-2.200000000000000078e-04,-2.000000000000000096e-04,-1.600000000000000131e-04,5.000000000000000000e+00,2.100000000000000000e+01
6.394300000000000000e+04,-3.899999999999999929e-04,-5.299999999999999807e-04,-7.599999999999999334e-04,-5.000000000000000240e-05,2.200000000000000078e-04,-2.200000000000000078e-04,-2.000000000000000096e-04,-1.600000000000000131e-04,5.000000000000000000e+00,2.100000000000000000e+01
6.394500000000000000e+04,-3.899999999999999929e-04,-5.299999999999999807e-04,-7.599999999999999334e-04,-5.000000000000000240e-05,2.200000000000000078e-04,-2.200000000000000078e-04,-2.000000000000000096e-04,-1.600000000000000131e-04,5.000000000000000000e+00,2.100000000000000000e+01
6.394600000000000000e+04,-3.899999999999999929e-04,-5.299999999999999807e-04,-7.599999999999999334e-04,-5.000000000000000240e-05,2.200000000000000078e-04,-2.200000000000000078e-04,-2.000000000000000096e-04,-1.600000000000000131e-04,5.000000000000000000e+00,2.100000000000000000e+01
6.394700000000000000e+04,-3.899999999999999929e-04,-5.299999999999999807e-04,-7.599999999999999334e-04,-5.000000000000000240e-05,2.200000000000000078e-04,-2.200000000000000078e-04,-2.000000000000000096e-04,-1.600000000000000131e-04,5.000000000000000000e+00,2.100000000000000000e+01
6.394800000000000000e+04,-3.899999999999999929e-04,-5.299999999999999807e-04,-7.599999999999999334e-04,-5.000000000000000240e-05,2.200000000000000078e-04,-2.200000000000000078e-04,-2.000000000000000096e-04,-1.600000000000000131e-04,5.000000000000000000e+00,2.100000000000000000e+01
6.394900000000000000e+04,-3.899999999999999929e-04,-5.299999999999999807e-04,-7.599999999999999334e-04,-5.000000000000000240e-05,2.200000000000000078e-04,-2.200000000000000078e-04,-2.000000000000000096e-04,-1.600000000000000131e-04,5.000000000000000000e+00,2.100000000000000000e+01
6.395000000000000000e+04,-3.899999999999999929e-04,-5.299999999999999807e-04,-7.599999999999999334e-04,-5.000000000000000240e-05,2.200000000000000078e-04,-2.200000000000000078e-04,-2.000000000000000096e-04,-1.600000000000000131e-04,5.000000000000000000e+00,2.100000000000000000e+01
6.395100000000000000e+04,-3.899999999999999929e-04,-5.299999999999999807e-04,-7.599999999999999334e-04,-5.000000000000000240e-05,2.200000000000000078e-04,-2.200000000000000078e-04,-2.000000000000000096e-04,-1.600000000000000131e-04,5.000000000000000000e+00,2.100000000000000000e+01
6.395200000000000000e+04,1.699999999999999851e-04,1.000000000000000048e-04,1.100000000000000039e-04,-2.799999999999999755e-04,-1.899999999999999834e-04,-1.600000000000000131e-04,-4.000000000000000327e-05,4.000000000000000327e-05,5.000000000000000000e+00,2.100000000000000000e+01
6.395300000000000000e+04,1.699999999999999851e-04,1.000000000000000048e-04,1.100000000000000039e-04,-2.799999999999999755e-04,-1.899999999999999834e-04,-1.600000000000000131e-04,-4.000000000000000327e-05,4.000000000000000327e-05,5.000000000000000000e+00,2.100000000000000000e+01
6.395400000000000000e+04,1.699999999999999851e-04,1.000000000000000048e-04,1.100000000000000039e-04,-2.799999999999999755e-04,-1.899999999999999834e-04,-1.600000000000000131e-04,-4.000000000000000327e-05,4.000000000000000327e-05,5.000000000000000000e+00,2.100000000000000000e+01
6.395500000000000000e+04,1.699999999999999851e-04,1.000000000000000048e-04,1.100000000000000039e-04,-2.799999999999999755e-04,-1.899999999999999834e-04,-1.600000000000000131e-04,-4.000000000000000327e-05,4.000000000000000327e-05,5.000000000000000000e+00,2.100000000000000000e+01
6.395600000000000000e+04,1.699999999999999851e-04,1.000000000000000048e-04,1.100000000000000039e-04,-2.799999999999999755e-04,-1.899999999999999834e-04,-1.600000000000000131e-04,-4.000000000000000327e-05,4.000000000000000327e-05,5.000000000000000000e+00,2.100000000000000000e+01
6.395700000000000000e+04,1.699999999999999851e-04,1.000000000000000048e-04,1.100000000000000039e-04,-2.799999999999999755e-04,-1.899999999999999834e-04,-1.600000000000000131e-04,-4.000000000000000327e-05,4.000000000000000327e-05,5.000000000000000000e+00,2.100000000000000000e+01
6.395800000000000000e+04,1.699999999999999851e-04,1.000000000000000048e-04,1.100000000000000039e-04,-2.799999999999999755e-04,-1.899999999999999834e-04,-1.600000000000000131e-04,-4.000000000000000327e-05,4.000000000000000327e-05,5.000000000000000000e+00,2.100000000000000000e+01
6.395900000000000000e+04,1.699999999999999851e-04,1.000000000000000048e-04,1.100000000000000039e-04,-2.799999999999999755e-04,-1.899999999999999834e-04,-1.600000000000000131e-04,-4.000000000000000327e-05,4.000000000000000327e-05,5.000000000000000000e+00,2.100000000000000000e+01
6.396000000000000000e+04,1.699999999999999851e-04,1.000000000000000048e-04,1.100000000000000039e-04,-2.799999999999999755e-04,-1.899999999999999834e-04,-1.600000000000000131e-04,-4.000000000000000327e-05,4.000000000000000327e-05,5.000000000000000000e+00,2.100000000000000000e+01
6.396100000000000000e+04,1.699999999999999851e-04,1.000000000000000048e-04,1.100000000000000039e-04,-2.799999999999999755e-04,-1.899999999999999834e-04,-1.600000000000000131e-04,-4.000000000000000327e-05,4.000000000000000327e-05,5.000000000000000000e+00,2.100000000000000000e+01
6.396200000000000000e+04,1.699999999999999851e-04,1.000000000000000048e-04,1.100000000000000039e-04,-2.799999999999999755e-04,-1.899999999999999834e-04,-1.600000000000000131e-04,-4.000000000000000327e-05,4.000000000000000327e-05,5.000000000000000000e+00,2.100000000000000000e+01
6.396300000000000000e+04,1.699999999999999851e-04,1.000000000000000048e-04,1.100000000000000039e-04,-2.799999999999999755e-04,-1.899999999999999834e-04,-1.600000000000000131e-04,-4.000000000000000327e-05,4.000000000000000327e-05,5.000000000000000000e+00,2.100000000000000000e+01
6.396400000000000000e+04,1.699999999999999851e-04,1.000000000000000048e-04,1.100000000000000039e-04,-2.799999999999999755e-04,-1.899999999999999834e-04,-1.600000000000000131e-04,-4.000000000000000327e-05,4.000000000000000327e-05,5.000000000000000000e+00,2.100000000000000000e+01
6.396500000000000000e+04,1.699999999999999851e-04,1.000000000000000048e-04,1.100000000000000039e-04,-2.799999999999999755e-04,-1.899999999999999834e-04,-1.600000000000000131e-04,-4.000000000000000327e-05,4.000000000000000327e-05,5.000000000000000000e+00,2.100000000000000000e+01
6.396600000000000000e+04,1.699999999999999851e-04,1.000000000000000048e-04,1.100000000000000039e-04,-2.799999999999999755e-04,-1.899999999999999834e-04,-1.600000000000000131e-04,-4.000000000000000327e-05,4.000000000000000327e-05,5.000000000000000000e+00,2.100000000000000000e+01
6.396700000000000000e+04,1.699999999999999851e-04,1.000000000000000048e-04,1.100000000000000039e-04,-2.799999999999999755e-04,-1.899999999999999834e-04,-1.600000000000000131e-04,-4.000000000000000327e-05,4.000000000000000327e-05,5.000000000000000000e+00,2.100000000000000000e+01
6.396800000000000000e+04,1.699999999999999851e-04,1.000000000000000048e-04,1.100000000000000039e-04,-2.799999999999999755e-04,-1.899999999999999834e-04,-1.600000000000000131e-04,-4.000000000000000327e-05,4.000000000000000327e-05,5.000000000000000000e+00,2.100000000000000000e+01
6.396900000000000000e+04,1.699999999999999851e-04,1.000000000000000048e-04,1.100000000000000039e-04,-2.799999999999999755e-04,-1.899999999999999834e-04,-1.600000000000000131e-04,-4.000000000000000327e-05,4.000000000000000327e-05,5.000000000000000000e+00,2.100000000000000000e+01
6.397000000000000000e+04,1.699999999999999851e-04,1.000000000000000048e-04,1.100000000000000039e-04,-2.799999999999999755e-04,-1.899999999999999834e-04,-1.600000000000000131e-04,-4.000000000000000327e-05,4.000000000000000327e-05,5.000000000000000000e+00,2.100000000000000000e+01
6.397100000000000000e+04,1.699999999999999851e-04,1.000000000000000048e-04,1.100000000000000039e-04,-2.799999999999999755e-04,-1.899999999999999834e-04,-1.600000000000000131e-04,-4.000000000000000327e-05,4.000000000000000327e-05,5.000000000000000000e+00,2.100000000000000000e+01
6.397200000000000000e+04,1.699999999999999851e-04,1.000000000000000048e-04,1.100000000000000039e-04,-2.799999999999999755e-04,-1.899999999999999834e-04,-1.600000000000000131e-04,-4.000000000000000327e-05,4.000000000000000327e-05,5.000000000000000000e+00,2.100000000000000000e+01
6.397300000000000000e+04,1.699999999999999851e-04,1.000000000000000048e-04,1.100000000000000039e-04,-2.799999999999999755e-04,-1.899999999999999834e-04,-1.600000000000000131e-04,-4.000000000000000327e-05,4.000000000000000327e-05,5.000000000000000000e+00,2.100000000000000000e+01
6.397400000000000000e+04,-1.300000000000000157e-04,1.800000000000000113e-04,6.599999999999999964e-04,-3.899999999999999929e-04,-2.299999999999999799e-04,4.000000000000000327e-05,4.000000000000000327e-05,1.000000000000000082e-05,5.000000000000000000e+00,2.100000000000000000e+01
6.397500000000000000e+04,1.399999999999999877e-04,9.000000000000000567e-05,5.000000000000000104e-04,5.500000000000000331e-04,-4.000000000000000192e-04,-1.100000000000000039e-04,-5.999999999999999474e-05,-4.000000000000000327e-05,5.000000000000000000e+00,2.100000000000000000e+01
6.397600000000000000e+04,1.399999999999999877e-04,9.000000000000000567e-05,5.000000000000000104e-04,5.500000000000000331e-04,-4.000000000000000192e-04,-1.100000000000000039e-04,-5.999999999999999474e-05,-4.000000000000000327e-05,5.000000000000000000e+00,2.100000000000000000e+01
6.397700000000000000e+04,1.399999999999999877e-04,9.000000000000000567e-05,5.000000000000000104e-04,5.500000000000000331e-04,-4.000000000000000192e-04,-1.100000000000000039e-04,-5.999999999999999474e-05,-4.000000000000000327e-05,5.000000000000000000e+00,2.100000000000000000e+01
6.397800000000000000e+04,1.399999999999999877e-04,9.000000000000000567e-05,5.000000000000000104e-04,5.500000000000000331e-04,-4.000000000000000192e-04,-1.100000000000000039e-04,-5.999999999999999474e-05,-4.000000000000000327e-05,5.000000000000000000e+00,2.100000000000000000e+01
6.397900000000000000e+04,1.399999999999999877e-04,9.000000000000000567e-05,5.000000000000000104e-04,5.500000000000000331e-04,-4.000000000000000192e-04,-1.100000000000000039e-04,-5.999999999999999474e-05,-4.000000000000000327e-05,5.000000000000000000e+00,2.100000000000000000e+01
6.398000000000000000e+04,1.399999999999999877e-04,9.000000000000000567e-05,5.000000000000000104e-04,5.500000000000000331e-04,-4.000000000000000192e-04,-1.100000000000000039e-04,-5.999999999999999474e-05,-4.000000000000000327e-05,5.000000000000000000e+00,2.100000000000000000e+01
6.398100000000000000e+04,1.399999999999999877e-04,9.000000000000000567e-05,5.000000000000000104e-04,5.500000000000000331e-04,-4.000000000000000192e-04,-1.100000000000000039e-04,-5.999999999999999474e-05,-4.000000000000000327e-05,5.000000000000000000e+00,2.100000000000000000e+01
6.398200000000000000e+04,1.399999999999999877e-04,9.000000000000000567e-05,5.000000000000000104e-04,5.500000000000000331e-04,-4.000000000000000192e-04,-1.100000000000000039e-04,-5.999999999999999474e-05,-4.000000000000000327e-05,5.000000000000000000e+00,2.100000000000000000e+01
6.398300000000000000e+04,1.399999999999999877e-04,9.000000000000000567e-05,5.000000000000000104e-04,5.500000000000000331e-04,-4.000000000000000192e-04,-1.100000000000000039e-04,-5.999999999999999474e-05,-4.000000000000000327e-05,5.000000000000000000e+00,2.100000000000000000e+01
6.398400000000000000e+04,1.399999999999999877e-04,9.000000000000000567e-05,5.000000000000000104e-04,5.500000000000000331e-04,-4.000000000000000192e-04,-1.100000000000000039e-04,-5.999999999999999474e-05,-4.000000000000000327e-05,5.000000000000000000e+00,2.100000000000000000e+01
6.398500000000000000e+04,1.399999999999999877e-04,9.000000000000000567e-05,5.000000000000000104e-04,5.500000000000000331e-04,-4.000000000000000192e-04,-1.100000000000000039e-04,-5.999999999999999474e-05,-4.000000000000000327e-05,5.000000000000000000e+00,2.100000000000000000e+01
6.398600000000000000e+04,1.399999999999999877e-04,9.000000000000000567e-05,5.000000000000000104e-04,5.500000000000000331e-04,-4.000000000000000192e-04,-1.100000000000000039e-04,-5.999999999999999474e-05,-4.000000000000000327e-05,5.000000000000000000e+00,2.100000000000000000e+01
6.398900000000000000e+04,1.399999999999999877e-04,9.000000000000000567e-05,5.000000000000000104e-04,5.500000000000000331e-04,-4.000000000000000192e-04,-1.100000000000000039e-04,-5.999999999999999474e-05,-4.000000000000000327e-05,5.000000000000000000e+00,2.100000000000000000e+01
6.399000000000000000e+04,1.399999999999999877e-04,9.000000000000000567e-05,5.000000000000000104e-04,5.500000000000000331e-04,-4.000000000000000192e-04,-1.100000000000000039e-04,-5.999999999999999474e-05,-4.000000000000000327e-05,5.000000000000000000e+00,2.100000000000000000e+01
6.399100000000000000e+04,1.399999999999999877e-04,9.000000000000000567e-05,5.000000000000000104e-04,5.500000000000000331e-04,-4.000000000000000192e-04,-1.100000000000000039e-04,-5.999999999999999474e-05,-4.000000000000000327e-05,5.000000000000000000e+00,2.100000000000000000e+01
6.399200000000000000e+04,1.399999999999999877e-04,9.000000000000000567e-05,5.000000000000000104e-04,5.500000000000000331e-04,-4.000000000000000192e-04,-1.100000000000000039e-04,-5.999999999999999474e-05,-4.000000000000000327e-05,5.000000000000000000e+00,2.100000000000000000e+01
6.399300000000000000e+04,1.399999999999999877e-04,9.000000000000000567e-05,5.000000000000000104e-04,5.500000000000000331e-04,-4.000000000000000192e-04,-1.100000000000000039e-04,-5.999999999999999474e-05,-4.000000000000000327e-05,5.000000000000000000e+00,2.100000000000000000e+01
6.399400000000000000e+04,1.399999999999999877e-04,9.000000000000000567e-05,5.000000000000000104e-04,5.500000000000000331e-04,-4.000000000000000192e-04,-1.100000000000000039e-04,-5.999999999999999474e-05,-4.000000000000000327e-05,5.000000000000000000e+00,2.100000000000000000e+01
6.399500000000000000e+04,1.399999999999999877e-04,9.000000000000000567e-05,5.000000000000000104e-04,5.500000000000000331e-04,-4.000000000000000192e-04,-1.100000000000000039e-04,-5.999999999999999474e-05,-4.000000000000000327e-05,5.000000000000000000e+00,2.100000000000000000e+01
6.399600000000000000e+04,1.399999999999999877e-04,9.000000000000000567e-05,5.000000000000000104e-04,5.500000000000000331e-04,-4.000000000000000192e-04,-1.100000000000000039e-04,-5.999999999999999474e-05,-4.000000000000000327e-05,5.000000000000000000e+00,2.100000000000000000e+01
6.399700000000000000e+04,1.399999999999999877e-04,9.000000000000000567e-05,5.000000000000000104e-04,5.500000000000000331e-04,-4.000000000000000192e-04,-1.100000000000000039e-04,-5.999999999999999474e-05,-4.000000000000000327e-05,5.000000000000000000e+00,2.100000000000000000e+01
6.399800000000000000e+04,1.399999999999999877e-04,9.000000000000000567e-05,5.000000000000000104e-04,5.500000000000000331e-04,-4.000000000000000192e-04,-1.100000000000000039e-04,-5.999999999999999474e-05,-4.000000000000000327e-05,5.000000000000000000e+00,2.100000000000000000e+01
6.399900000000000000e+04,1.399999999999999877e-04,9.000000000000000567e-05,5.000000000000000104e-04,5.500000000000000331e-04,-4.000000000000000192e-04,-1.100000000000000039e-04,-5.999999999999999474e-05,-4.000000000000000327e-05,5.000000000000000000e+00,2.100000000000000000e+01
6.400000000000000000e+04,1.399999999999999877e-04,9.000000000000000567e-05,5.000000000000000104e-04,5.500000000000000331e-04,-4.000000000000000192e-04,-1.100000000000000039e-04,-5.999999999999999474e-05,-4.000000000000000327e-05,5.000000000000000000e+00,2.100000000000000000e+01
6.400100000000000000e+04,1.399999999999999877e-04,9.000000000000000567e-05,5.000000000000000104e-04,5.500000000000000331e-04,-4.000000000000000192e-04,-1.100000000000000039e-04,-5.999999999999999474e-05,-4.000000000000000327e-05,5.000000000000000000e+00,2.100000000000000000e+01
6.400200000000000000e+04,1.399999999999999877e-04,9.000000000000000567e-05,5.000000000000000104e-04,5.500000000000000331e-04,-4.000000000000000192e-04,-1.100000000000000039e-04,-5.999999999999999474e-05,-4.000000000000000327e-05,5.000000000000000000e+00,2.100000000000000000e+01
6.400300000000000000e+04,1.399999999999999877e-04,9.000000000000000567e-05,5.000000000000000104e-04,5.500000000000000331e-04,-4.000000000000000192e-04,-1.100000000000000039e-04,-5.999999999999999474e-05,-4.000000000000000327e-05,5.000000000000000000e+00,2.100000000000000000e+01
6.400400000000000000e+04,-5.999999999999999474e-05,-1.000000000000000048e-04,2.999999999999999737e-04,1.699999999999999851e-04,2.000000000000000096e-04,-8.000000000000000654e-05,2.000000000000000164e-05,0.000000000000000000e+00,5.000000000000000000e+00,2.100000000000000000e+01
6.400500000000000000e+04,-1.199999999999999895e-04,-3.499999999999999964e-04,-7.200000000000000453e-04,-1.170000000000000033e-03,-1.600000000000000131e-04,2.000000000000000164e-05,1.000000000000000082e-05,-9.000000000000000567e-05,5.000000000000000000e+00,2.100000000000000000e+01
6.400600000000000000e+04,-1.199999999999999895e-04,-3.499999999999999964e-04,-7.200000000000000453e-04,-1.170000000000000033e-03,-1.600000000000000131e-04,2.000000000000000164e-05,1.000000000000000082e-05,-9.000000000000000567e-05,5.000000000000000000e+00,2.100000000000000000e+01
6.400700000000000000e+04,-1.199999999999999895e-04,-3.499999999999999964e-04,-7.200000000000000453e-04,-1.170000000000000033e-03,-1.600000000000000131e-04,2.000000000000000164e-05,1.000000000000000082e-05,-9.000000000000000567e-05,5.000000000000000000e+00,2.100000000000000000e+01
6.400800000000000000e+04,-1.199999999999999895e-04,-3.499999999999999964e-04,-7.200000000000000453e-04,-1.170000000000000033e-03,-1.600000000000000131e-04,2.000000000000000164e-05,1.000000000000000082e-05,-9.000000000000000567e-05,5.000000000000000000e+00,2.100000000000000000e+01
6.400900000000000000e+04,-1.199999999999999895e-04,-3.499999999999999964e-04,-7.200000000000000453e-04,-1.170000000000000033e-03,-1.600000000000000131e-04,2.000000000000000164e-05,1.000000000000000082e-05,-9.000000000000000567e-05,5.000000000000000000e+00,2.100000000000000000e+01
6.401000000000000000e+04,-1.199999999999999895e-04,-3.499999999999999964e-04,-7.200000000000000453e-04,-1.170000000000000033e-03,-1.600000000000000131e-04,2.000000000000000164e-05,1.000000000000000082e-05,-9.000000000000000567e-05,5.000000000000000000e+00,2.100000000000000000e+01
6.401100000000000000e+04,1.699999999999999851e-04,2.100000000000000087e-04,5.299999999999999807e-04,2.700000000000000035e-04,-2.799999999999999755e-04,2.000000000000000164e-05,0.000000000000000000e+00,6.999999999999999387e-05,5.000000000000000000e+00,2.100000000000000000e+01
6.401200000000000000e+04,1.000000000000000048e-04,1.600000000000000131e-04,3.099999999999999999e-04,4.099999999999999912e-04,-4.200000000000000174e-04,-9.000000000000000567e-05,-1.000000000000000048e-04,-5.999999999999999474e-05,5.000000000000000000e+00,2.100000000000000000e+01
6.401300000000000000e+04,1.000000000000000048e-04,1.600000000000000131e-04,3.099999999999999999e-04,4.099999999999999912e-04,-4.200000000000000174e-04,-9.000000000000000567e-05,-1.000000000000000048e-04,-5.999999999999999474e-05,5.000000000000000000e+00,2.100000000000000000e+01
6.401400000000000000e+04,1.000000000000000048e-04,1.600000000000000131e-04,3.099999999999999999e-04,4.099999999999999912e-04,-4.200000000000000174e-04,-9.000000000000000567e-05,-1.000000000000000048e-04,-5.999999999999999474e-05,5.000000000000000000e+00,2.100000000000000000e+01
6.401500000000000000e+04,1.000000000000000048e-04,1.600000000000000131e-04,3.099999999999999999e-04,4.099999999999999912e-04,-4.200000000000000174e-04,-9.000000000000000567e-05,-1.000000000000000048e-04,-5.999999999999999474e-05,5.000000000000000000e+00,2.100000000000000000e+01
6.401600000000000000e+04,1.000000000000000048e-04,1.600000000000000131e-04,3.099999999999999999e-04,4.099999999999999912e-04,-4.200000000000000174e-04,-9.000000000000000567e-05,-1.000000000000000048e-04,-5.999999999999999474e-05,5.000000000000000000e+00,2.100000000000000000e+01
6.401700000000000000e+04,1.000000000000000048e-04,1.600000000000000131e-04,3.099999999999999999e-04,4.099999999999999912e-04,-4.200000000000000174e-04,-9.000000000000000567e-05,-1.000000000000000048e-04,-5.999999999999999474e-05,5.000000000000000000e+00,2.100000000000000000e+01
6.401800000000000000e+04,1.000000000000000048e-04,1.600000000000000131e-04,3.099999999999999999e-04,4.099999999999999912e-04,-4.200000000000000174e-04,-9.000000000000000567e-05,-1.000000000000000048e-04,-5.999999999999999474e-05,5.000000000000000000e+00,2.100000000000000000e+01
6.401900000000000000e+04,1.000000000000000048e-04,1.600000000000000131e-04,3.099999999999999999e-04,4.099999999999999912e-04,-4.200000000000000174e-04,-9.000000000000000567e-05,-1.000000000000000048e-04,-5.999999999999999474e-05,5.000000000000000000e+00,2.100000000000000000e+01
6.402000000000000000e+04,1.000000000000000048e-04,1.600000000000000131e-04,3.099999999999999999e-04,4.099999999999999912e-04,-4.200000000000000174e-04,-9.000000000000000567e-05,-1.000000000000000048e-04,-5.999999999999999474e-05,5.000000000000000000e+00,2.100000000000000000e+01
6.402100000000000000e+04,1.000000000000000048e-04,1.600000000000000131e-04,3.099999999999999999e-04,4.099999999999999912e-04,-4.200000000000000174e-04,-9.000000000000000567e-05,-1.000000000000000048e-04,-5.999999999999999474e-05,5.000000000000000000e+00,2.100000000000000000e+01
6.402200000000000000e+04,1.000000000000000048e-04,1.600000000000000131e-04,3.099999999999999999e-04,4.099999999999999912e-04,-4.200000000000000174e-04,-9.000000000000000567e-05,-1.000000000000000048e-04,-5.999999999999999474e-05,5.000000000000000000e+00,2.100000000000000000e+01
6.402300000000000000e+04,1.000000000000000048e-04,1.600000000000000131e-04,3.099999999999999999e-04,4.099999999999999912e-04,-4.200000000000000174e-04,-9.000000000000000567e-05,-1.000000000000000048e-04,-5.999999999999999474e-05,5.000000000000000000e+00,2.100000000000000000e+01
6.402400000000000000e+04,1.000000000000000048e-04,1.600000000000000131e-04,3.099999999999999999e-04,4.099999999999999912e-04,-4.200000000000000174e-04,-9.000000000000000567e-05,-1.000000000000000048e-04,-5.999999999999999474e-05,5.000000000000000000e+00,2.100000000000000000e+01
6.402500000000000000e+04,1.000000000000000048e-04,1.600000000000000131e-04,3.099999999999999999e-04,4.099999999999999912e-04,-4.200000000000000174e-04,-9.000000000000000567e-05,-1.000000000000000048e-04,-5.999999999999999474e-05,5.000000000000000000e+00,2.100000000000000000e+01
6.402600000000000000e+04,1.000000000000000048e-04,1.600000000000000131e-04,3.099999999999999999e-04,4.099999999999999912e-04,-4.200000000000000174e-04,-9.000000000000000567e-05,-1.000000000000000048e-04,-5.999999999999999474e-05,5.000000000000000000e+00,2.100000000000000000e+01
6.402700000000000000e+04,1.000000000000000048e-04,1.600000000000000131e-04,3.099999999999999999e-04,4.099999999999999912e-04,-4.200000000000000174e-04,-9.000000000000000567e-05,-1.000000000000000048e-04,-5.999999999999999474e-05,5.000000000000000000e+00,2.100000000000000000e+01
6.402800000000000000e+04,1.000000000000000048e-04,1.600000000000000131e-04,3.099999999999999999e-04,4.099999999999999912e-04,-4.200000000000000174e-04,-9.000000000000000567e-05,-1.000000000000000048e-04,-5.999999999999999474e-05,5.000000000000000000e+00,2.100000000000000000e+01
6.402900000000000000e+04,1.000000000000000048e-04,1.600000000000000131e-04,3.099999999999999999e-04,4.099999999999999912e-04,-4.200000000000000174e-04,-9.000000000000000567e-05,-1.000000000000000048e-04,-5.999999999999999474e-05,5.000000000000000000e+00,2.100000000000000000e+01
6.403000000000000000e+04,1.000000000000000048e-04,1.600000000000000131e-04,3.099999999999999999e-04,4.099999999999999912e-04,-4.200000000000000174e-04,-9.000000000000000567e-05,-1.000000000000000048e-04,-5.999999999999999474e-05,5.000000000000000000e+00,2.100000000000000000e+01
6.403100000000000000e+04,1.000000000000000048e-04,1.600000000000000131e-04,3.099999999999999999e-04,4.099999999999999912e-04,-4.200000000000000174e-04,-9.000000000000000567e-05,-1.000000000000000048e-04,-5.999999999999999474e-05,5.000000000000000000e+00,2.100000000000000000e+01
6.403200000000000000e+04,1.000000000000000048e-04,1.600000000000000131e-04,3.099999999999999999e-04,4.099999999999999912e-04,-4.200000000000000174e-04,-9.000000000000000567e-05,-1.000000000000000048e-04,-5.999999999999999474e-05,5.000000000000000000e+00,2.100000000000000000e+01
6.403300000000000000e+04,1.000000000000000048e-04,1.600000000000000131e-04,3.099999999999999999e-04,4.099999999999999912e-04,-4.200000000000000174e-04,-9.000000000000000567e-05,-1.000000000000000048e-04,-5.999999999999999474e-05,5.000000000000000000e+00,2.100000000000000000e+01
6.403400000000000000e+04,-2.999999999999999737e-05,2.000000000000000164e-05,2.700000000000000035e-04,2.299999999999999799e-04,2.700000000000000035e-04,1.000000000000000048e-04,1.000000000000000082e-05,8.000000000000000654e-05,5.000000000000000000e+00,2.100000000000000000e+01
6.403500000000000000e+04,-1.000000000000000082e-05,-5.999999999999999474e-05,-2.799999999999999755e-04,1.899999999999999834e-04,1.800000000000000113e-04,-2.999999999999999737e-05,1.000000000000000082e-05,-1.300000000000000157e-04,5.000000000000000000e+00,2.100000000000000000e+01
6.403600000000000000e+04,-1.000000000000000082e-05,-5.999999999999999474e-05,-2.799999999999999755e-04,1.899999999999999834e-04,1.800000000000000113e-04,-2.999999999999999737e-05,1.000000000000000082e-05,-1.300000000000000157e-04,5.000000000000000000e+00,2.100000000000000000e+01
6.403800000000000000e+04,-1.000000000000000082e-05,-5.999999999999999474e-05,-2.799999999999999755e-04,1.899999999999999834e-04,1.800000000000000113e-04,-2.999999999999999737e-05,1.000000000000000082e-05,-1.300000000000000157e-04,5.000000000000000000e+00,2.100000000000000000e+01
6.403900000000000000e+04,-1.000000000000000082e-05,-5.999999999999999474e-05,-2.799999999999999755e-04,1.899999999999999834e-04,1.800000000000000113e-04,-2.999999999999999737e-05,1.000000000000000082e-05,-1.300000000000000157e-04,5.000000000000000000e+00,2.100000000000000000e+01
6.404000000000000000e+04,-1.000000000000000082e-05,-5.999999999999999474e-05,-2.799999999999999755e-04,1.899999999999999834e-04,1.800000000000000113e-04,-2.999999999999999737e-05,1.000000000000000082e-05,-1.300000000000000157e-04,5.000000000000000000e+00,2.100000000000000000e+01
6.404100000000000000e+04,-1.000000000000000082e-05,-5.999999999999999474e-05,-2.799999999999999755e-04,1.899999999999999834e-04,1.800000000000000113e-04,-2.999999999999999737e-05,1.000000000000000082e-05,-1.300000000000000157e-04,5.000000000000000000e+00,2.100000000000000000e+01
6.404200000000000000e+04,-1.000000000000000082e-05,-5.999999999999999474e-05,-2.799999999999999755e-04,1.899999999999999834e-04,1.800000000000000113e-04,-2.999999999999999737e-05,1.000000000000000082e-05,-1.300000000000000157e-04,5.000000000000000000e+00,2.100000000000000000e+01
6.404300000000000000e+04,-1.000000000000000082e-05,-5.999999999999999474e-05,-2.799999999999999755e-04,1.899999999999999834e-04,1.800000000000000113e-04,-2.999999999999999737e-05,1.000000000000000082e-05,-1.300000000000000157e-04,5.000000000000000000e+00,2.100000000000000000e+01
6.404400000000000000e+04,-1.000000000000000082e-05,-5.999999999999999474e-05,-2.799999999999999755e-04,1.899999999999999834e-04,1.800000000000000113e-04,-2.999999999999999737e-05,1.000000000000000082e-05,-1.300000000000000157e-04,5.000000000000000000e+00,2.100000000000000000e+01
6.404500000000000000e+04,-1.000000000000000082e-05,-5.999999999999999474e-05,-2.799999999999999755e-04,1.899999999999999834e-04,1.800000000000000113e-04,-2.999999999999999737e-05,1.000000000000000082e-05,-1.300000000000000157e-04,5.000000000000000000e+00,2.100000000000000000e+01
6.404600000000000000e+04,-1.000000000000000082e-05,-5.999999999999999474e-05,-2.799999999999999755e-04,1.899999999999999834e-04,1.800000000000000113e-04,-2.999999999999999737e-05,1.000000000000000082e-05,-1.300000000000000157e-04,5.000000000000000000e+00,2.100000000000000000e+01
6.404700000000000000e+04,-1.000000000000000082e-05,-5.999999999999999474e-05,-2.799999999999999755e-04,1.899999999999999834e-04,1.800000000000000113e-04,-2.999999999999999737e-05,1.000000000000000082e-05,-1.300000000000000157e-04,5.000000000000000000e+00,2.100000000000000000e+01
6.404800000000000000e+04,-1.000000000000000082e-05,-5.999999999999999474e-05,-2.799999999999999755e-04,1.899999999999999834e-04,1.800000000000000113e-04,-2.999999999999999737e-05,1.000000000000000082e-05,-1.300000000000000157e-04,5.000000000000000000e+00,2.100000000000000000e+01
6.404900000000000000e+04,-1.000000000000000082e-05,-5.999999999999999474e-05,-2.799999999999999755e-04,1.899999999999999834e-04,1.800000000000000113e-04,-2.999999999999999737e-05,1.000000000000000082e-05,-1.300000000000000157e-04,5.000000000000000000e+00,2.100000000000000000e+01
6.405000000000000000e+04,-1.000000000000000082e-05,-5.999999999999999474e-05,-2.799999999999999755e-04,1.899999999999999834e-04,1.800000000000000113e-04,-2.999999999999999737e-05,1.000000000000000082e-05,-1.300000000000000157e-04,5.000000000000000000e+00,2.100000000000000000e+01
6.405100000000000000e+04,-1.000000000000000082e-05,-5.999999999999999474e-05,-2.799999999999999755e-04,1.899999999999999834e-04,1.800000000000000113e-04,-2.999999999999999737e-05,1.000000000000000082e-05,-1.300000000000000157e-04,5.000000000000000000e+00,2.100000000000000000e+01
