-6.999999999999999387e-05,2.000000000000000164e-05,3.600000000000000227e-04,1.030000000000000100e-03,2.999999999999999737e-04,-6.999999999999999387e-05,-1.260000000000000052e-03,-2.900000000000000017e-04
-6.999999999999999387e-05,2.000000000000000164e-05,3.600000000000000227e-04,1.030000000000000100e-03,2.999999999999999737e-04,-6.999999999999999387e-05,-1.260000000000000052e-03,-2.900000000000000017e-04
3.200000000000000262e-04,1.399999999999999877e-04,5.800000000000000034e-04,5.800000000000000034e-04,-2.999999999999999737e-05,2.100000000000000087e-04,1.600000000000000131e-04,-1.699999999999999851e-04
4.000000000000000327e-05,-1.899999999999999834e-04,-1.199999999999999895e-04,-3.899999999999999929e-04,-4.700000000000000401e-04,-5.900000000000000296e-04,-4.000000000000000192e-04,-1.000000000000000048e-04
4.000000000000000327e-05,-1.899999999999999834e-04,-1.199999999999999895e-04,-3.899999999999999929e-04,-4.700000000000000401e-04,-5.900000000000000296e-04,-4.000000000000000192e-04,-1.000000000000000048e-04
4.000000000000000327e-05,-1.899999999999999834e-04,-1.199999999999999895e-04,-3.899999999999999929e-04,-4.700000000000000401e-04,-5.900000000000000296e-04,-4.000000000000000192e-04,-1.000000000000000048e-04
4.000000000000000327e-05,-1.899999999999999834e-04,-1.199999999999999895e-04,-3.899999999999999929e-04,-4.700000000000000401e-04,-5.900000000000000296e-04,-4.000000000000000192e-04,-1.000000000000000048e-04
4.000000000000000327e-05,-1.899999999999999834e-04,-1.199999999999999895e-04,-3.899999999999999929e-04,-4.700000000000000401e-04,-5.900000000000000296e-04,-4.000000000000000192e-04,-1.000000000000000048e-04
4.000000000000000327e-05,-1.899999999999999834e-04,-1.199999999999999895e-04,-3.899999999999999929e-04,-4.700000000000000401e-04,-5.900000000000000296e-04,-4.000000000000000192e-04,-1.000000000000000048e-04
4.000000000000000327e-05,-1.899999999999999834e-04,-1.199999999999999895e-04,-3.899999999999999929e-04,-4.700000000000000401e-04,-5.900000000000000296e-04,-4.000000000000000192e-04,-1.000000000000000048e-04
4.000000000000000327e-05,-1.899999999999999834e-04,-1.199999999999999895e-04,-3.899999999999999929e-04,-4.700000000000000401e-04,-5.900000000000000296e-04,-4.000000000000000192e-04,-1.000000000000000048e-04
4.000000000000000327e-05,-1.899999999999999834e-04,-1.199999999999999895e-04,-3.899999999999999929e-04,-4.700000000000000401e-04,-5.900000000000000296e-04,-4.000000000000000192e-04,-1.000000000000000048e-04
4.000000000000000327e-05,-1.899999999999999834e-04,-1.199999999999999895e-04,-3.899999999999999929e-04,-4.700000000000000401e-04,-5.900000000000000296e-04,-4.000000000000000192e-04,-1.000000000000000048e-04
4.000000000000000327e-05,-1.899999999999999834e-04,-1.199999999999999895e-04,-3.899999999999999929e-04,-4.700000000000000401e-04,-5.900000000000000296e-04,-4.000000000000000192e-04,-1.000000000000000048e-04
4.000000000000000327e-05,-1.899999999999999834e-04,-1.199999999999999895e-04,-3.899999999999999929e-04,-4.700000000000000401e-04,-5.900000000000000296e-04,-4.000000000000000192e-04,-1.000000000000000048e-04
4.000000000000000327e-05,-1.899999999999999834e-04,-1.199999999999999895e-04,-3.899999999999999929e-04,-4.700000000000000401e-04,-5.900000000000000296e-04,-4.000000000000000192e-04,-1.000000000000000048e-04
4.000000000000000327e-05,-1.899999999999999834e-04,-1.199999999999999895e-04,-3.899999999999999929e-04,-4.700000000000000401e-04,-5.900000000000000296e-04,-4.000000000000000192e-04,-1.000000000000000048e-04
4.000000000000000327e-05,-1.899999999999999834e-04,-1.199999999999999895e-04,-3.899999999999999929e-04,-4.700000000000000401e-04,-5.900000000000000296e-04,-4.000000000000000192e-04,-1.000000000000000048e-04
4.000000000000000327e-05,-1.899999999999999834e-04,-1.199999999999999895e-04,-3.899999999999999929e-04,-4.700000000000000401e-04,-5.900000000000000296e-04,-4.000000000000000192e-04,-1.000000000000000048e-04
4.000000000000000327e-05,-1.899999999999999834e-04,-1.199999999999999895e-04,-3.899999999999999929e-04,-4.700000000000000401e-04,-5.900000000000000296e-04,-4.000000000000000192e-04,-1.000000000000000048e-04
4.000000000000000327e-05,-1.899999999999999834e-04,-1.199999999999999895e-04,-3.899999999999999929e-04,-4.700000000000000401e-04,-5.900000000000000296e-04,-4.000000000000000192e-04,-1.000000000000000048e-04
4.000000000000000327e-05,-1.899999999999999834e-04,-1.199999999999999895e-04,-3.899999999999999929e-04,-4.700000000000000401e-04,-5.900000000000000296e-04,-4.000000000000000192e-04,-1.000000000000000048e-04
4.000000000000000327e-05,-1.899999999999999834e-04,-1.199999999999999895e-04,-3.899999999999999929e-04,-4.700000000000000401e-04,-5.900000000000000296e-04,-4.000000000000000192e-04,-1.000000000000000048e-04
4.700000000000000401e-04,1.199999999999999895e-04,2.600000000000000314e-04,3.499999999999999964e-04,1.000000000000000048e-04,3.099999999999999999e-04,-4.599999999999999597e-04,2.900000000000000017e-04
4.700000000000000401e-04,1.199999999999999895e-04,2.600000000000000314e-04,3.499999999999999964e-04,1.000000000000000048e-04,3.099999999999999999e-04,-4.599999999999999597e-04,2.900000000000000017e-04
2.799999999999999755e-04,-1.100000000000000039e-04,-1.280000000000000105e-03,9.699999999999999421e-04,8.099999999999999561e-04,3.699999999999999947e-04,-1.800000000000000113e-04,-3.600000000000000227e-04
2.799999999999999755e-04,-1.100000000000000039e-04,-1.280000000000000105e-03,9.699999999999999421e-04,8.099999999999999561e-04,3.699999999999999947e-04,-1.800000000000000113e-04,-3.600000000000000227e-04
2.799999999999999755e-04,-1.100000000000000039e-04,-1.280000000000000105e-03,9.699999999999999421e-04,8.099999999999999561e-04,3.699999999999999947e-04,-1.800000000000000113e-04,-3.600000000000000227e-04
2.799999999999999755e-04,-1.100000000000000039e-04,-1.280000000000000105e-03,9.699999999999999421e-04,8.099999999999999561e-04,3.699999999999999947e-04,-1.800000000000000113e-04,-3.600000000000000227e-04
2.799999999999999755e-04,-1.100000000000000039e-04,-1.280000000000000105e-03,9.699999999999999421e-04,8.099999999999999561e-04,3.699999999999999947e-04,-1.800000000000000113e-04,-3.600000000000000227e-04
2.799999999999999755e-04,-1.100000000000000039e-04,-1.280000000000000105e-03,9.699999999999999421e-04,8.099999999999999561e-04,3.699999999999999947e-04,-1.800000000000000113e-04,-3.600000000000000227e-04
2.799999999999999755e-04,-1.100000000000000039e-04,-1.280000000000000105e-03,9.699999999999999421e-04,8.099999999999999561e-04,3.699999999999999947e-04,-1.800000000000000113e-04,-3.600000000000000227e-04
2.799999999999999755e-04,-1.100000000000000039e-04,-1.280000000000000105e-03,9.699999999999999421e-04,8.099999999999999561e-04,3.699999999999999947e-04,-1.800000000000000113e-04,-3.600000000000000227e-04
2.799999999999999755e-04,-1.100000000000000039e-04,-1.280000000000000105e-03,9.699999999999999421e-04,8.099999999999999561e-04,3.699999999999999947e-04,-1.800000000000000113e-04,-3.600000000000000227e-04
2.799999999999999755e-04,-1.100000000000000039e-04,-1.280000000000000105e-03,9.699999999999999421e-04,8.099999999999999561e-04,3.699999999999999947e-04,-1.800000000000000113e-04,-3.600000000000000227e-04
2.799999999999999755e-04,-1.100000000000000039e-04,-1.280000000000000105e-03,9.699999999999999421e-04,8.099999999999999561e-04,3.699999999999999947e-04,-1.800000000000000113e-04,-3.600000000000000227e-04
2.799999999999999755e-04,-1.100000000000000039e-04,-1.280000000000000105e-03,9.699999999999999421e-04,8.099999999999999561e-04,3.699999999999999947e-04,-1.800000000000000113e-04,-3.600000000000000227e-04
-4.000000000000000327e-05,1.899999999999999834e-04,5.299999999999999807e-04,5.099999999999999282e-04,1.100000000000000039e-04,2.600000000000000314e-04,-9.599999999999999159e-04,-4.099999999999999912e-04
-4.000000000000000327e-05,1.899999999999999834e-04,5.299999999999999807e-04,5.099999999999999282e-04,1.100000000000000039e-04,2.600000000000000314e-04,-9.599999999999999159e-04,-4.099999999999999912e-04
-4.000000000000000327e-05,1.899999999999999834e-04,5.299999999999999807e-04,5.099999999999999282e-04,1.100000000000000039e-04,2.600000000000000314e-04,-9.599999999999999159e-04,-4.099999999999999912e-04
-4.000000000000000327e-05,1.899999999999999834e-04,5.299999999999999807e-04,5.099999999999999282e-04,1.100000000000000039e-04,2.600000000000000314e-04,-9.599999999999999159e-04,-4.099999999999999912e-04
-4.000000000000000327e-05,1.899999999999999834e-04,5.299999999999999807e-04,5.099999999999999282e-04,1.100000000000000039e-04,2.600000000000000314e-04,-9.599999999999999159e-04,-4.099999999999999912e-04
-4.000000000000000327e-05,1.899999999999999834e-04,5.299999999999999807e-04,5.099999999999999282e-04,1.100000000000000039e-04,2.600000000000000314e-04,-9.599999999999999159e-04,-4.099999999999999912e-04
-4.000000000000000327e-05,1.899999999999999834e-04,5.299999999999999807e-04,5.099999999999999282e-04,1.100000000000000039e-04,2.600000000000000314e-04,-9.599999999999999159e-04,-4.099999999999999912e-04
-4.000000000000000327e-05,1.899999999999999834e-04,5.299999999999999807e-04,5.099999999999999282e-04,1.100000000000000039e-04,2.600000000000000314e-04,-9.599999999999999159e-04,-4.099999999999999912e-04
-4.000000000000000327e-05,1.899999999999999834e-04,5.299999999999999807e-04,5.099999999999999282e-04,1.100000000000000039e-04,2.600000000000000314e-04,-9.599999999999999159e-04,-4.099999999999999912e-04
-6.799999999999999404e-04,-3.899999999999999929e-04,-5.999999999999999474e-04,-4.799999999999999580e-04,-5.999999999999999474e-05,-8.900000000000000576e-04,7.399999999999999894e-04,-3.799999999999999667e-04
-6.799999999999999404e-04,-3.899999999999999929e-04,-5.999999999999999474e-04,-4.799999999999999580e-04,-5.999999999999999474e-05,-8.900000000000000576e-04,7.399999999999999894e-04,-3.799999999999999667e-04
-6.799999999999999404e-04,-3.899999999999999929e-04,-5.999999999999999474e-04,-4.799999999999999580e-04,-5.999999999999999474e-05,-8.900000000000000576e-04,7.399999999999999894e-04,-3.799999999999999667e-04
-6.799999999999999404e-04,-3.899999999999999929e-04,-5.999999999999999474e-04,-4.799999999999999580e-04,-5.999999999999999474e-05,-8.900000000000000576e-04,7.399999999999999894e-04,-3.799999999999999667e-04
-6.799999999999999404e-04,-3.899999999999999929e-04,-5.999999999999999474e-04,-4.799999999999999580e-04,-5.999999999999999474e-05,-8.900000000000000576e-04,7.399999999999999894e-04,-3.799999999999999667e-04
-6.799999999999999404e-04,-3.899999999999999929e-04,-5.999999999999999474e-04,-4.799999999999999580e-04,-5.999999999999999474e-05,-8.900000000000000576e-04,7.399999999999999894e-04,-3.799999999999999667e-04
-6.799999999999999404e-04,-3.899999999999999929e-04,-5.999999999999999474e-04,-4.799999999999999580e-04,-5.999999999999999474e-05,-8.900000000000000576e-04,7.399999999999999894e-04,-3.799999999999999667e-04
-6.799999999999999404e-04,-3.899999999999999929e-04,-5.999999999999999474e-04,-4.799999999999999580e-04,-5.999999999999999474e-05,-8.900000000000000576e-04,7.399999999999999894e-04,-3.799999999999999667e-04
-6.799999999999999404e-04,-3.899999999999999929e-04,-5.999999999999999474e-04,-4.799999999999999580e-04,-5.999999999999999474e-05,-8.900000000000000576e-04,7.399999999999999894e-04,-3.799999999999999667e-04
-6.799999999999999404e-04,-3.899999999999999929e-04,-5.999999999999999474e-04,-4.799999999999999580e-04,-5.999999999999999474e-05,-8.900000000000000576e-04,7.399999999999999894e-04,-3.799999999999999667e-04
-6.799999999999999404e-04,-3.899999999999999929e-04,-5.999999999999999474e-04,-4.799999999999999580e-04,-5.999999999999999474e-05,-8.900000000000000576e-04,7.399999999999999894e-04,-3.799999999999999667e-04
-6.799999999999999404e-04,-3.899999999999999929e-04,-5.999999999999999474e-04,-4.799999999999999580e-04,-5.999999999999999474e-05,-8.900000000000000576e-04,7.399999999999999894e-04,-3.799999999999999667e-04
-6.799999999999999404e-04,-3.899999999999999929e-04,-5.999999999999999474e-04,-4.799999999999999580e-04,-5.999999999999999474e-05,-8.900000000000000576e-04,7.399999999999999894e-04,-3.799999999999999667e-04
-6.799999999999999404e-04,-3.899999999999999929e-04,-5.999999999999999474e-04,-4.799999999999999580e-04,-5.999999999999999474e-05,-8.900000000000000576e-04,7.399999999999999894e-04,-3.799999999999999667e-04
-6.799999999999999404e-04,-3.899999999999999929e-04,-5.999999999999999474e-04,-4.799999999999999580e-04,-5.999999999999999474e-05,-8.900000000000000576e-04,7.399999999999999894e-04,-3.799999999999999667e-04
5.299999999999999807e-04,5.000000000000000240e-05,-7.500000000000000156e-04,-5.900000000000000296e-04,4.599999999999999597e-04,2.299999999999999799e-04,-7.299999999999999632e-04,1.499999999999999869e-04
9.000000000000000567e-05,2.999999999999999737e-05,3.299999999999999982e-04,-2.299999999999999799e-04,-1.800000000000000113e-04,2.999999999999999737e-04,4.799999999999999580e-04,1.000000000000000082e-05
9.000000000000000567e-05,2.999999999999999737e-05,3.299999999999999982e-04,-2.299999999999999799e-04,-1.800000000000000113e-04,2.999999999999999737e-04,4.799999999999999580e-04,1.000000000000000082e-05
9.000000000000000567e-05,2.999999999999999737e-05,3.299999999999999982e-04,-2.299999999999999799e-04,-1.800000000000000113e-04,2.999999999999999737e-04,4.799999999999999580e-04,1.000000000000000082e-05
9.000000000000000567e-05,2.999999999999999737e-05,3.299999999999999982e-04,-2.299999999999999799e-04,-1.800000000000000113e-04,2.999999999999999737e-04,4.799999999999999580e-04,1.000000000000000082e-05
9.000000000000000567e-05,2.999999999999999737e-05,3.299999999999999982e-04,-2.299999999999999799e-04,-1.800000000000000113e-04,2.999999999999999737e-04,4.799999999999999580e-04,1.000000000000000082e-05
9.000000000000000567e-05,2.999999999999999737e-05,3.299999999999999982e-04,-2.299999999999999799e-04,-1.800000000000000113e-04,2.999999999999999737e-04,4.799999999999999580e-04,1.000000000000000082e-05
9.000000000000000567e-05,2.999999999999999737e-05,3.299999999999999982e-04,-2.299999999999999799e-04,-1.800000000000000113e-04,2.999999999999999737e-04,4.799999999999999580e-04,1.000000000000000082e-05
9.000000000000000567e-05,2.999999999999999737e-05,3.299999999999999982e-04,-2.299999999999999799e-04,-1.800000000000000113e-04,2.999999999999999737e-04,4.799999999999999580e-04,1.000000000000000082e-05
9.000000000000000567e-05,2.999999999999999737e-05,3.299999999999999982e-04,-2.299999999999999799e-04,-1.800000000000000113e-04,2.999999999999999737e-04,4.799999999999999580e-04,1.000000000000000082e-05
9.000000000000000567e-05,2.999999999999999737e-05,3.299999999999999982e-04,-2.299999999999999799e-04,-1.800000000000000113e-04,2.999999999999999737e-04,4.799999999999999580e-04,1.000000000000000082e-05
9.000000000000000567e-05,2.999999999999999737e-05,3.299999999999999982e-04,-2.299999999999999799e-04,-1.800000000000000113e-04,2.999999999999999737e-04,4.799999999999999580e-04,1.000000000000000082e-05
9.000000000000000567e-05,2.999999999999999737e-05,3.299999999999999982e-04,-2.299999999999999799e-04,-1.800000000000000113e-04,2.999999999999999737e-04,4.799999999999999580e-04,1.000000000000000082e-05
9.000000000000000567e-05,2.999999999999999737e-05,3.299999999999999982e-04,-2.299999999999999799e-04,-1.800000000000000113e-04,2.999999999999999737e-04,4.799999999999999580e-04,1.000000000000000082e-05
9.000000000000000567e-05,2.999999999999999737e-05,3.299999999999999982e-04,-2.299999999999999799e-04,-1.800000000000000113e-04,2.999999999999999737e-04,4.799999999999999580e-04,1.000000000000000082e-05
9.000000000000000567e-05,2.999999999999999737e-05,3.299999999999999982e-04,-2.299999999999999799e-04,-1.800000000000000113e-04,2.999999999999999737e-04,4.799999999999999580e-04,1.000000000000000082e-05
9.000000000000000567e-05,2.999999999999999737e-05,3.299999999999999982e-04,-2.299999999999999799e-04,-1.800000000000000113e-04,2.999999999999999737e-04,4.799999999999999580e-04,1.000000000000000082e-05
9.000000000000000567e-05,2.999999999999999737e-05,3.299999999999999982e-04,-2.299999999999999799e-04,-1.800000000000000113e-04,2.999999999999999737e-04,4.799999999999999580e-04,1.000000000000000082e-05
9.000000000000000567e-05,2.999999999999999737e-05,3.299999999999999982e-04,-2.299999999999999799e-04,-1.800000000000000113e-04,2.999999999999999737e-04,4.799999999999999580e-04,1.000000000000000082e-05
9.000000000000000567e-05,2.999999999999999737e-05,3.299999999999999982e-04,-2.299999999999999799e-04,-1.800000000000000113e-04,2.999999999999999737e-04,4.799999999999999580e-04,1.000000000000000082e-05
9.000000000000000567e-05,2.999999999999999737e-05,3.299999999999999982e-04,-2.299999999999999799e-04,-1.800000000000000113e-04,2.999999999999999737e-04,4.799999999999999580e-04,1.000000000000000082e-05
-8.000000000000000654e-05,0.000000000000000000e+00,-1.300000000000000157e-04,-7.099999999999999107e-04,-2.900000000000000017e-04,-4.000000000000000327e-05,3.099999999999999999e-04,-4.000000000000000327e-05
-8.000000000000000654e-05,0.000000000000000000e+00,-1.300000000000000157e-04,-7.099999999999999107e-04,-2.900000000000000017e-04,-4.000000000000000327e-05,3.099999999999999999e-04,-4.000000000000000327e-05
-7.900000000000000121e-04,-1.499999999999999869e-04,-7.399999999999999894e-04,-8.000000000000000383e-04,-5.000000000000000240e-05,-3.499999999999999964e-04,-6.799999999999999404e-04,-1.199999999999999895e-04
-7.900000000000000121e-04,-1.499999999999999869e-04,-7.399999999999999894e-04,-8.000000000000000383e-04,-5.000000000000000240e-05,-3.499999999999999964e-04,-6.799999999999999404e-04,-1.199999999999999895e-04
-7.900000000000000121e-04,-1.499999999999999869e-04,-7.399999999999999894e-04,-8.000000000000000383e-04,-5.000000000000000240e-05,-3.499999999999999964e-04,-6.799999999999999404e-04,-1.199999999999999895e-04
-7.900000000000000121e-04,-1.499999999999999869e-04,-7.399999999999999894e-04,-8.000000000000000383e-04,-5.000000000000000240e-05,-3.499999999999999964e-04,-6.799999999999999404e-04,-1.199999999999999895e-04
-7.900000000000000121e-04,-1.499999999999999869e-04,-7.399999999999999894e-04,-8.000000000000000383e-04,-5.000000000000000240e-05,-3.499999999999999964e-04,-6.799999999999999404e-04,-1.199999999999999895e-04
-7.900000000000000121e-04,-1.499999999999999869e-04,-7.399999999999999894e-04,-8.000000000000000383e-04,-5.000000000000000240e-05,-3.499999999999999964e-04,-6.799999999999999404e-04,-1.199999999999999895e-04
-7.900000000000000121e-04,-1.499999999999999869e-04,-7.399999999999999894e-04,-8.000000000000000383e-04,-5.000000000000000240e-05,-3.499999999999999964e-04,-6.799999999999999404e-04,-1.199999999999999895e-04
-7.900000000000000121e-04,-1.499999999999999869e-04,-7.399999999999999894e-04,-8.000000000000000383e-04,-5.000000000000000240e-05,-3.499999999999999964e-04,-6.799999999999999404e-04,-1.199999999999999895e-04
-7.900000000000000121e-04,-1.499999999999999869e-04,-7.399999999999999894e-04,-8.000000000000000383e-04,-5.000000000000000240e-05,-3.499999999999999964e-04,-6.799999999999999404e-04,-1.199999999999999895e-04
-7.900000000000000121e-04,-1.499999999999999869e-04,-7.399999999999999894e-04,-8.000000000000000383e-04,-5.000000000000000240e-05,-3.499999999999999964e-04,-6.799999999999999404e-04,-1.199999999999999895e-04
-7.900000000000000121e-04,-1.499999999999999869e-04,-7.399999999999999894e-04,-8.000000000000000383e-04,-5.000000000000000240e-05,-3.499999999999999964e-04,-6.799999999999999404e-04,-1.199999999999999895e-04
-7.900000000000000121e-04,-1.499999999999999869e-04,-7.399999999999999894e-04,-8.000000000000000383e-04,-5.000000000000000240e-05,-3.499999999999999964e-04,-6.799999999999999404e-04,-1.199999999999999895e-04
1.100000000000000039e-04,-6.999999999999999387e-05,2.299999999999999799e-04,2.000000000000000096e-04,-4.000000000000000192e-04,-3.499999999999999964e-04,-3.399999999999999702e-04,8.000000000000000654e-05
1.100000000000000039e-04,-6.999999999999999387e-05,2.299999999999999799e-04,2.000000000000000096e-04,-4.000000000000000192e-04,-3.499999999999999964e-04,-3.399999999999999702e-04,8.000000000000000654e-05
1.100000000000000039e-04,-6.999999999999999387e-05,2.299999999999999799e-04,2.000000000000000096e-04,-4.000000000000000192e-04,-3.499999999999999964e-04,-3.399999999999999702e-04,8.000000000000000654e-05
1.100000000000000039e-04,-6.999999999999999387e-05,2.299999999999999799e-04,2.000000000000000096e-04,-4.000000000000000192e-04,-3.499999999999999964e-04,-3.399999999999999702e-04,8.000000000000000654e-05
1.100000000000000039e-04,-6.999999999999999387e-05,2.299999999999999799e-04,2.000000000000000096e-04,-4.000000000000000192e-04,-3.499999999999999964e-04,-3.399999999999999702e-04,8.000000000000000654e-05
1.100000000000000039e-04,-6.999999999999999387e-05,2.299999999999999799e-04,2.000000000000000096e-04,-4.000000000000000192e-04,-3.499999999999999964e-04,-3.399999999999999702e-04,8.000000000000000654e-05
1.100000000000000039e-04,-6.999999999999999387e-05,2.299999999999999799e-04,2.000000000000000096e-04,-4.000000000000000192e-04,-3.499999999999999964e-04,-3.399999999999999702e-04,8.000000000000000654e-05
1.100000000000000039e-04,-6.999999999999999387e-05,2.299999999999999799e-04,2.000000000000000096e-04,-4.000000000000000192e-04,-3.499999999999999964e-04,-3.399999999999999702e-04,8.000000000000000654e-05
1.100000000000000039e-04,-6.999999999999999387e-05,2.299999999999999799e-04,2.000000000000000096e-04,-4.000000000000000192e-04,-3.499999999999999964e-04,-3.399999999999999702e-04,8.000000000000000654e-05
-2.399999999999999790e-04,-8.000000000000000654e-05,2.000000000000000096e-04,-4.200000000000000174e-04,-2.999999999999999737e-04,-3.699999999999999947e-04,-1.899999999999999834e-04,4.000000000000000327e-05
-2.399999999999999790e-04,-8.000000000000000654e-05,2.000000000000000096e-04,-4.200000000000000174e-04,-2.999999999999999737e-04,-3.699999999999999947e-04,-1.899999999999999834e-04,4.000000000000000327e-05
-2.399999999999999790e-04,-8.000000000000000654e-05,2.000000000000000096e-04,-4.200000000000000174e-04,-2.999999999999999737e-04,-3.699999999999999947e-04,-1.899999999999999834e-04,4.000000000000000327e-05
-2.399999999999999790e-04,-8.000000000000000654e-05,2.000000000000000096e-04,-4.200000000000000174e-04,-2.999999999999999737e-04,-3.699999999999999947e-04,-1.899999999999999834e-04,4.000000000000000327e-05
-2.399999999999999790e-04,-8.000000000000000654e-05,2.000000000000000096e-04,-4.200000000000000174e-04,-2.999999999999999737e-04,-3.699999999999999947e-04,-1.899999999999999834e-04,4.000000000000000327e-05
-2.399999999999999790e-04,-8.000000000000000654e-05,2.000000000000000096e-04,-4.200000000000000174e-04,-2.999999999999999737e-04,-3.699999999999999947e-04,-1.899999999999999834e-04,4.000000000000000327e-05
-2.399999999999999790e-04,-8.000000000000000654e-05,2.000000000000000096e-04,-4.200000000000000174e-04,-2.999999999999999737e-04,-3.699999999999999947e-04,-1.899999999999999834e-04,4.000000000000000327e-05
-2.399999999999999790e-04,-8.000000000000000654e-05,2.000000000000000096e-04,-4.200000000000000174e-04,-2.999999999999999737e-04,-3.699999999999999947e-04,-1.899999999999999834e-04,4.000000000000000327e-05
-2.399999999999999790e-04,-8.000000000000000654e-05,2.000000000000000096e-04,-4.200000000000000174e-04,-2.999999999999999737e-04,-3.699999999999999947e-04,-1.899999999999999834e-04,4.000000000000000327e-05
-2.399999999999999790e-04,-8.000000000000000654e-05,2.000000000000000096e-04,-4.200000000000000174e-04,-2.999999999999999737e-04,-3.699999999999999947e-04,-1.899999999999999834e-04,4.000000000000000327e-05
-2.399999999999999790e-04,-8.000000000000000654e-05,2.000000000000000096e-04,-4.200000000000000174e-04,-2.999999999999999737e-04,-3.699999999999999947e-04,-1.899999999999999834e-04,4.000000000000000327e-05
-2.399999999999999790e-04,-8.000000000000000654e-05,2.000000000000000096e-04,-4.200000000000000174e-04,-2.999999999999999737e-04,-3.699999999999999947e-04,-1.899999999999999834e-04,4.000000000000000327e-05
-2.399999999999999790e-04,-8.000000000000000654e-05,2.000000000000000096e-04,-4.200000000000000174e-04,-2.999999999999999737e-04,-3.699999999999999947e-04,-1.899999999999999834e-04,4.000000000000000327e-05
-2.399999999999999790e-04,-8.000000000000000654e-05,2.000000000000000096e-04,-4.200000000000000174e-04,-2.999999999999999737e-04,-3.699999999999999947e-04,-1.899999999999999834e-04,4.000000000000000327e-05
-2.399999999999999790e-04,-8.000000000000000654e-05,2.000000000000000096e-04,-4.200000000000000174e-04,-2.999999999999999737e-04,-3.699999999999999947e-04,-1.899999999999999834e-04,4.000000000000000327e-05
-2.000000000000000096e-04,1.600000000000000131e-04,5.999999999999999474e-04,-1.499999999999999869e-04,-3.299999999999999982e-04,5.099999999999999282e-04,-4.000000000000000192e-04,-1.199999999999999895e-04
2.700000000000000035e-04,2.700000000000000035e-04,1.269999999999999862e-03,9.000000000000000567e-05,-5.400000000000000069e-04,-2.999999999999999737e-04,5.900000000000000296e-04,1.600000000000000131e-04
2.700000000000000035e-04,2.700000000000000035e-04,1.269999999999999862e-03,9.000000000000000567e-05,-5.400000000000000069e-04,-2.999999999999999737e-04,5.900000000000000296e-04,1.600000000000000131e-04
2.700000000000000035e-04,2.700000000000000035e-04,1.269999999999999862e-03,9.000000000000000567e-05,-5.400000000000000069e-04,-2.999999999999999737e-04,5.900000000000000296e-04,1.600000000000000131e-04
2.700000000000000035e-04,2.700000000000000035e-04,1.269999999999999862e-03,9.000000000000000567e-05,-5.400000000000000069e-04,-2.999999999999999737e-04,5.900000000000000296e-04,1.600000000000000131e-04
2.700000000000000035e-04,2.700000000000000035e-04,1.269999999999999862e-03,9.000000000000000567e-05,-5.400000000000000069e-04,-2.999999999999999737e-04,5.900000000000000296e-04,1.600000000000000131e-04
2.700000000000000035e-04,2.700000000000000035e-04,1.269999999999999862e-03,9.000000000000000567e-05,-5.400000000000000069e-04,-2.999999999999999737e-04,5.900000000000000296e-04,1.600000000000000131e-04
2.700000000000000035e-04,2.700000000000000035e-04,1.269999999999999862e-03,9.000000000000000567e-05,-5.400000000000000069e-04,-2.999999999999999737e-04,5.900000000000000296e-04,1.600000000000000131e-04
2.700000000000000035e-04,2.700000000000000035e-04,1.269999999999999862e-03,9.000000000000000567e-05,-5.400000000000000069e-04,-2.999999999999999737e-04,5.900000000000000296e-04,1.600000000000000131e-04
2.700000000000000035e-04,2.700000000000000035e-04,1.269999999999999862e-03,9.000000000000000567e-05,-5.400000000000000069e-04,-2.999999999999999737e-04,5.900000000000000296e-04,1.600000000000000131e-04
2.700000000000000035e-04,2.700000000000000035e-04,1.269999999999999862e-03,9.000000000000000567e-05,-5.400000000000000069e-04,-2.999999999999999737e-04,5.900000000000000296e-04,1.600000000000000131e-04
2.700000000000000035e-04,2.700000000000000035e-04,1.269999999999999862e-03,9.000000000000000567e-05,-5.400000000000000069e-04,-2.999999999999999737e-04,5.900000000000000296e-04,1.600000000000000131e-04
2.700000000000000035e-04,2.700000000000000035e-04,1.269999999999999862e-03,9.000000000000000567e-05,-5.400000000000000069e-04,-2.999999999999999737e-04,5.900000000000000296e-04,1.600000000000000131e-04
2.700000000000000035e-04,2.700000000000000035e-04,1.269999999999999862e-03,9.000000000000000567e-05,-5.400000000000000069e-04,-2.999999999999999737e-04,5.900000000000000296e-04,1.600000000000000131e-04
2.700000000000000035e-04,2.700000000000000035e-04,1.269999999999999862e-03,9.000000000000000567e-05,-5.400000000000000069e-04,-2.999999999999999737e-04,5.900000000000000296e-04,1.600000000000000131e-04
2.700000000000000035e-04,2.700000000000000035e-04,1.269999999999999862e-03,9.000000000000000567e-05,-5.400000000000000069e-04,-2.999999999999999737e-04,5.900000000000000296e-04,1.600000000000000131e-04
2.700000000000000035e-04,2.700000000000000035e-04,1.269999999999999862e-03,9.000000000000000567e-05,-5.400000000000000069e-04,-2.999999999999999737e-04,5.900000000000000296e-04,1.600000000000000131e-04
2.700000000000000035e-04,2.700000000000000035e-04,1.269999999999999862e-03,9.000000000000000567e-05,-5.400000000000000069e-04,-2.999999999999999737e-04,5.900000000000000296e-04,1.600000000000000131e-04
2.700000000000000035e-04,2.700000000000000035e-04,1.269999999999999862e-03,9.000000000000000567e-05,-5.400000000000000069e-04,-2.999999999999999737e-04,5.900000000000000296e-04,1.600000000000000131e-04
2.700000000000000035e-04,2.700000000000000035e-04,1.269999999999999862e-03,9.000000000000000567e-05,-5.400000000000000069e-04,-2.999999999999999737e-04,5.900000000000000296e-04,1.600000000000000131e-04
2.700000000000000035e-04,2.700000000000000035e-04,1.269999999999999862e-03,9.000000000000000567e-05,-5.400000000000000069e-04,-2.999999999999999737e-04,5.900000000000000296e-04,1.600000000000000131e-04
-8.400000000000000348e-04,2.999999999999999737e-05,1.040000000000000126e-03,3.399999999999999702e-04,-1.499999999999999869e-04,-1.199999999999999895e-04,2.200000000000000078e-04,-4.799999999999999580e-04
-8.400000000000000348e-04,2.999999999999999737e-05,1.040000000000000126e-03,3.399999999999999702e-04,-1.499999999999999869e-04,-1.199999999999999895e-04,2.200000000000000078e-04,-4.799999999999999580e-04
4.499999999999999877e-04,1.600000000000000131e-04,4.400000000000000157e-04,7.099999999999999107e-04,1.100000000000000039e-04,4.099999999999999912e-04,9.799999999999999684e-04,3.600000000000000227e-04
4.499999999999999877e-04,1.600000000000000131e-04,4.400000000000000157e-04,7.099999999999999107e-04,1.100000000000000039e-04,4.099999999999999912e-04,9.799999999999999684e-04,3.600000000000000227e-04
4.499999999999999877e-04,1.600000000000000131e-04,4.400000000000000157e-04,7.099999999999999107e-04,1.100000000000000039e-04,4.099999999999999912e-04,9.799999999999999684e-04,3.600000000000000227e-04
4.499999999999999877e-04,1.600000000000000131e-04,4.400000000000000157e-04,7.099999999999999107e-04,1.100000000000000039e-04,4.099999999999999912e-04,9.799999999999999684e-04,3.600000000000000227e-04
4.499999999999999877e-04,1.600000000000000131e-04,4.400000000000000157e-04,7.099999999999999107e-04,1.100000000000000039e-04,4.099999999999999912e-04,9.799999999999999684e-04,3.600000000000000227e-04
4.499999999999999877e-04,1.600000000000000131e-04,4.400000000000000157e-04,7.099999999999999107e-04,1.100000000000000039e-04,4.099999999999999912e-04,9.799999999999999684e-04,3.600000000000000227e-04
4.499999999999999877e-04,1.600000000000000131e-04,4.400000000000000157e-04,7.099999999999999107e-04,1.100000000000000039e-04,4.099999999999999912e-04,9.799999999999999684e-04,3.600000000000000227e-04
4.499999999999999877e-04,1.600000000000000131e-04,4.400000000000000157e-04,7.099999999999999107e-04,1.100000000000000039e-04,4.099999999999999912e-04,9.799999999999999684e-04,3.600000000000000227e-04
4.499999999999999877e-04,1.600000000000000131e-04,4.400000000000000157e-04,7.099999999999999107e-04,1.100000000000000039e-04,4.099999999999999912e-04,9.799999999999999684e-04,3.600000000000000227e-04
4.499999999999999877e-04,1.600000000000000131e-04,4.400000000000000157e-04,7.099999999999999107e-04,1.100000000000000039e-04,4.099999999999999912e-04,9.799999999999999684e-04,3.600000000000000227e-04
4.499999999999999877e-04,1.600000000000000131e-04,4.400000000000000157e-04,7.099999999999999107e-04,1.100000000000000039e-04,4.099999999999999912e-04,9.799999999999999684e-04,3.600000000000000227e-04
4.499999999999999877e-04,1.600000000000000131e-04,4.400000000000000157e-04,7.099999999999999107e-04,1.100000000000000039e-04,4.099999999999999912e-04,9.799999999999999684e-04,3.600000000000000227e-04
4.499999999999999877e-04,1.600000000000000131e-04,4.400000000000000157e-04,7.099999999999999107e-04,1.100000000000000039e-04,4.099999999999999912e-04,9.799999999999999684e-04,3.600000000000000227e-04
4.499999999999999877e-04,1.600000000000000131e-04,4.400000000000000157e-04,7.099999999999999107e-04,1.100000000000000039e-04,4.099999999999999912e-04,9.799999999999999684e-04,3.600000000000000227e-04
4.499999999999999877e-04,1.600000000000000131e-04,4.400000000000000157e-04,7.099999999999999107e-04,1.100000000000000039e-04,4.099999999999999912e-04,9.799999999999999684e-04,3.600000000000000227e-04
4.499999999999999877e-04,1.600000000000000131e-04,4.400000000000000157e-04,7.099999999999999107e-04,1.100000000000000039e-04,4.099999999999999912e-04,9.799999999999999684e-04,3.600000000000000227e-04
4.499999999999999877e-04,1.600000000000000131e-04,4.400000000000000157e-04,7.099999999999999107e-04,1.100000000000000039e-04,4.099999999999999912e-04,9.799999999999999684e-04,3.600000000000000227e-04
4.499999999999999877e-04,1.600000000000000131e-04,4.400000000000000157e-04,7.099999999999999107e-04,1.100000000000000039e-04,4.099999999999999912e-04,9.799999999999999684e-04,3.600000000000000227e-04
4.499999999999999877e-04,1.600000000000000131e-04,4.400000000000000157e-04,7.099999999999999107e-04,1.100000000000000039e-04,4.099999999999999912e-04,9.799999999999999684e-04,3.600000000000000227e-04
4.499999999999999877e-04,1.600000000000000131e-04,4.400000000000000157e-04,7.099999999999999107e-04,1.100000000000000039e-04,4.099999999999999912e-04,9.799999999999999684e-04,3.600000000000000227e-04
4.499999999999999877e-04,1.600000000000000131e-04,4.400000000000000157e-04,7.099999999999999107e-04,1.100000000000000039e-04,4.099999999999999912e-04,9.799999999999999684e-04,3.600000000000000227e-04
1.899999999999999834e-04,1.000000000000000048e-04,-9.000000000000000567e-05,-1.100000000000000039e-04,2.000000000000000164e-05,-1.000000000000000048e-04,2.200000000000000078e-04,-4.000000000000000327e-05
4.200000000000000174e-04,2.000000000000000164e-05,-5.099999999999999282e-04,-8.999999999999999754e-04,-1.899999999999999834e-04,-5.099999999999999282e-04,-1.250000000000000026e-03,2.700000000000000035e-04
4.200000000000000174e-04,2.000000000000000164e-05,-5.099999999999999282e-04,-8.999999999999999754e-04,-1.899999999999999834e-04,-5.099999999999999282e-04,-1.250000000000000026e-03,2.700000000000000035e-04
4.200000000000000174e-04,2.000000000000000164e-05,-5.099999999999999282e-04,-8.999999999999999754e-04,-1.899999999999999834e-04,-5.099999999999999282e-04,-1.250000000000000026e-03,2.700000000000000035e-04
4.200000000000000174e-04,2.000000000000000164e-05,-5.099999999999999282e-04,-8.999999999999999754e-04,-1.899999999999999834e-04,-5.099999999999999282e-04,-1.250000000000000026e-03,2.700000000000000035e-04
4.200000000000000174e-04,2.000000000000000164e-05,-5.099999999999999282e-04,-8.999999999999999754e-04,-1.899999999999999834e-04,-5.099999999999999282e-04,-1.250000000000000026e-03,2.700000000000000035e-04
4.200000000000000174e-04,2.000000000000000164e-05,-5.099999999999999282e-04,-8.999999999999999754e-04,-1.899999999999999834e-04,-5.099999999999999282e-04,-1.250000000000000026e-03,2.700000000000000035e-04
4.200000000000000174e-04,2.000000000000000164e-05,-5.099999999999999282e-04,-8.999999999999999754e-04,-1.899999999999999834e-04,-5.099999999999999282e-04,-1.250000000000000026e-03,2.700000000000000035e-04
4.200000000000000174e-04,2.000000000000000164e-05,-5.099999999999999282e-04,-8.999999999999999754e-04,-1.899999999999999834e-04,-5.099999999999999282e-04,-1.250000000000000026e-03,2.700000000000000035e-04
4.200000000000000174e-04,2.000000000000000164e-05,-5.099999999999999282e-04,-8.999999999999999754e-04,-1.899999999999999834e-04,-5.099999999999999282e-04,-1.250000000000000026e-03,2.700000000000000035e-04
4.200000000000000174e-04,2.000000000000000164e-05,-5.099999999999999282e-04,-8.999999999999999754e-04,-1.899999999999999834e-04,-5.099999999999999282e-04,-1.250000000000000026e-03,2.700000000000000035e-04
4.200000000000000174e-04,2.000000000000000164e-05,-5.099999999999999282e-04,-8.999999999999999754e-04,-1.899999999999999834e-04,-5.099999999999999282e-04,-1.250000000000000026e-03,2.700000000000000035e-04
5.999999999999999474e-05,-4.000000000000000327e-05,-4.200000000000000174e-04,-1.800000000000000113e-04,1.000000000000000048e-04,-3.099999999999999999e-04,1.130000000000000145e-03,4.200000000000000174e-04
2.100000000000000087e-04,0.000000000000000000e+00,3.600000000000000227e-04,4.000000000000000327e-05,-4.000000000000000327e-05,1.149999999999999981e-03,-8.000000000000000383e-04,4.000000000000000327e-05
2.100000000000000087e-04,0.000000000000000000e+00,3.600000000000000227e-04,4.000000000000000327e-05,-4.000000000000000327e-05,1.149999999999999981e-03,-8.000000000000000383e-04,4.000000000000000327e-05
2.100000000000000087e-04,0.000000000000000000e+00,3.600000000000000227e-04,4.000000000000000327e-05,-4.000000000000000327e-05,1.149999999999999981e-03,-8.000000000000000383e-04,4.000000000000000327e-05
2.100000000000000087e-04,0.000000000000000000e+00,3.600000000000000227e-04,4.000000000000000327e-05,-4.000000000000000327e-05,1.149999999999999981e-03,-8.000000000000000383e-04,4.000000000000000327e-05
2.100000000000000087e-04,0.000000000000000000e+00,3.600000000000000227e-04,4.000000000000000327e-05,-4.000000000000000327e-05,1.149999999999999981e-03,-8.000000000000000383e-04,4.000000000000000327e-05
2.100000000000000087e-04,0.000000000000000000e+00,3.600000000000000227e-04,4.000000000000000327e-05,-4.000000000000000327e-05,1.149999999999999981e-03,-8.000000000000000383e-04,4.000000000000000327e-05
2.100000000000000087e-04,0.000000000000000000e+00,3.600000000000000227e-04,4.000000000000000327e-05,-4.000000000000000327e-05,1.149999999999999981e-03,-8.000000000000000383e-04,4.000000000000000327e-05
2.100000000000000087e-04,0.000000000000000000e+00,3.600000000000000227e-04,4.000000000000000327e-05,-4.000000000000000327e-05,1.149999999999999981e-03,-8.000000000000000383e-04,4.000000000000000327e-05
2.100000000000000087e-04,0.000000000000000000e+00,3.600000000000000227e-04,4.000000000000000327e-05,-4.000000000000000327e-05,1.149999999999999981e-03,-8.000000000000000383e-04,4.000000000000000327e-05
2.100000000000000087e-04,0.000000000000000000e+00,3.600000000000000227e-04,4.000000000000000327e-05,-4.000000000000000327e-05,1.149999999999999981e-03,-8.000000000000000383e-04,4.000000000000000327e-05
2.100000000000000087e-04,0.000000000000000000e+00,3.600000000000000227e-04,4.000000000000000327e-05,-4.000000000000000327e-05,1.149999999999999981e-03,-8.000000000000000383e-04,4.000000000000000327e-05
2.100000000000000087e-04,0.000000000000000000e+00,3.600000000000000227e-04,4.000000000000000327e-05,-4.000000000000000327e-05,1.149999999999999981e-03,-8.000000000000000383e-04,4.000000000000000327e-05
2.100000000000000087e-04,0.000000000000000000e+00,3.600000000000000227e-04,4.000000000000000327e-05,-4.000000000000000327e-05,1.149999999999999981e-03,-8.000000000000000383e-04,4.000000000000000327e-05
2.100000000000000087e-04,0.000000000000000000e+00,3.600000000000000227e-04,4.000000000000000327e-05,-4.000000000000000327e-05,1.149999999999999981e-03,-8.000000000000000383e-04,4.000000000000000327e-05
2.100000000000000087e-04,0.000000000000000000e+00,3.600000000000000227e-04,4.000000000000000327e-05,-4.000000000000000327e-05,1.149999999999999981e-03,-8.000000000000000383e-04,4.000000000000000327e-05
2.100000000000000087e-04,0.000000000000000000e+00,3.600000000000000227e-04,4.000000000000000327e-05,-4.000000000000000327e-05,1.149999999999999981e-03,-8.000000000000000383e-04,4.000000000000000327e-05
2.100000000000000087e-04,0.000000000000000000e+00,3.600000000000000227e-04,4.000000000000000327e-05,-4.000000000000000327e-05,1.149999999999999981e-03,-8.000000000000000383e-04,4.000000000000000327e-05
2.100000000000000087e-04,0.000000000000000000e+00,3.600000000000000227e-04,4.000000000000000327e-05,-4.000000000000000327e-05,1.149999999999999981e-03,-8.000000000000000383e-04,4.000000000000000327e-05
2.100000000000000087e-04,0.000000000000000000e+00,3.600000000000000227e-04,4.000000000000000327e-05,-4.000000000000000327e-05,1.149999999999999981e-03,-8.000000000000000383e-04,4.000000000000000327e-05
2.100000000000000087e-04,0.000000000000000000e+00,3.600000000000000227e-04,4.000000000000000327e-05,-4.000000000000000327e-05,1.149999999999999981e-03,-8.000000000000000383e-04,4.000000000000000327e-05
2.100000000000000087e-04,0.000000000000000000e+00,3.600000000000000227e-04,4.000000000000000327e-05,-4.000000000000000327e-05,1.149999999999999981e-03,-8.000000000000000383e-04,4.000000000000000327e-05
-2.200000000000000078e-04,-1.300000000000000157e-04,-5.800000000000000034e-04,-8.000000000000000383e-04,2.999999999999999737e-04,3.499999999999999964e-04,-4.700000000000000401e-04,-2.700000000000000035e-04
-2.200000000000000078e-04,-1.300000000000000157e-04,-5.800000000000000034e-04,-8.000000000000000383e-04,2.999999999999999737e-04,3.499999999999999964e-04,-4.700000000000000401e-04,-2.700000000000000035e-04
-4.299999999999999894e-04,-8.000000000000000654e-05,2.000000000000000096e-04,1.229999999999999974e-03,5.500000000000000331e-04,-4.000000000000000327e-05,9.000000000000000567e-05,-1.499999999999999869e-04
-4.299999999999999894e-04,-8.000000000000000654e-05,2.000000000000000096e-04,1.229999999999999974e-03,5.500000000000000331e-04,-4.000000000000000327e-05,9.000000000000000567e-05,-1.499999999999999869e-04
-4.299999999999999894e-04,-8.000000000000000654e-05,2.000000000000000096e-04,1.229999999999999974e-03,5.500000000000000331e-04,-4.000000000000000327e-05,9.000000000000000567e-05,-1.499999999999999869e-04
-4.299999999999999894e-04,-8.000000000000000654e-05,2.000000000000000096e-04,1.229999999999999974e-03,5.500000000000000331e-04,-4.000000000000000327e-05,9.000000000000000567e-05,-1.499999999999999869e-04
-4.299999999999999894e-04,-8.000000000000000654e-05,2.000000000000000096e-04,1.229999999999999974e-03,5.500000000000000331e-04,-4.000000000000000327e-05,9.000000000000000567e-05,-1.499999999999999869e-04
-4.299999999999999894e-04,-8.000000000000000654e-05,2.000000000000000096e-04,1.229999999999999974e-03,5.500000000000000331e-04,-4.000000000000000327e-05,9.000000000000000567e-05,-1.499999999999999869e-04
-4.299999999999999894e-04,-8.000000000000000654e-05,2.000000000000000096e-04,1.229999999999999974e-03,5.500000000000000331e-04,-4.000000000000000327e-05,9.000000000000000567e-05,-1.499999999999999869e-04
-4.299999999999999894e-04,-8.000000000000000654e-05,2.000000000000000096e-04,1.229999999999999974e-03,5.500000000000000331e-04,-4.000000000000000327e-05,9.000000000000000567e-05,-1.499999999999999869e-04
-4.299999999999999894e-04,-8.000000000000000654e-05,2.000000000000000096e-04,1.229999999999999974e-03,5.500000000000000331e-04,-4.000000000000000327e-05,9.000000000000000567e-05,-1.499999999999999869e-04
-4.299999999999999894e-04,-8.000000000000000654e-05,2.000000000000000096e-04,1.229999999999999974e-03,5.500000000000000331e-04,-4.000000000000000327e-05,9.000000000000000567e-05,-1.499999999999999869e-04
-4.299999999999999894e-04,-8.000000000000000654e-05,2.000000000000000096e-04,1.229999999999999974e-03,5.500000000000000331e-04,-4.000000000000000327e-05,9.000000000000000567e-05,-1.499999999999999869e-04
-4.299999999999999894e-04,-8.000000000000000654e-05,2.000000000000000096e-04,1.229999999999999974e-03,5.500000000000000331e-04,-4.000000000000000327e-05,9.000000000000000567e-05,-1.499999999999999869e-04
-4.299999999999999894e-04,-8.000000000000000654e-05,2.000000000000000096e-04,1.229999999999999974e-03,5.500000000000000331e-04,-4.000000000000000327e-05,9.000000000000000567e-05,-1.499999999999999869e-04
-4.299999999999999894e-04,-8.000000000000000654e-05,2.000000000000000096e-04,1.229999999999999974e-03,5.500000000000000331e-04,-4.000000000000000327e-05,9.000000000000000567e-05,-1.499999999999999869e-04
-4.299999999999999894e-04,-8.000000000000000654e-05,2.000000000000000096e-04,1.229999999999999974e-03,5.500000000000000331e-04,-4.000000000000000327e-05,9.000000000000000567e-05,-1.499999999999999869e-04
-4.299999999999999894e-04,-8.000000000000000654e-05,2.000000000000000096e-04,1.229999999999999974e-03,5.500000000000000331e-04,-4.000000000000000327e-05,9.000000000000000567e-05,-1.499999999999999869e-04
-4.299999999999999894e-04,-8.000000000000000654e-05,2.000000000000000096e-04,1.229999999999999974e-03,5.500000000000000331e-04,-4.000000000000000327e-05,9.000000000000000567e-05,-1.499999999999999869e-04
-4.299999999999999894e-04,-8.000000000000000654e-05,2.000000000000000096e-04,1.229999999999999974e-03,5.500000000000000331e-04,-4.000000000000000327e-05,9.000000000000000567e-05,-1.499999999999999869e-04
-4.299999999999999894e-04,-8.000000000000000654e-05,2.000000000000000096e-04,1.229999999999999974e-03,5.500000000000000331e-04,-4.000000000000000327e-05,9.000000000000000567e-05,-1.499999999999999869e-04
-5.099999999999999282e-04,-6.999999999999999387e-05,3.299999999999999982e-04,9.899999999999999946e-04,5.000000000000000104e-04,2.100000000000000087e-04,-2.799999999999999755e-04,-6.999999999999999387e-05
-5.099999999999999282e-04,-6.999999999999999387e-05,3.299999999999999982e-04,9.899999999999999946e-04,5.000000000000000104e-04,2.100000000000000087e-04,-2.799999999999999755e-04,-6.999999999999999387e-05
-1.399999999999999877e-04,-6.999999999999999387e-05,2.299999999999999799e-04,4.099999999999999912e-04,-1.499999999999999869e-04,-4.599999999999999597e-04,-2.399999999999999790e-04,-3.399999999999999702e-04
-1.399999999999999877e-04,-6.999999999999999387e-05,2.299999999999999799e-04,4.099999999999999912e-04,-1.499999999999999869e-04,-4.599999999999999597e-04,-2.399999999999999790e-04,-3.399999999999999702e-04
-1.399999999999999877e-04,-6.999999999999999387e-05,2.299999999999999799e-04,4.099999999999999912e-04,-1.499999999999999869e-04,-4.599999999999999597e-04,-2.399999999999999790e-04,-3.399999999999999702e-04
-1.399999999999999877e-04,-6.999999999999999387e-05,2.299999999999999799e-04,4.099999999999999912e-04,-1.499999999999999869e-04,-4.599999999999999597e-04,-2.399999999999999790e-04,-3.399999999999999702e-04
-1.399999999999999877e-04,-6.999999999999999387e-05,2.299999999999999799e-04,4.099999999999999912e-04,-1.499999999999999869e-04,-4.599999999999999597e-04,-2.399999999999999790e-04,-3.399999999999999702e-04
-1.399999999999999877e-04,-6.999999999999999387e-05,2.299999999999999799e-04,4.099999999999999912e-04,-1.499999999999999869e-04,-4.599999999999999597e-04,-2.399999999999999790e-04,-3.399999999999999702e-04
-1.399999999999999877e-04,-6.999999999999999387e-05,2.299999999999999799e-04,4.099999999999999912e-04,-1.499999999999999869e-04,-4.599999999999999597e-04,-2.399999999999999790e-04,-3.399999999999999702e-04
-1.399999999999999877e-04,-6.999999999999999387e-05,2.299999999999999799e-04,4.099999999999999912e-04,-1.499999999999999869e-04,-4.599999999999999597e-04,-2.399999999999999790e-04,-3.399999999999999702e-04
-1.399999999999999877e-04,-6.999999999999999387e-05,2.299999999999999799e-04,4.099999999999999912e-04,-1.499999999999999869e-04,-4.599999999999999597e-04,-2.399999999999999790e-04,-3.399999999999999702e-04
-1.399999999999999877e-04,-6.999999999999999387e-05,2.299999999999999799e-04,4.099999999999999912e-04,-1.499999999999999869e-04,-4.599999999999999597e-04,-2.399999999999999790e-04,-3.399999999999999702e-04
-1.399999999999999877e-04,-6.999999999999999387e-05,2.299999999999999799e-04,4.099999999999999912e-04,-1.499999999999999869e-04,-4.599999999999999597e-04,-2.399999999999999790e-04,-3.399999999999999702e-04
-1.399999999999999877e-04,-6.999999999999999387e-05,2.299999999999999799e-04,4.099999999999999912e-04,-1.499999999999999869e-04,-4.599999999999999597e-04,-2.399999999999999790e-04,-3.399999999999999702e-04
-1.399999999999999877e-04,-6.999999999999999387e-05,2.299999999999999799e-04,4.099999999999999912e-04,-1.499999999999999869e-04,-4.599999999999999597e-04,-2.399999999999999790e-04,-3.399999999999999702e-04
-3.499999999999999964e-04,-1.300000000000000157e-04,2.500000000000000052e-04,-4.599999999999999597e-04,-2.600000000000000314e-04,-6.799999999999999404e-04,6.199999999999999999e-04,5.099999999999999282e-04
-3.499999999999999964e-04,-1.300000000000000157e-04,2.500000000000000052e-04,-4.599999999999999597e-04,-2.600000000000000314e-04,-6.799999999999999404e-04,6.199999999999999999e-04,5.099999999999999282e-04
-1.399999999999999877e-04,-1.000000000000000048e-04,-2.200000000000000078e-04,2.000000000000000164e-05,-2.100000000000000087e-04,-2.999999999999999737e-05,7.900000000000000121e-04,2.000000000000000096e-04
-1.399999999999999877e-04,-1.000000000000000048e-04,-2.200000000000000078e-04,2.000000000000000164e-05,-2.100000000000000087e-04,-2.999999999999999737e-05,7.900000000000000121e-04,2.000000000000000096e-04
-1.399999999999999877e-04,-1.000000000000000048e-04,-2.200000000000000078e-04,2.000000000000000164e-05,-2.100000000000000087e-04,-2.999999999999999737e-05,7.900000000000000121e-04,2.000000000000000096e-04
-1.399999999999999877e-04,-1.000000000000000048e-04,-2.200000000000000078e-04,2.000000000000000164e-05,-2.100000000000000087e-04,-2.999999999999999737e-05,7.900000000000000121e-04,2.000000000000000096e-04
-1.399999999999999877e-04,-1.000000000000000048e-04,-2.200000000000000078e-04,2.000000000000000164e-05,-2.100000000000000087e-04,-2.999999999999999737e-05,7.900000000000000121e-04,2.000000000000000096e-04
-1.399999999999999877e-04,-1.000000000000000048e-04,-2.200000000000000078e-04,2.000000000000000164e-05,-2.100000000000000087e-04,-2.999999999999999737e-05,7.900000000000000121e-04,2.000000000000000096e-04
-1.399999999999999877e-04,-1.000000000000000048e-04,-2.200000000000000078e-04,2.000000000000000164e-05,-2.100000000000000087e-04,-2.999999999999999737e-05,7.900000000000000121e-04,2.000000000000000096e-04
-1.399999999999999877e-04,-1.000000000000000048e-04,-2.200000000000000078e-04,2.000000000000000164e-05,-2.100000000000000087e-04,-2.999999999999999737e-05,7.900000000000000121e-04,2.000000000000000096e-04
-1.399999999999999877e-04,-1.000000000000000048e-04,-2.200000000000000078e-04,2.000000000000000164e-05,-2.100000000000000087e-04,-2.999999999999999737e-05,7.900000000000000121e-04,2.000000000000000096e-04
-1.399999999999999877e-04,-1.000000000000000048e-04,-2.200000000000000078e-04,2.000000000000000164e-05,-2.100000000000000087e-04,-2.999999999999999737e-05,7.900000000000000121e-04,2.000000000000000096e-04
-1.399999999999999877e-04,-1.000000000000000048e-04,-2.200000000000000078e-04,2.000000000000000164e-05,-2.100000000000000087e-04,-2.999999999999999737e-05,7.900000000000000121e-04,2.000000000000000096e-04
-1.399999999999999877e-04,-1.000000000000000048e-04,-2.200000000000000078e-04,2.000000000000000164e-05,-2.100000000000000087e-04,-2.999999999999999737e-05,7.900000000000000121e-04,2.000000000000000096e-04
-1.399999999999999877e-04,-1.000000000000000048e-04,-2.200000000000000078e-04,2.000000000000000164e-05,-2.100000000000000087e-04,-2.999999999999999737e-05,7.900000000000000121e-04,2.000000000000000096e-04
-1.399999999999999877e-04,-1.000000000000000048e-04,-2.200000000000000078e-04,2.000000000000000164e-05,-2.100000000000000087e-04,-2.999999999999999737e-05,7.900000000000000121e-04,2.000000000000000096e-04
-1.399999999999999877e-04,-1.000000000000000048e-04,-2.200000000000000078e-04,2.000000000000000164e-05,-2.100000000000000087e-04,-2.999999999999999737e-05,7.900000000000000121e-04,2.000000000000000096e-04
-1.399999999999999877e-04,-1.000000000000000048e-04,-2.200000000000000078e-04,2.000000000000000164e-05,-2.100000000000000087e-04,-2.999999999999999737e-05,7.900000000000000121e-04,2.000000000000000096e-04
-1.399999999999999877e-04,-1.000000000000000048e-04,-2.200000000000000078e-04,2.000000000000000164e-05,-2.100000000000000087e-04,-2.999999999999999737e-05,7.900000000000000121e-04,2.000000000000000096e-04
-1.399999999999999877e-04,-1.000000000000000048e-04,-2.200000000000000078e-04,2.000000000000000164e-05,-2.100000000000000087e-04,-2.999999999999999737e-05,7.900000000000000121e-04,2.000000000000000096e-04
-1.399999999999999877e-04,-1.000000000000000048e-04,-2.200000000000000078e-04,2.000000000000000164e-05,-2.100000000000000087e-04,-2.999999999999999737e-05,7.900000000000000121e-04,2.000000000000000096e-04
-1.399999999999999877e-04,-1.000000000000000048e-04,-2.200000000000000078e-04,2.000000000000000164e-05,-2.100000000000000087e-04,-2.999999999999999737e-05,7.900000000000000121e-04,2.000000000000000096e-04
1.000000000000000048e-04,-6.999999999999999387e-05,-3.099999999999999999e-04,1.000000000000000082e-05,1.899999999999999834e-04,2.000000000000000164e-05,-7.700000000000000681e-04,-2.000000000000000096e-04
-1.000000000000000082e-05,9.000000000000000567e-05,4.000000000000000327e-05,-5.000000000000000240e-05,-2.000000000000000164e-05,3.200000000000000262e-04,5.500000000000000331e-04,-2.200000000000000078e-04
-4.299999999999999894e-04,-4.599999999999999597e-04,-1.190000000000000085e-03,-6.199999999999999999e-04,4.000000000000000327e-05,-6.900000000000000751e-04,-6.300000000000000261e-04,-2.299999999999999799e-04
-4.299999999999999894e-04,-4.599999999999999597e-04,-1.190000000000000085e-03,-6.199999999999999999e-04,4.000000000000000327e-05,-6.900000000000000751e-04,-6.300000000000000261e-04,-2.299999999999999799e-04
-4.299999999999999894e-04,-4.599999999999999597e-04,-1.190000000000000085e-03,-6.199999999999999999e-04,4.000000000000000327e-05,-6.900000000000000751e-04,-6.300000000000000261e-04,-2.299999999999999799e-04
-4.299999999999999894e-04,-4.599999999999999597e-04,-1.190000000000000085e-03,-6.199999999999999999e-04,4.000000000000000327e-05,-6.900000000000000751e-04,-6.300000000000000261e-04,-2.299999999999999799e-04
-4.299999999999999894e-04,-4.599999999999999597e-04,-1.190000000000000085e-03,-6.199999999999999999e-04,4.000000000000000327e-05,-6.900000000000000751e-04,-6.300000000000000261e-04,-2.299999999999999799e-04
-4.299999999999999894e-04,-4.599999999999999597e-04,-1.190000000000000085e-03,-6.199999999999999999e-04,4.000000000000000327e-05,-6.900000000000000751e-04,-6.300000000000000261e-04,-2.299999999999999799e-04
-4.299999999999999894e-04,-4.599999999999999597e-04,-1.190000000000000085e-03,-6.199999999999999999e-04,4.000000000000000327e-05,-6.900000000000000751e-04,-6.300000000000000261e-04,-2.299999999999999799e-04
-4.299999999999999894e-04,-4.599999999999999597e-04,-1.190000000000000085e-03,-6.199999999999999999e-04,4.000000000000000327e-05,-6.900000000000000751e-04,-6.300000000000000261e-04,-2.299999999999999799e-04
-4.299999999999999894e-04,-4.599999999999999597e-04,-1.190000000000000085e-03,-6.199999999999999999e-04,4.000000000000000327e-05,-6.900000000000000751e-04,-6.300000000000000261e-04,-2.299999999999999799e-04
-4.299999999999999894e-04,-4.599999999999999597e-04,-1.190000000000000085e-03,-6.199999999999999999e-04,4.000000000000000327e-05,-6.900000000000000751e-04,-6.300000000000000261e-04,-2.299999999999999799e-04
-4.299999999999999894e-04,-4.599999999999999597e-04,-1.190000000000000085e-03,-6.199999999999999999e-04,4.000000000000000327e-05,-6.900000000000000751e-04,-6.300000000000000261e-04,-2.299999999999999799e-04
-4.299999999999999894e-04,-4.599999999999999597e-04,-1.190000000000000085e-03,-6.199999999999999999e-04,4.000000000000000327e-05,-6.900000000000000751e-04,-6.300000000000000261e-04,-2.299999999999999799e-04
-4.299999999999999894e-04,-4.599999999999999597e-04,-1.190000000000000085e-03,-6.199999999999999999e-04,4.000000000000000327e-05,-6.900000000000000751e-04,-6.300000000000000261e-04,-2.299999999999999799e-04
-4.299999999999999894e-04,-4.599999999999999597e-04,-1.190000000000000085e-03,-6.199999999999999999e-04,4.000000000000000327e-05,-6.900000000000000751e-04,-6.300000000000000261e-04,-2.299999999999999799e-04
-4.299999999999999894e-04,-4.599999999999999597e-04,-1.190000000000000085e-03,-6.199999999999999999e-04,4.000000000000000327e-05,-6.900000000000000751e-04,-6.300000000000000261e-04,-2.299999999999999799e-04
-4.299999999999999894e-04,-4.599999999999999597e-04,-1.190000000000000085e-03,-6.199999999999999999e-04,4.000000000000000327e-05,-6.900000000000000751e-04,-6.300000000000000261e-04,-2.299999999999999799e-04
-4.299999999999999894e-04,-4.599999999999999597e-04,-1.190000000000000085e-03,-6.199999999999999999e-04,4.000000000000000327e-05,-6.900000000000000751e-04,-6.300000000000000261e-04,-2.299999999999999799e-04
-4.299999999999999894e-04,-4.599999999999999597e-04,-1.190000000000000085e-03,-6.199999999999999999e-04,4.000000000000000327e-05,-6.900000000000000751e-04,-6.300000000000000261e-04,-2.299999999999999799e-04
-4.299999999999999894e-04,-4.599999999999999597e-04,-1.190000000000000085e-03,-6.199999999999999999e-04,4.000000000000000327e-05,-6.900000000000000751e-04,-6.300000000000000261e-04,-2.299999999999999799e-04
-1.000000000000000082e-05,6.999999999999999387e-05,-1.399999999999999877e-04,5.000000000000000104e-04,-6.999999999999999387e-05,-1.300000000000000157e-04,5.999999999999999474e-05,9.000000000000000567e-05
-1.000000000000000082e-05,6.999999999999999387e-05,-1.399999999999999877e-04,5.000000000000000104e-04,-6.999999999999999387e-05,-1.300000000000000157e-04,5.999999999999999474e-05,9.000000000000000567e-05
2.000000000000000164e-05,2.100000000000000087e-04,1.300000000000000157e-04,-4.400000000000000157e-04,2.799999999999999755e-04,2.200000000000000078e-04,3.899999999999999929e-04,5.000000000000000104e-04
2.000000000000000164e-05,2.100000000000000087e-04,1.300000000000000157e-04,-4.400000000000000157e-04,2.799999999999999755e-04,2.200000000000000078e-04,3.899999999999999929e-04,5.000000000000000104e-04
2.000000000000000164e-05,2.100000000000000087e-04,1.300000000000000157e-04,-4.400000000000000157e-04,2.799999999999999755e-04,2.200000000000000078e-04,3.899999999999999929e-04,5.000000000000000104e-04
2.000000000000000164e-05,2.100000000000000087e-04,1.300000000000000157e-04,-4.400000000000000157e-04,2.799999999999999755e-04,2.200000000000000078e-04,3.899999999999999929e-04,5.000000000000000104e-04
2.000000000000000164e-05,2.100000000000000087e-04,1.300000000000000157e-04,-4.400000000000000157e-04,2.799999999999999755e-04,2.200000000000000078e-04,3.899999999999999929e-04,5.000000000000000104e-04
2.000000000000000164e-05,2.100000000000000087e-04,1.300000000000000157e-04,-4.400000000000000157e-04,2.799999999999999755e-04,2.200000000000000078e-04,3.899999999999999929e-04,5.000000000000000104e-04
2.000000000000000164e-05,2.100000000000000087e-04,1.300000000000000157e-04,-4.400000000000000157e-04,2.799999999999999755e-04,2.200000000000000078e-04,3.899999999999999929e-04,5.000000000000000104e-04
2.000000000000000164e-05,2.100000000000000087e-04,1.300000000000000157e-04,-4.400000000000000157e-04,2.799999999999999755e-04,2.200000000000000078e-04,3.899999999999999929e-04,5.000000000000000104e-04
2.000000000000000164e-05,2.100000000000000087e-04,1.300000000000000157e-04,-4.400000000000000157e-04,2.799999999999999755e-04,2.200000000000000078e-04,3.899999999999999929e-04,5.000000000000000104e-04
2.000000000000000164e-05,2.100000000000000087e-04,1.300000000000000157e-04,-4.400000000000000157e-04,2.799999999999999755e-04,2.200000000000000078e-04,3.899999999999999929e-04,5.000000000000000104e-04
2.000000000000000164e-05,2.100000000000000087e-04,1.300000000000000157e-04,-4.400000000000000157e-04,2.799999999999999755e-04,2.200000000000000078e-04,3.899999999999999929e-04,5.000000000000000104e-04
2.000000000000000164e-05,2.100000000000000087e-04,1.300000000000000157e-04,-4.400000000000000157e-04,2.799999999999999755e-04,2.200000000000000078e-04,3.899999999999999929e-04,5.000000000000000104e-04
5.500000000000000331e-04,-3.200000000000000262e-04,-1.139999999999999954e-03,-4.799999999999999580e-04,0.000000000000000000e+00,-4.700000000000000401e-04,-1.149999999999999981e-03,-6.599999999999999964e-04
5.500000000000000331e-04,-3.200000000000000262e-04,-1.139999999999999954e-03,-4.799999999999999580e-04,0.000000000000000000e+00,-4.700000000000000401e-04,-1.149999999999999981e-03,-6.599999999999999964e-04
5.500000000000000331e-04,-3.200000000000000262e-04,-1.139999999999999954e-03,-4.799999999999999580e-04,0.000000000000000000e+00,-4.700000000000000401e-04,-1.149999999999999981e-03,-6.599999999999999964e-04
5.500000000000000331e-04,-3.200000000000000262e-04,-1.139999999999999954e-03,-4.799999999999999580e-04,0.000000000000000000e+00,-4.700000000000000401e-04,-1.149999999999999981e-03,-6.599999999999999964e-04
5.500000000000000331e-04,-3.200000000000000262e-04,-1.139999999999999954e-03,-4.799999999999999580e-04,0.000000000000000000e+00,-4.700000000000000401e-04,-1.149999999999999981e-03,-6.599999999999999964e-04
5.500000000000000331e-04,-3.200000000000000262e-04,-1.139999999999999954e-03,-4.799999999999999580e-04,0.000000000000000000e+00,-4.700000000000000401e-04,-1.149999999999999981e-03,-6.599999999999999964e-04
5.500000000000000331e-04,-3.200000000000000262e-04,-1.139999999999999954e-03,-4.799999999999999580e-04,0.000000000000000000e+00,-4.700000000000000401e-04,-1.149999999999999981e-03,-6.599999999999999964e-04
-1.199999999999999895e-04,1.499999999999999869e-04,7.900000000000000121e-04,6.599999999999999964e-04,2.000000000000000096e-04,2.100000000000000087e-04,3.899999999999999929e-04,3.399999999999999702e-04
-1.199999999999999895e-04,1.499999999999999869e-04,7.900000000000000121e-04,6.599999999999999964e-04,2.000000000000000096e-04,2.100000000000000087e-04,3.899999999999999929e-04,3.399999999999999702e-04
-1.199999999999999895e-04,1.499999999999999869e-04,7.900000000000000121e-04,6.599999999999999964e-04,2.000000000000000096e-04,2.100000000000000087e-04,3.899999999999999929e-04,3.399999999999999702e-04
-1.199999999999999895e-04,1.499999999999999869e-04,7.900000000000000121e-04,6.599999999999999964e-04,2.000000000000000096e-04,2.100000000000000087e-04,3.899999999999999929e-04,3.399999999999999702e-04
-1.199999999999999895e-04,1.499999999999999869e-04,7.900000000000000121e-04,6.599999999999999964e-04,2.000000000000000096e-04,2.100000000000000087e-04,3.899999999999999929e-04,3.399999999999999702e-04
-1.199999999999999895e-04,1.499999999999999869e-04,7.900000000000000121e-04,6.599999999999999964e-04,2.000000000000000096e-04,2.100000000000000087e-04,3.899999999999999929e-04,3.399999999999999702e-04
-1.199999999999999895e-04,1.499999999999999869e-04,7.900000000000000121e-04,6.599999999999999964e-04,2.000000000000000096e-04,2.100000000000000087e-04,3.899999999999999929e-04,3.399999999999999702e-04
-1.199999999999999895e-04,1.499999999999999869e-04,7.900000000000000121e-04,6.599999999999999964e-04,2.000000000000000096e-04,2.100000000000000087e-04,3.899999999999999929e-04,3.399999999999999702e-04
-1.199999999999999895e-04,1.499999999999999869e-04,7.900000000000000121e-04,6.599999999999999964e-04,2.000000000000000096e-04,2.100000000000000087e-04,3.899999999999999929e-04,3.399999999999999702e-04
-1.199999999999999895e-04,1.499999999999999869e-04,7.900000000000000121e-04,6.599999999999999964e-04,2.000000000000000096e-04,2.100000000000000087e-04,3.899999999999999929e-04,3.399999999999999702e-04
-1.199999999999999895e-04,1.499999999999999869e-04,7.900000000000000121e-04,6.599999999999999964e-04,2.000000000000000096e-04,2.100000000000000087e-04,3.899999999999999929e-04,3.399999999999999702e-04
-1.199999999999999895e-04,1.499999999999999869e-04,7.900000000000000121e-04,6.599999999999999964e-04,2.000000000000000096e-04,2.100000000000000087e-04,3.899999999999999929e-04,3.399999999999999702e-04
-1.199999999999999895e-04,1.499999999999999869e-04,7.900000000000000121e-04,6.599999999999999964e-04,2.000000000000000096e-04,2.100000000000000087e-04,3.899999999999999929e-04,3.399999999999999702e-04
-1.199999999999999895e-04,1.499999999999999869e-04,7.900000000000000121e-04,6.599999999999999964e-04,2.000000000000000096e-04,2.100000000000000087e-04,3.899999999999999929e-04,3.399999999999999702e-04
-1.199999999999999895e-04,1.499999999999999869e-04,7.900000000000000121e-04,6.599999999999999964e-04,2.000000000000000096e-04,2.100000000000000087e-04,3.899999999999999929e-04,3.399999999999999702e-04
6.199999999999999999e-04,2.999999999999999737e-04,6.900000000000000751e-04,2.100000000000000087e-04,-3.399999999999999702e-04,6.999999999999999387e-05,6.900000000000000751e-04,4.000000000000000327e-05
6.199999999999999999e-04,2.999999999999999737e-04,6.900000000000000751e-04,2.100000000000000087e-04,-3.399999999999999702e-04,6.999999999999999387e-05,6.900000000000000751e-04,4.000000000000000327e-05
2.799999999999999755e-04,5.000000000000000240e-05,-4.000000000000000327e-05,-2.999999999999999737e-05,-2.900000000000000017e-04,-5.999999999999999474e-05,-9.199999999999999194e-04,-2.100000000000000087e-04
2.799999999999999755e-04,5.000000000000000240e-05,-4.000000000000000327e-05,-2.999999999999999737e-05,-2.900000000000000017e-04,-5.999999999999999474e-05,-9.199999999999999194e-04,-2.100000000000000087e-04
2.799999999999999755e-04,5.000000000000000240e-05,-4.000000000000000327e-05,-2.999999999999999737e-05,-2.900000000000000017e-04,-5.999999999999999474e-05,-9.199999999999999194e-04,-2.100000000000000087e-04
2.799999999999999755e-04,5.000000000000000240e-05,-4.000000000000000327e-05,-2.999999999999999737e-05,-2.900000000000000017e-04,-5.999999999999999474e-05,-9.199999999999999194e-04,-2.100000000000000087e-04
2.799999999999999755e-04,5.000000000000000240e-05,-4.000000000000000327e-05,-2.999999999999999737e-05,-2.900000000000000017e-04,-5.999999999999999474e-05,-9.199999999999999194e-04,-2.100000000000000087e-04
2.799999999999999755e-04,5.000000000000000240e-05,-4.000000000000000327e-05,-2.999999999999999737e-05,-2.900000000000000017e-04,-5.999999999999999474e-05,-9.199999999999999194e-04,-2.100000000000000087e-04
2.799999999999999755e-04,5.000000000000000240e-05,-4.000000000000000327e-05,-2.999999999999999737e-05,-2.900000000000000017e-04,-5.999999999999999474e-05,-9.199999999999999194e-04,-2.100000000000000087e-04
2.799999999999999755e-04,5.000000000000000240e-05,-4.000000000000000327e-05,-2.999999999999999737e-05,-2.900000000000000017e-04,-5.999999999999999474e-05,-9.199999999999999194e-04,-2.100000000000000087e-04
2.799999999999999755e-04,5.000000000000000240e-05,-4.000000000000000327e-05,-2.999999999999999737e-05,-2.900000000000000017e-04,-5.999999999999999474e-05,-9.199999999999999194e-04,-2.100000000000000087e-04
2.799999999999999755e-04,5.000000000000000240e-05,-4.000000000000000327e-05,-2.999999999999999737e-05,-2.900000000000000017e-04,-5.999999999999999474e-05,-9.199999999999999194e-04,-2.100000000000000087e-04
2.799999999999999755e-04,5.000000000000000240e-05,-4.000000000000000327e-05,-2.999999999999999737e-05,-2.900000000000000017e-04,-5.999999999999999474e-05,-9.199999999999999194e-04,-2.100000000000000087e-04
2.799999999999999755e-04,5.000000000000000240e-05,-4.000000000000000327e-05,-2.999999999999999737e-05,-2.900000000000000017e-04,-5.999999999999999474e-05,-9.199999999999999194e-04,-2.100000000000000087e-04
2.799999999999999755e-04,5.000000000000000240e-05,-4.000000000000000327e-05,-2.999999999999999737e-05,-2.900000000000000017e-04,-5.999999999999999474e-05,-9.199999999999999194e-04,-2.100000000000000087e-04
2.799999999999999755e-04,5.000000000000000240e-05,-4.000000000000000327e-05,-2.999999999999999737e-05,-2.900000000000000017e-04,-5.999999999999999474e-05,-9.199999999999999194e-04,-2.100000000000000087e-04
2.799999999999999755e-04,5.000000000000000240e-05,-4.000000000000000327e-05,-2.999999999999999737e-05,-2.900000000000000017e-04,-5.999999999999999474e-05,-9.199999999999999194e-04,-2.100000000000000087e-04
2.799999999999999755e-04,5.000000000000000240e-05,-4.000000000000000327e-05,-2.999999999999999737e-05,-2.900000000000000017e-04,-5.999999999999999474e-05,-9.199999999999999194e-04,-2.100000000000000087e-04
2.799999999999999755e-04,5.000000000000000240e-05,-4.000000000000000327e-05,-2.999999999999999737e-05,-2.900000000000000017e-04,-5.999999999999999474e-05,-9.199999999999999194e-04,-2.100000000000000087e-04
2.799999999999999755e-04,5.000000000000000240e-05,-4.000000000000000327e-05,-2.999999999999999737e-05,-2.900000000000000017e-04,-5.999999999999999474e-05,-9.199999999999999194e-04,-2.100000000000000087e-04
2.799999999999999755e-04,5.000000000000000240e-05,-4.000000000000000327e-05,-2.999999999999999737e-05,-2.900000000000000017e-04,-5.999999999999999474e-05,-9.199999999999999194e-04,-2.100000000000000087e-04
2.799999999999999755e-04,5.000000000000000240e-05,-4.000000000000000327e-05,-2.999999999999999737e-05,-2.900000000000000017e-04,-5.999999999999999474e-05,-9.199999999999999194e-04,-2.100000000000000087e-04
2.799999999999999755e-04,5.000000000000000240e-05,-4.000000000000000327e-05,-2.999999999999999737e-05,-2.900000000000000017e-04,-5.999999999999999474e-05,-9.199999999999999194e-04,-2.100000000000000087e-04
3.600000000000000227e-04,1.600000000000000131e-04,5.500000000000000331e-04,8.000000000000000383e-04,1.100000000000000039e-04,-1.100000000000000039e-04,-4.700000000000000401e-04,4.599999999999999597e-04
3.600000000000000227e-04,1.600000000000000131e-04,5.500000000000000331e-04,8.000000000000000383e-04,1.100000000000000039e-04,-1.100000000000000039e-04,-4.700000000000000401e-04,4.599999999999999597e-04
-4.000000000000000327e-05,1.000000000000000048e-04,2.299999999999999799e-04,3.099999999999999999e-04,6.999999999999999387e-05,-1.000000000000000048e-04,-2.299999999999999799e-04,-1.600000000000000131e-04
-4.000000000000000327e-05,1.000000000000000048e-04,2.299999999999999799e-04,3.099999999999999999e-04,6.999999999999999387e-05,-1.000000000000000048e-04,-2.299999999999999799e-04,-1.600000000000000131e-04
-4.000000000000000327e-05,1.000000000000000048e-04,2.299999999999999799e-04,3.099999999999999999e-04,6.999999999999999387e-05,-1.000000000000000048e-04,-2.299999999999999799e-04,-1.600000000000000131e-04
-4.000000000000000327e-05,1.000000000000000048e-04,2.299999999999999799e-04,3.099999999999999999e-04,6.999999999999999387e-05,-1.000000000000000048e-04,-2.299999999999999799e-04,-1.600000000000000131e-04
-4.000000000000000327e-05,1.000000000000000048e-04,2.299999999999999799e-04,3.099999999999999999e-04,6.999999999999999387e-05,-1.000000000000000048e-04,-2.299999999999999799e-04,-1.600000000000000131e-04
-4.000000000000000327e-05,1.000000000000000048e-04,2.299999999999999799e-04,3.099999999999999999e-04,6.999999999999999387e-05,-1.000000000000000048e-04,-2.299999999999999799e-04,-1.600000000000000131e-04
-4.000000000000000327e-05,1.000000000000000048e-04,2.299999999999999799e-04,3.099999999999999999e-04,6.999999999999999387e-05,-1.000000000000000048e-04,-2.299999999999999799e-04,-1.600000000000000131e-04
-4.000000000000000327e-05,1.000000000000000048e-04,2.299999999999999799e-04,3.099999999999999999e-04,6.999999999999999387e-05,-1.000000000000000048e-04,-2.299999999999999799e-04,-1.600000000000000131e-04
-4.000000000000000327e-05,1.000000000000000048e-04,2.299999999999999799e-04,3.099999999999999999e-04,6.999999999999999387e-05,-1.000000000000000048e-04,-2.299999999999999799e-04,-1.600000000000000131e-04
-4.000000000000000327e-05,1.000000000000000048e-04,2.299999999999999799e-04,3.099999999999999999e-04,6.999999999999999387e-05,-1.000000000000000048e-04,-2.299999999999999799e-04,-1.600000000000000131e-04
-4.000000000000000327e-05,1.000000000000000048e-04,2.299999999999999799e-04,3.099999999999999999e-04,6.999999999999999387e-05,-1.000000000000000048e-04,-2.299999999999999799e-04,-1.600000000000000131e-04
-4.000000000000000327e-05,1.000000000000000048e-04,2.299999999999999799e-04,3.099999999999999999e-04,6.999999999999999387e-05,-1.000000000000000048e-04,-2.299999999999999799e-04,-1.600000000000000131e-04
-1.800000000000000113e-04,1.300000000000000157e-04,9.100000000000000016e-04,-2.999999999999999737e-04,-3.299999999999999982e-04,-2.399999999999999790e-04,-2.000000000000000164e-05,5.800000000000000034e-04
-1.800000000000000113e-04,1.300000000000000157e-04,9.100000000000000016e-04,-2.999999999999999737e-04,-3.299999999999999982e-04,-2.399999999999999790e-04,-2.000000000000000164e-05,5.800000000000000034e-04
-1.800000000000000113e-04,1.300000000000000157e-04,9.100000000000000016e-04,-2.999999999999999737e-04,-3.299999999999999982e-04,-2.399999999999999790e-04,-2.000000000000000164e-05,5.800000000000000034e-04
-1.800000000000000113e-04,1.300000000000000157e-04,9.100000000000000016e-04,-2.999999999999999737e-04,-3.299999999999999982e-04,-2.399999999999999790e-04,-2.000000000000000164e-05,5.800000000000000034e-04
-1.800000000000000113e-04,1.300000000000000157e-04,9.100000000000000016e-04,-2.999999999999999737e-04,-3.299999999999999982e-04,-2.399999999999999790e-04,-2.000000000000000164e-05,5.800000000000000034e-04
-1.800000000000000113e-04,1.300000000000000157e-04,9.100000000000000016e-04,-2.999999999999999737e-04,-3.299999999999999982e-04,-2.399999999999999790e-04,-2.000000000000000164e-05,5.800000000000000034e-04
-2.200000000000000078e-04,-2.000000000000000164e-05,0.000000000000000000e+00,-5.000000000000000104e-04,2.900000000000000017e-04,7.099999999999999107e-04,3.499999999999999964e-04,1.800000000000000113e-04
-2.200000000000000078e-04,-2.000000000000000164e-05,0.000000000000000000e+00,-5.000000000000000104e-04,2.900000000000000017e-04,7.099999999999999107e-04,3.499999999999999964e-04,1.800000000000000113e-04
-2.200000000000000078e-04,-2.000000000000000164e-05,0.000000000000000000e+00,-5.000000000000000104e-04,2.900000000000000017e-04,7.099999999999999107e-04,3.499999999999999964e-04,1.800000000000000113e-04
-2.200000000000000078e-04,-2.000000000000000164e-05,0.000000000000000000e+00,-5.000000000000000104e-04,2.900000000000000017e-04,7.099999999999999107e-04,3.499999999999999964e-04,1.800000000000000113e-04
-2.200000000000000078e-04,-2.000000000000000164e-05,0.000000000000000000e+00,-5.000000000000000104e-04,2.900000000000000017e-04,7.099999999999999107e-04,3.499999999999999964e-04,1.800000000000000113e-04
-2.200000000000000078e-04,-2.000000000000000164e-05,0.000000000000000000e+00,-5.000000000000000104e-04,2.900000000000000017e-04,7.099999999999999107e-04,3.499999999999999964e-04,1.800000000000000113e-04
-2.200000000000000078e-04,-2.000000000000000164e-05,0.000000000000000000e+00,-5.000000000000000104e-04,2.900000000000000017e-04,7.099999999999999107e-04,3.499999999999999964e-04,1.800000000000000113e-04
-2.200000000000000078e-04,-2.000000000000000164e-05,0.000000000000000000e+00,-5.000000000000000104e-04,2.900000000000000017e-04,7.099999999999999107e-04,3.499999999999999964e-04,1.800000000000000113e-04
-2.200000000000000078e-04,-2.000000000000000164e-05,0.000000000000000000e+00,-5.000000000000000104e-04,2.900000000000000017e-04,7.099999999999999107e-04,3.499999999999999964e-04,1.800000000000000113e-04
-2.200000000000000078e-04,-2.000000000000000164e-05,0.000000000000000000e+00,-5.000000000000000104e-04,2.900000000000000017e-04,7.099999999999999107e-04,3.499999999999999964e-04,1.800000000000000113e-04
-2.200000000000000078e-04,-2.000000000000000164e-05,0.000000000000000000e+00,-5.000000000000000104e-04,2.900000000000000017e-04,7.099999999999999107e-04,3.499999999999999964e-04,1.800000000000000113e-04
-2.200000000000000078e-04,-2.000000000000000164e-05,0.000000000000000000e+00,-5.000000000000000104e-04,2.900000000000000017e-04,7.099999999999999107e-04,3.499999999999999964e-04,1.800000000000000113e-04
-2.200000000000000078e-04,-2.000000000000000164e-05,0.000000000000000000e+00,-5.000000000000000104e-04,2.900000000000000017e-04,7.099999999999999107e-04,3.499999999999999964e-04,1.800000000000000113e-04
-2.200000000000000078e-04,-2.000000000000000164e-05,0.000000000000000000e+00,-5.000000000000000104e-04,2.900000000000000017e-04,7.099999999999999107e-04,3.499999999999999964e-04,1.800000000000000113e-04
1.899999999999999834e-04,5.000000000000000240e-05,1.199999999999999895e-04,-1.000000000000000082e-05,-9.000000000000000567e-05,-5.000000000000000240e-05,-4.000000000000000327e-05,-2.000000000000000096e-04
1.899999999999999834e-04,5.000000000000000240e-05,1.199999999999999895e-04,-1.000000000000000082e-05,-9.000000000000000567e-05,-5.000000000000000240e-05,-4.000000000000000327e-05,-2.000000000000000096e-04
9.000000000000000567e-05,1.000000000000000048e-04,6.300000000000000261e-04,3.299999999999999982e-04,-4.599999999999999597e-04,-5.999999999999999474e-05,6.199999999999999999e-04,-1.800000000000000113e-04
9.000000000000000567e-05,1.000000000000000048e-04,6.300000000000000261e-04,3.299999999999999982e-04,-4.599999999999999597e-04,-5.999999999999999474e-05,6.199999999999999999e-04,-1.800000000000000113e-04
9.000000000000000567e-05,1.000000000000000048e-04,6.300000000000000261e-04,3.299999999999999982e-04,-4.599999999999999597e-04,-5.999999999999999474e-05,6.199999999999999999e-04,-1.800000000000000113e-04
9.000000000000000567e-05,1.000000000000000048e-04,6.300000000000000261e-04,3.299999999999999982e-04,-4.599999999999999597e-04,-5.999999999999999474e-05,6.199999999999999999e-04,-1.800000000000000113e-04
9.000000000000000567e-05,1.000000000000000048e-04,6.300000000000000261e-04,3.299999999999999982e-04,-4.599999999999999597e-04,-5.999999999999999474e-05,6.199999999999999999e-04,-1.800000000000000113e-04
9.000000000000000567e-05,1.000000000000000048e-04,6.300000000000000261e-04,3.299999999999999982e-04,-4.599999999999999597e-04,-5.999999999999999474e-05,6.199999999999999999e-04,-1.800000000000000113e-04
9.000000000000000567e-05,1.000000000000000048e-04,6.300000000000000261e-04,3.299999999999999982e-04,-4.599999999999999597e-04,-5.999999999999999474e-05,6.199999999999999999e-04,-1.800000000000000113e-04
9.000000000000000567e-05,1.000000000000000048e-04,6.300000000000000261e-04,3.299999999999999982e-04,-4.599999999999999597e-04,-5.999999999999999474e-05,6.199999999999999999e-04,-1.800000000000000113e-04
9.000000000000000567e-05,1.000000000000000048e-04,6.300000000000000261e-04,3.299999999999999982e-04,-4.599999999999999597e-04,-5.999999999999999474e-05,6.199999999999999999e-04,-1.800000000000000113e-04
9.000000000000000567e-05,1.000000000000000048e-04,6.300000000000000261e-04,3.299999999999999982e-04,-4.599999999999999597e-04,-5.999999999999999474e-05,6.199999999999999999e-04,-1.800000000000000113e-04
9.000000000000000567e-05,1.000000000000000048e-04,6.300000000000000261e-04,3.299999999999999982e-04,-4.599999999999999597e-04,-5.999999999999999474e-05,6.199999999999999999e-04,-1.800000000000000113e-04
9.000000000000000567e-05,1.000000000000000048e-04,6.300000000000000261e-04,3.299999999999999982e-04,-4.599999999999999597e-04,-5.999999999999999474e-05,6.199999999999999999e-04,-1.800000000000000113e-04
9.000000000000000567e-05,1.000000000000000048e-04,6.300000000000000261e-04,3.299999999999999982e-04,-4.599999999999999597e-04,-5.999999999999999474e-05,6.199999999999999999e-04,-1.800000000000000113e-04
9.000000000000000567e-05,1.000000000000000048e-04,6.300000000000000261e-04,3.299999999999999982e-04,-4.599999999999999597e-04,-5.999999999999999474e-05,6.199999999999999999e-04,-1.800000000000000113e-04
9.000000000000000567e-05,1.000000000000000048e-04,6.300000000000000261e-04,3.299999999999999982e-04,-4.599999999999999597e-04,-5.999999999999999474e-05,6.199999999999999999e-04,-1.800000000000000113e-04
9.000000000000000567e-05,1.000000000000000048e-04,6.300000000000000261e-04,3.299999999999999982e-04,-4.599999999999999597e-04,-5.999999999999999474e-05,6.199999999999999999e-04,-1.800000000000000113e-04
9.000000000000000567e-05,1.000000000000000048e-04,6.300000000000000261e-04,3.299999999999999982e-04,-4.599999999999999597e-04,-5.999999999999999474e-05,6.199999999999999999e-04,-1.800000000000000113e-04
9.000000000000000567e-05,1.000000000000000048e-04,6.300000000000000261e-04,3.299999999999999982e-04,-4.599999999999999597e-04,-5.999999999999999474e-05,6.199999999999999999e-04,-1.800000000000000113e-04
9.000000000000000567e-05,1.000000000000000048e-04,6.300000000000000261e-04,3.299999999999999982e-04,-4.599999999999999597e-04,-5.999999999999999474e-05,6.199999999999999999e-04,-1.800000000000000113e-04
9.000000000000000567e-05,1.000000000000000048e-04,6.300000000000000261e-04,3.299999999999999982e-04,-4.599999999999999597e-04,-5.999999999999999474e-05,6.199999999999999999e-04,-1.800000000000000113e-04
9.000000000000000567e-05,1.000000000000000048e-04,6.300000000000000261e-04,3.299999999999999982e-04,-4.599999999999999597e-04,-5.999999999999999474e-05,6.199999999999999999e-04,-1.800000000000000113e-04
-4.000000000000000327e-05,-8.000000000000000654e-05,2.100000000000000087e-04,-3.299999999999999982e-04,8.000000000000000654e-05,2.700000000000000035e-04,8.199999999999999824e-04,-2.999999999999999737e-05
-4.000000000000000327e-05,-8.000000000000000654e-05,2.100000000000000087e-04,-3.299999999999999982e-04,8.000000000000000654e-05,2.700000000000000035e-04,8.199999999999999824e-04,-2.999999999999999737e-05
0.000000000000000000e+00,-6.999999999999999387e-05,5.699999999999999772e-04,1.149999999999999981e-03,4.700000000000000401e-04,7.799999999999999859e-04,2.100000000000000087e-04,6.999999999999999387e-05
0.000000000000000000e+00,-6.999999999999999387e-05,5.699999999999999772e-04,1.149999999999999981e-03,4.700000000000000401e-04,7.799999999999999859e-04,2.100000000000000087e-04,6.999999999999999387e-05
0.000000000000000000e+00,-6.999999999999999387e-05,5.699999999999999772e-04,1.149999999999999981e-03,4.700000000000000401e-04,7.799999999999999859e-04,2.100000000000000087e-04,6.999999999999999387e-05
0.000000000000000000e+00,-6.999999999999999387e-05,5.699999999999999772e-04,1.149999999999999981e-03,4.700000000000000401e-04,7.799999999999999859e-04,2.100000000000000087e-04,6.999999999999999387e-05
0.000000000000000000e+00,-6.999999999999999387e-05,5.699999999999999772e-04,1.149999999999999981e-03,4.700000000000000401e-04,7.799999999999999859e-04,2.100000000000000087e-04,6.999999999999999387e-05
0.000000000000000000e+00,-6.999999999999999387e-05,5.699999999999999772e-04,1.149999999999999981e-03,4.700000000000000401e-04,7.799999999999999859e-04,2.100000000000000087e-04,6.999999999999999387e-05
0.000000000000000000e+00,-6.999999999999999387e-05,5.699999999999999772e-04,1.149999999999999981e-03,4.700000000000000401e-04,7.799999999999999859e-04,2.100000000000000087e-04,6.999999999999999387e-05
0.000000000000000000e+00,-6.999999999999999387e-05,5.699999999999999772e-04,1.149999999999999981e-03,4.700000000000000401e-04,7.799999999999999859e-04,2.100000000000000087e-04,6.999999999999999387e-05
0.000000000000000000e+00,-6.999999999999999387e-05,5.699999999999999772e-04,1.149999999999999981e-03,4.700000000000000401e-04,7.799999999999999859e-04,2.100000000000000087e-04,6.999999999999999387e-05
0.000000000000000000e+00,-6.999999999999999387e-05,5.699999999999999772e-04,1.149999999999999981e-03,4.700000000000000401e-04,7.799999999999999859e-04,2.100000000000000087e-04,6.999999999999999387e-05
0.000000000000000000e+00,-6.999999999999999387e-05,5.699999999999999772e-04,1.149999999999999981e-03,4.700000000000000401e-04,7.799999999999999859e-04,2.100000000000000087e-04,6.999999999999999387e-05
6.999999999999999387e-05,-1.800000000000000113e-04,-2.900000000000000017e-04,-2.000000000000000164e-05,5.000000000000000240e-05,-4.400000000000000157e-04,-6.199999999999999999e-04,1.100000000000000039e-04
6.999999999999999387e-05,-1.800000000000000113e-04,-2.900000000000000017e-04,-2.000000000000000164e-05,5.000000000000000240e-05,-4.400000000000000157e-04,-6.199999999999999999e-04,1.100000000000000039e-04
6.999999999999999387e-05,-1.800000000000000113e-04,-2.900000000000000017e-04,-2.000000000000000164e-05,5.000000000000000240e-05,-4.400000000000000157e-04,-6.199999999999999999e-04,1.100000000000000039e-04
6.999999999999999387e-05,-1.800000000000000113e-04,-2.900000000000000017e-04,-2.000000000000000164e-05,5.000000000000000240e-05,-4.400000000000000157e-04,-6.199999999999999999e-04,1.100000000000000039e-04
6.999999999999999387e-05,-1.800000000000000113e-04,-2.900000000000000017e-04,-2.000000000000000164e-05,5.000000000000000240e-05,-4.400000000000000157e-04,-6.199999999999999999e-04,1.100000000000000039e-04
6.999999999999999387e-05,-1.800000000000000113e-04,-2.900000000000000017e-04,-2.000000000000000164e-05,5.000000000000000240e-05,-4.400000000000000157e-04,-6.199999999999999999e-04,1.100000000000000039e-04
6.999999999999999387e-05,-1.800000000000000113e-04,-2.900000000000000017e-04,-2.000000000000000164e-05,5.000000000000000240e-05,-4.400000000000000157e-04,-6.199999999999999999e-04,1.100000000000000039e-04
1.399999999999999877e-04,-1.499999999999999869e-04,-4.000000000000000192e-04,-6.300000000000000261e-04,-5.000000000000000104e-04,-7.900000000000000121e-04,1.600000000000000131e-04,1.300000000000000157e-04
1.399999999999999877e-04,-1.499999999999999869e-04,-4.000000000000000192e-04,-6.300000000000000261e-04,-5.000000000000000104e-04,-7.900000000000000121e-04,1.600000000000000131e-04,1.300000000000000157e-04
1.399999999999999877e-04,-1.499999999999999869e-04,-4.000000000000000192e-04,-6.300000000000000261e-04,-5.000000000000000104e-04,-7.900000000000000121e-04,1.600000000000000131e-04,1.300000000000000157e-04
1.399999999999999877e-04,-1.499999999999999869e-04,-4.000000000000000192e-04,-6.300000000000000261e-04,-5.000000000000000104e-04,-7.900000000000000121e-04,1.600000000000000131e-04,1.300000000000000157e-04
1.399999999999999877e-04,-1.499999999999999869e-04,-4.000000000000000192e-04,-6.300000000000000261e-04,-5.000000000000000104e-04,-7.900000000000000121e-04,1.600000000000000131e-04,1.300000000000000157e-04
1.399999999999999877e-04,-1.499999999999999869e-04,-4.000000000000000192e-04,-6.300000000000000261e-04,-5.000000000000000104e-04,-7.900000000000000121e-04,1.600000000000000131e-04,1.300000000000000157e-04
1.399999999999999877e-04,-1.499999999999999869e-04,-4.000000000000000192e-04,-6.300000000000000261e-04,-5.000000000000000104e-04,-7.900000000000000121e-04,1.600000000000000131e-04,1.300000000000000157e-04
1.399999999999999877e-04,-1.499999999999999869e-04,-4.000000000000000192e-04,-6.300000000000000261e-04,-5.000000000000000104e-04,-7.900000000000000121e-04,1.600000000000000131e-04,1.300000000000000157e-04
1.399999999999999877e-04,-1.499999999999999869e-04,-4.000000000000000192e-04,-6.300000000000000261e-04,-5.000000000000000104e-04,-7.900000000000000121e-04,1.600000000000000131e-04,1.300000000000000157e-04
1.399999999999999877e-04,-1.499999999999999869e-04,-4.000000000000000192e-04,-6.300000000000000261e-04,-5.000000000000000104e-04,-7.900000000000000121e-04,1.600000000000000131e-04,1.300000000000000157e-04
1.399999999999999877e-04,-1.499999999999999869e-04,-4.000000000000000192e-04,-6.300000000000000261e-04,-5.000000000000000104e-04,-7.900000000000000121e-04,1.600000000000000131e-04,1.300000000000000157e-04
1.399999999999999877e-04,-1.499999999999999869e-04,-4.000000000000000192e-04,-6.300000000000000261e-04,-5.000000000000000104e-04,-7.900000000000000121e-04,1.600000000000000131e-04,1.300000000000000157e-04
1.399999999999999877e-04,-1.499999999999999869e-04,-4.000000000000000192e-04,-6.300000000000000261e-04,-5.000000000000000104e-04,-7.900000000000000121e-04,1.600000000000000131e-04,1.300000000000000157e-04
1.399999999999999877e-04,-1.499999999999999869e-04,-4.000000000000000192e-04,-6.300000000000000261e-04,-5.000000000000000104e-04,-7.900000000000000121e-04,1.600000000000000131e-04,1.300000000000000157e-04
1.399999999999999877e-04,-1.499999999999999869e-04,-4.000000000000000192e-04,-6.300000000000000261e-04,-5.000000000000000104e-04,-7.900000000000000121e-04,1.600000000000000131e-04,1.300000000000000157e-04
1.399999999999999877e-04,-1.499999999999999869e-04,-4.000000000000000192e-04,-6.300000000000000261e-04,-5.000000000000000104e-04,-7.900000000000000121e-04,1.600000000000000131e-04,1.300000000000000157e-04
1.399999999999999877e-04,-1.499999999999999869e-04,-4.000000000000000192e-04,-6.300000000000000261e-04,-5.000000000000000104e-04,-7.900000000000000121e-04,1.600000000000000131e-04,1.300000000000000157e-04
1.499999999999999869e-04,-2.299999999999999799e-04,-1.049999999999999935e-03,-4.400000000000000157e-04,2.200000000000000078e-04,8.900000000000000576e-04,8.800000000000000313e-04,2.399999999999999790e-04
1.499999999999999869e-04,-2.299999999999999799e-04,-1.049999999999999935e-03,-4.400000000000000157e-04,2.200000000000000078e-04,8.900000000000000576e-04,8.800000000000000313e-04,2.399999999999999790e-04
-1.300000000000000157e-04,0.000000000000000000e+00,-1.000000000000000048e-04,2.299999999999999799e-04,-1.899999999999999834e-04,-9.300000000000000541e-04,-1.010000000000000047e-03,-2.799999999999999755e-04
-1.300000000000000157e-04,0.000000000000000000e+00,-1.000000000000000048e-04,2.299999999999999799e-04,-1.899999999999999834e-04,-9.300000000000000541e-04,-1.010000000000000047e-03,-2.799999999999999755e-04
-1.300000000000000157e-04,0.000000000000000000e+00,-1.000000000000000048e-04,2.299999999999999799e-04,-1.899999999999999834e-04,-9.300000000000000541e-04,-1.010000000000000047e-03,-2.799999999999999755e-04
-1.300000000000000157e-04,0.000000000000000000e+00,-1.000000000000000048e-04,2.299999999999999799e-04,-1.899999999999999834e-04,-9.300000000000000541e-04,-1.010000000000000047e-03,-2.799999999999999755e-04
-1.300000000000000157e-04,0.000000000000000000e+00,-1.000000000000000048e-04,2.299999999999999799e-04,-1.899999999999999834e-04,-9.300000000000000541e-04,-1.010000000000000047e-03,-2.799999999999999755e-04
-1.300000000000000157e-04,0.000000000000000000e+00,-1.000000000000000048e-04,2.299999999999999799e-04,-1.899999999999999834e-04,-9.300000000000000541e-04,-1.010000000000000047e-03,-2.799999999999999755e-04
-1.300000000000000157e-04,0.000000000000000000e+00,-1.000000000000000048e-04,2.299999999999999799e-04,-1.899999999999999834e-04,-9.300000000000000541e-04,-1.010000000000000047e-03,-2.799999999999999755e-04
-1.300000000000000157e-04,0.000000000000000000e+00,-1.000000000000000048e-04,2.299999999999999799e-04,-1.899999999999999834e-04,-9.300000000000000541e-04,-1.010000000000000047e-03,-2.799999999999999755e-04
-1.300000000000000157e-04,0.000000000000000000e+00,-1.000000000000000048e-04,2.299999999999999799e-04,-1.899999999999999834e-04,-9.300000000000000541e-04,-1.010000000000000047e-03,-2.799999999999999755e-04
-1.300000000000000157e-04,0.000000000000000000e+00,-1.000000000000000048e-04,2.299999999999999799e-04,-1.899999999999999834e-04,-9.300000000000000541e-04,-1.010000000000000047e-03,-2.799999999999999755e-04
-1.300000000000000157e-04,0.000000000000000000e+00,-1.000000000000000048e-04,2.299999999999999799e-04,-1.899999999999999834e-04,-9.300000000000000541e-04,-1.010000000000000047e-03,-2.799999999999999755e-04
-1.300000000000000157e-04,0.000000000000000000e+00,-1.000000000000000048e-04,2.299999999999999799e-04,-1.899999999999999834e-04,-9.300000000000000541e-04,-1.010000000000000047e-03,-2.799999999999999755e-04
-1.300000000000000157e-04,0.000000000000000000e+00,-1.000000000000000048e-04,2.299999999999999799e-04,-1.899999999999999834e-04,-9.300000000000000541e-04,-1.010000000000000047e-03,-2.799999999999999755e-04
-1.300000000000000157e-04,0.000000000000000000e+00,-1.000000000000000048e-04,2.299999999999999799e-04,-1.899999999999999834e-04,-9.300000000000000541e-04,-1.010000000000000047e-03,-2.799999999999999755e-04
-1.300000000000000157e-04,0.000000000000000000e+00,-1.000000000000000048e-04,2.299999999999999799e-04,-1.899999999999999834e-04,-9.300000000000000541e-04,-1.010000000000000047e-03,-2.799999999999999755e-04
-1.300000000000000157e-04,0.000000000000000000e+00,-1.000000000000000048e-04,2.299999999999999799e-04,-1.899999999999999834e-04,-9.300000000000000541e-04,-1.010000000000000047e-03,-2.799999999999999755e-04
-1.300000000000000157e-04,0.000000000000000000e+00,-1.000000000000000048e-04,2.299999999999999799e-04,-1.899999999999999834e-04,-9.300000000000000541e-04,-1.010000000000000047e-03,-2.799999999999999755e-04
-1.300000000000000157e-04,0.000000000000000000e+00,-1.000000000000000048e-04,2.299999999999999799e-04,-1.899999999999999834e-04,-9.300000000000000541e-04,-1.010000000000000047e-03,-2.799999999999999755e-04
-1.300000000000000157e-04,0.000000000000000000e+00,-1.000000000000000048e-04,2.299999999999999799e-04,-1.899999999999999834e-04,-9.300000000000000541e-04,-1.010000000000000047e-03,-2.799999999999999755e-04
-1.300000000000000157e-04,0.000000000000000000e+00,-1.000000000000000048e-04,2.299999999999999799e-04,-1.899999999999999834e-04,-9.300000000000000541e-04,-1.010000000000000047e-03,-2.799999999999999755e-04
-1.300000000000000157e-04,0.000000000000000000e+00,-1.000000000000000048e-04,2.299999999999999799e-04,-1.899999999999999834e-04,-9.300000000000000541e-04,-1.010000000000000047e-03,-2.799999999999999755e-04
2.799999999999999755e-04,-4.000000000000000327e-05,-2.799999999999999755e-04,-9.000000000000000567e-05,-2.999999999999999737e-05,4.000000000000000192e-04,1.190000000000000085e-03,2.000000000000000164e-05
2.799999999999999755e-04,-4.000000000000000327e-05,-2.799999999999999755e-04,-9.000000000000000567e-05,-2.999999999999999737e-05,4.000000000000000192e-04,1.190000000000000085e-03,2.000000000000000164e-05
2.799999999999999755e-04,-4.000000000000000327e-05,-2.799999999999999755e-04,-9.000000000000000567e-05,-2.999999999999999737e-05,4.000000000000000192e-04,1.190000000000000085e-03,2.000000000000000164e-05
2.799999999999999755e-04,-4.000000000000000327e-05,-2.799999999999999755e-04,-9.000000000000000567e-05,-2.999999999999999737e-05,4.000000000000000192e-04,1.190000000000000085e-03,2.000000000000000164e-05
2.799999999999999755e-04,-4.000000000000000327e-05,-2.799999999999999755e-04,-9.000000000000000567e-05,-2.999999999999999737e-05,4.000000000000000192e-04,1.190000000000000085e-03,2.000000000000000164e-05
2.799999999999999755e-04,-4.000000000000000327e-05,-2.799999999999999755e-04,-9.000000000000000567e-05,-2.999999999999999737e-05,4.000000000000000192e-04,1.190000000000000085e-03,2.000000000000000164e-05
2.799999999999999755e-04,-4.000000000000000327e-05,-2.799999999999999755e-04,-9.000000000000000567e-05,-2.999999999999999737e-05,4.000000000000000192e-04,1.190000000000000085e-03,2.000000000000000164e-05
2.799999999999999755e-04,-4.000000000000000327e-05,-2.799999999999999755e-04,-9.000000000000000567e-05,-2.999999999999999737e-05,4.000000000000000192e-04,1.190000000000000085e-03,2.000000000000000164e-05
2.799999999999999755e-04,-4.000000000000000327e-05,-2.799999999999999755e-04,-9.000000000000000567e-05,-2.999999999999999737e-05,4.000000000000000192e-04,1.190000000000000085e-03,2.000000000000000164e-05
2.799999999999999755e-04,-4.000000000000000327e-05,-2.799999999999999755e-04,-9.000000000000000567e-05,-2.999999999999999737e-05,4.000000000000000192e-04,1.190000000000000085e-03,2.000000000000000164e-05
2.799999999999999755e-04,-4.000000000000000327e-05,-2.799999999999999755e-04,-9.000000000000000567e-05,-2.999999999999999737e-05,4.000000000000000192e-04,1.190000000000000085e-03,2.000000000000000164e-05
-6.599999999999999964e-04,-4.599999999999999597e-04,-1.040000000000000126e-03,-1.080000000000000014e-03,1.399999999999999877e-04,2.299999999999999799e-04,-1.280000000000000105e-03,-6.700000000000000226e-04
-6.599999999999999964e-04,-4.599999999999999597e-04,-1.040000000000000126e-03,-1.080000000000000014e-03,1.399999999999999877e-04,2.299999999999999799e-04,-1.280000000000000105e-03,-6.700000000000000226e-04
-6.599999999999999964e-04,-4.599999999999999597e-04,-1.040000000000000126e-03,-1.080000000000000014e-03,1.399999999999999877e-04,2.299999999999999799e-04,-1.280000000000000105e-03,-6.700000000000000226e-04
-6.599999999999999964e-04,-4.599999999999999597e-04,-1.040000000000000126e-03,-1.080000000000000014e-03,1.399999999999999877e-04,2.299999999999999799e-04,-1.280000000000000105e-03,-6.700000000000000226e-04
-6.599999999999999964e-04,-4.599999999999999597e-04,-1.040000000000000126e-03,-1.080000000000000014e-03,1.399999999999999877e-04,2.299999999999999799e-04,-1.280000000000000105e-03,-6.700000000000000226e-04
-6.599999999999999964e-04,-4.599999999999999597e-04,-1.040000000000000126e-03,-1.080000000000000014e-03,1.399999999999999877e-04,2.299999999999999799e-04,-1.280000000000000105e-03,-6.700000000000000226e-04
-6.599999999999999964e-04,-4.599999999999999597e-04,-1.040000000000000126e-03,-1.080000000000000014e-03,1.399999999999999877e-04,2.299999999999999799e-04,-1.280000000000000105e-03,-6.700000000000000226e-04
-2.799999999999999755e-04,1.199999999999999895e-04,3.799999999999999667e-04,5.099999999999999282e-04,2.299999999999999799e-04,-1.600000000000000131e-04,5.900000000000000296e-04,-1.699999999999999851e-04
-2.799999999999999755e-04,1.199999999999999895e-04,3.799999999999999667e-04,5.099999999999999282e-04,2.299999999999999799e-04,-1.600000000000000131e-04,5.900000000000000296e-04,-1.699999999999999851e-04
-2.799999999999999755e-04,1.199999999999999895e-04,3.799999999999999667e-04,5.099999999999999282e-04,2.299999999999999799e-04,-1.600000000000000131e-04,5.900000000000000296e-04,-1.699999999999999851e-04
-2.799999999999999755e-04,1.199999999999999895e-04,3.799999999999999667e-04,5.099999999999999282e-04,2.299999999999999799e-04,-1.600000000000000131e-04,5.900000000000000296e-04,-1.699999999999999851e-04
-2.799999999999999755e-04,1.199999999999999895e-04,3.799999999999999667e-04,5.099999999999999282e-04,2.299999999999999799e-04,-1.600000000000000131e-04,5.900000000000000296e-04,-1.699999999999999851e-04
-2.799999999999999755e-04,1.199999999999999895e-04,3.799999999999999667e-04,5.099999999999999282e-04,2.299999999999999799e-04,-1.600000000000000131e-04,5.900000000000000296e-04,-1.699999999999999851e-04
-2.799999999999999755e-04,1.199999999999999895e-04,3.799999999999999667e-04,5.099999999999999282e-04,2.299999999999999799e-04,-1.600000000000000131e-04,5.900000000000000296e-04,-1.699999999999999851e-04
-2.799999999999999755e-04,1.199999999999999895e-04,3.799999999999999667e-04,5.099999999999999282e-04,2.299999999999999799e-04,-1.600000000000000131e-04,5.900000000000000296e-04,-1.699999999999999851e-04
-2.799999999999999755e-04,1.199999999999999895e-04,3.799999999999999667e-04,5.099999999999999282e-04,2.299999999999999799e-04,-1.600000000000000131e-04,5.900000000000000296e-04,-1.699999999999999851e-04
-2.799999999999999755e-04,1.199999999999999895e-04,3.799999999999999667e-04,5.099999999999999282e-04,2.299999999999999799e-04,-1.600000000000000131e-04,5.900000000000000296e-04,-1.699999999999999851e-04
-2.799999999999999755e-04,1.199999999999999895e-04,3.799999999999999667e-04,5.099999999999999282e-04,2.299999999999999799e-04,-1.600000000000000131e-04,5.900000000000000296e-04,-1.699999999999999851e-04
-2.799999999999999755e-04,1.199999999999999895e-04,3.799999999999999667e-04,5.099999999999999282e-04,2.299999999999999799e-04,-1.600000000000000131e-04,5.900000000000000296e-04,-1.699999999999999851e-04
-2.799999999999999755e-04,1.199999999999999895e-04,3.799999999999999667e-04,5.099999999999999282e-04,2.299999999999999799e-04,-1.600000000000000131e-04,5.900000000000000296e-04,-1.699999999999999851e-04
-2.799999999999999755e-04,1.199999999999999895e-04,3.799999999999999667e-04,5.099999999999999282e-04,2.299999999999999799e-04,-1.600000000000000131e-04,5.900000000000000296e-04,-1.699999999999999851e-04
-2.799999999999999755e-04,1.199999999999999895e-04,3.799999999999999667e-04,5.099999999999999282e-04,2.299999999999999799e-04,-1.600000000000000131e-04,5.900000000000000296e-04,-1.699999999999999851e-04
3.499999999999999964e-04,-2.000000000000000164e-05,5.000000000000000240e-05,9.000000000000000567e-05,-6.999999999999999387e-05,-1.199999999999999895e-04,-2.000000000000000164e-05,2.299999999999999799e-04
3.499999999999999964e-04,-2.000000000000000164e-05,5.000000000000000240e-05,9.000000000000000567e-05,-6.999999999999999387e-05,-1.199999999999999895e-04,-2.000000000000000164e-05,2.299999999999999799e-04
-1.300000000000000157e-04,-2.999999999999999737e-05,-1.399999999999999877e-04,-6.099999999999999737e-04,-1.499999999999999869e-04,-4.099999999999999912e-04,-1.280000000000000105e-03,-4.099999999999999912e-04
-1.300000000000000157e-04,-2.999999999999999737e-05,-1.399999999999999877e-04,-6.099999999999999737e-04,-1.499999999999999869e-04,-4.099999999999999912e-04,-1.280000000000000105e-03,-4.099999999999999912e-04
-1.300000000000000157e-04,-2.999999999999999737e-05,-1.399999999999999877e-04,-6.099999999999999737e-04,-1.499999999999999869e-04,-4.099999999999999912e-04,-1.280000000000000105e-03,-4.099999999999999912e-04
-1.300000000000000157e-04,-2.999999999999999737e-05,-1.399999999999999877e-04,-6.099999999999999737e-04,-1.499999999999999869e-04,-4.099999999999999912e-04,-1.280000000000000105e-03,-4.099999999999999912e-04
-1.300000000000000157e-04,-2.999999999999999737e-05,-1.399999999999999877e-04,-6.099999999999999737e-04,-1.499999999999999869e-04,-4.099999999999999912e-04,-1.280000000000000105e-03,-4.099999999999999912e-04
-1.300000000000000157e-04,-2.999999999999999737e-05,-1.399999999999999877e-04,-6.099999999999999737e-04,-1.499999999999999869e-04,-4.099999999999999912e-04,-1.280000000000000105e-03,-4.099999999999999912e-04
-1.300000000000000157e-04,-2.999999999999999737e-05,-1.399999999999999877e-04,-6.099999999999999737e-04,-1.499999999999999869e-04,-4.099999999999999912e-04,-1.280000000000000105e-03,-4.099999999999999912e-04
-1.300000000000000157e-04,-2.999999999999999737e-05,-1.399999999999999877e-04,-6.099999999999999737e-04,-1.499999999999999869e-04,-4.099999999999999912e-04,-1.280000000000000105e-03,-4.099999999999999912e-04
-1.300000000000000157e-04,-2.999999999999999737e-05,-1.399999999999999877e-04,-6.099999999999999737e-04,-1.499999999999999869e-04,-4.099999999999999912e-04,-1.280000000000000105e-03,-4.099999999999999912e-04
-1.300000000000000157e-04,-2.999999999999999737e-05,-1.399999999999999877e-04,-6.099999999999999737e-04,-1.499999999999999869e-04,-4.099999999999999912e-04,-1.280000000000000105e-03,-4.099999999999999912e-04
-1.300000000000000157e-04,-2.999999999999999737e-05,-1.399999999999999877e-04,-6.099999999999999737e-04,-1.499999999999999869e-04,-4.099999999999999912e-04,-1.280000000000000105e-03,-4.099999999999999912e-04
-1.300000000000000157e-04,-2.999999999999999737e-05,-1.399999999999999877e-04,-6.099999999999999737e-04,-1.499999999999999869e-04,-4.099999999999999912e-04,-1.280000000000000105e-03,-4.099999999999999912e-04
-1.300000000000000157e-04,-2.999999999999999737e-05,-1.399999999999999877e-04,-6.099999999999999737e-04,-1.499999999999999869e-04,-4.099999999999999912e-04,-1.280000000000000105e-03,-4.099999999999999912e-04
-1.300000000000000157e-04,-2.999999999999999737e-05,-1.399999999999999877e-04,-6.099999999999999737e-04,-1.499999999999999869e-04,-4.099999999999999912e-04,-1.280000000000000105e-03,-4.099999999999999912e-04
-1.300000000000000157e-04,-2.999999999999999737e-05,-1.399999999999999877e-04,-6.099999999999999737e-04,-1.499999999999999869e-04,-4.099999999999999912e-04,-1.280000000000000105e-03,-4.099999999999999912e-04
-1.300000000000000157e-04,-2.999999999999999737e-05,-1.399999999999999877e-04,-6.099999999999999737e-04,-1.499999999999999869e-04,-4.099999999999999912e-04,-1.280000000000000105e-03,-4.099999999999999912e-04
-1.300000000000000157e-04,-2.999999999999999737e-05,-1.399999999999999877e-04,-6.099999999999999737e-04,-1.499999999999999869e-04,-4.099999999999999912e-04,-1.280000000000000105e-03,-4.099999999999999912e-04
-1.300000000000000157e-04,-2.999999999999999737e-05,-1.399999999999999877e-04,-6.099999999999999737e-04,-1.499999999999999869e-04,-4.099999999999999912e-04,-1.280000000000000105e-03,-4.099999999999999912e-04
-1.300000000000000157e-04,-2.999999999999999737e-05,-1.399999999999999877e-04,-6.099999999999999737e-04,-1.499999999999999869e-04,-4.099999999999999912e-04,-1.280000000000000105e-03,-4.099999999999999912e-04
-1.300000000000000157e-04,-2.999999999999999737e-05,-1.399999999999999877e-04,-6.099999999999999737e-04,-1.499999999999999869e-04,-4.099999999999999912e-04,-1.280000000000000105e-03,-4.099999999999999912e-04
2.500000000000000052e-04,1.600000000000000131e-04,2.000000000000000096e-04,4.700000000000000401e-04,1.499999999999999869e-04,5.699999999999999772e-04,7.200000000000000453e-04,2.700000000000000035e-04
-1.699999999999999851e-04,1.499999999999999869e-04,7.099999999999999107e-04,5.099999999999999282e-04,-4.499999999999999877e-04,-5.599999999999999509e-04,-6.700000000000000226e-04,4.000000000000000327e-05
-1.699999999999999851e-04,1.499999999999999869e-04,7.099999999999999107e-04,5.099999999999999282e-04,-4.499999999999999877e-04,-5.599999999999999509e-04,-6.700000000000000226e-04,4.000000000000000327e-05
-1.699999999999999851e-04,1.499999999999999869e-04,7.099999999999999107e-04,5.099999999999999282e-04,-4.499999999999999877e-04,-5.599999999999999509e-04,-6.700000000000000226e-04,4.000000000000000327e-05
-1.699999999999999851e-04,1.499999999999999869e-04,7.099999999999999107e-04,5.099999999999999282e-04,-4.499999999999999877e-04,-5.599999999999999509e-04,-6.700000000000000226e-04,4.000000000000000327e-05
-1.699999999999999851e-04,1.499999999999999869e-04,7.099999999999999107e-04,5.099999999999999282e-04,-4.499999999999999877e-04,-5.599999999999999509e-04,-6.700000000000000226e-04,4.000000000000000327e-05
-1.699999999999999851e-04,1.499999999999999869e-04,7.099999999999999107e-04,5.099999999999999282e-04,-4.499999999999999877e-04,-5.599999999999999509e-04,-6.700000000000000226e-04,4.000000000000000327e-05
-1.699999999999999851e-04,1.499999999999999869e-04,7.099999999999999107e-04,5.099999999999999282e-04,-4.499999999999999877e-04,-5.599999999999999509e-04,-6.700000000000000226e-04,4.000000000000000327e-05
-1.699999999999999851e-04,1.499999999999999869e-04,7.099999999999999107e-04,5.099999999999999282e-04,-4.499999999999999877e-04,-5.599999999999999509e-04,-6.700000000000000226e-04,4.000000000000000327e-05
-1.699999999999999851e-04,1.499999999999999869e-04,7.099999999999999107e-04,5.099999999999999282e-04,-4.499999999999999877e-04,-5.599999999999999509e-04,-6.700000000000000226e-04,4.000000000000000327e-05
-1.699999999999999851e-04,1.499999999999999869e-04,7.099999999999999107e-04,5.099999999999999282e-04,-4.499999999999999877e-04,-5.599999999999999509e-04,-6.700000000000000226e-04,4.000000000000000327e-05
-1.699999999999999851e-04,1.499999999999999869e-04,7.099999999999999107e-04,5.099999999999999282e-04,-4.499999999999999877e-04,-5.599999999999999509e-04,-6.700000000000000226e-04,4.000000000000000327e-05
-1.699999999999999851e-04,1.499999999999999869e-04,7.099999999999999107e-04,5.099999999999999282e-04,-4.499999999999999877e-04,-5.599999999999999509e-04,-6.700000000000000226e-04,4.000000000000000327e-05
-1.699999999999999851e-04,1.499999999999999869e-04,7.099999999999999107e-04,5.099999999999999282e-04,-4.499999999999999877e-04,-5.599999999999999509e-04,-6.700000000000000226e-04,4.000000000000000327e-05
9.000000000000000567e-05,0.000000000000000000e+00,-2.700000000000000035e-04,-2.100000000000000087e-04,3.699999999999999947e-04,-3.799999999999999667e-04,-1.240000000000000000e-03,-5.500000000000000331e-04
9.000000000000000567e-05,0.000000000000000000e+00,-2.700000000000000035e-04,-2.100000000000000087e-04,3.699999999999999947e-04,-3.799999999999999667e-04,-1.240000000000000000e-03,-5.500000000000000331e-04
9.000000000000000567e-05,0.000000000000000000e+00,-2.700000000000000035e-04,-2.100000000000000087e-04,3.699999999999999947e-04,-3.799999999999999667e-04,-1.240000000000000000e-03,-5.500000000000000331e-04
9.000000000000000567e-05,0.000000000000000000e+00,-2.700000000000000035e-04,-2.100000000000000087e-04,3.699999999999999947e-04,-3.799999999999999667e-04,-1.240000000000000000e-03,-5.500000000000000331e-04
9.000000000000000567e-05,0.000000000000000000e+00,-2.700000000000000035e-04,-2.100000000000000087e-04,3.699999999999999947e-04,-3.799999999999999667e-04,-1.240000000000000000e-03,-5.500000000000000331e-04
9.000000000000000567e-05,0.000000000000000000e+00,-2.700000000000000035e-04,-2.100000000000000087e-04,3.699999999999999947e-04,-3.799999999999999667e-04,-1.240000000000000000e-03,-5.500000000000000331e-04
9.000000000000000567e-05,0.000000000000000000e+00,-2.700000000000000035e-04,-2.100000000000000087e-04,3.699999999999999947e-04,-3.799999999999999667e-04,-1.240000000000000000e-03,-5.500000000000000331e-04
1.000000000000000048e-04,-1.399999999999999877e-04,-5.900000000000000296e-04,-2.600000000000000314e-04,-1.600000000000000131e-04,-4.799999999999999580e-04,-2.299999999999999799e-04,-2.100000000000000087e-04
1.000000000000000048e-04,-1.399999999999999877e-04,-5.900000000000000296e-04,-2.600000000000000314e-04,-1.600000000000000131e-04,-4.799999999999999580e-04,-2.299999999999999799e-04,-2.100000000000000087e-04
1.000000000000000048e-04,-1.399999999999999877e-04,-5.900000000000000296e-04,-2.600000000000000314e-04,-1.600000000000000131e-04,-4.799999999999999580e-04,-2.299999999999999799e-04,-2.100000000000000087e-04
1.000000000000000048e-04,-1.399999999999999877e-04,-5.900000000000000296e-04,-2.600000000000000314e-04,-1.600000000000000131e-04,-4.799999999999999580e-04,-2.299999999999999799e-04,-2.100000000000000087e-04
1.000000000000000048e-04,-1.399999999999999877e-04,-5.900000000000000296e-04,-2.600000000000000314e-04,-1.600000000000000131e-04,-4.799999999999999580e-04,-2.299999999999999799e-04,-2.100000000000000087e-04
1.000000000000000048e-04,-1.399999999999999877e-04,-5.900000000000000296e-04,-2.600000000000000314e-04,-1.600000000000000131e-04,-4.799999999999999580e-04,-2.299999999999999799e-04,-2.100000000000000087e-04
1.000000000000000048e-04,-1.399999999999999877e-04,-5.900000000000000296e-04,-2.600000000000000314e-04,-1.600000000000000131e-04,-4.799999999999999580e-04,-2.299999999999999799e-04,-2.100000000000000087e-04
1.000000000000000048e-04,-1.399999999999999877e-04,-5.900000000000000296e-04,-2.600000000000000314e-04,-1.600000000000000131e-04,-4.799999999999999580e-04,-2.299999999999999799e-04,-2.100000000000000087e-04
1.000000000000000048e-04,-1.399999999999999877e-04,-5.900000000000000296e-04,-2.600000000000000314e-04,-1.600000000000000131e-04,-4.799999999999999580e-04,-2.299999999999999799e-04,-2.100000000000000087e-04
1.000000000000000048e-04,-1.399999999999999877e-04,-5.900000000000000296e-04,-2.600000000000000314e-04,-1.600000000000000131e-04,-4.799999999999999580e-04,-2.299999999999999799e-04,-2.100000000000000087e-04
1.000000000000000048e-04,-1.399999999999999877e-04,-5.900000000000000296e-04,-2.600000000000000314e-04,-1.600000000000000131e-04,-4.799999999999999580e-04,-2.299999999999999799e-04,-2.100000000000000087e-04
1.000000000000000048e-04,-1.399999999999999877e-04,-5.900000000000000296e-04,-2.600000000000000314e-04,-1.600000000000000131e-04,-4.799999999999999580e-04,-2.299999999999999799e-04,-2.100000000000000087e-04
1.000000000000000048e-04,-1.399999999999999877e-04,-5.900000000000000296e-04,-2.600000000000000314e-04,-1.600000000000000131e-04,-4.799999999999999580e-04,-2.299999999999999799e-04,-2.100000000000000087e-04
1.000000000000000048e-04,-1.399999999999999877e-04,-5.900000000000000296e-04,-2.600000000000000314e-04,-1.600000000000000131e-04,-4.799999999999999580e-04,-2.299999999999999799e-04,-2.100000000000000087e-04
1.000000000000000048e-04,-1.399999999999999877e-04,-5.900000000000000296e-04,-2.600000000000000314e-04,-1.600000000000000131e-04,-4.799999999999999580e-04,-2.299999999999999799e-04,-2.100000000000000087e-04
-5.200000000000000629e-04,1.000000000000000082e-05,5.400000000000000069e-04,6.400000000000000524e-04,-2.200000000000000078e-04,-9.000000000000000567e-05,1.199999999999999895e-04,-2.000000000000000164e-05
-5.200000000000000629e-04,1.000000000000000082e-05,5.400000000000000069e-04,6.400000000000000524e-04,-2.200000000000000078e-04,-9.000000000000000567e-05,1.199999999999999895e-04,-2.000000000000000164e-05
-5.999999999999999474e-05,1.000000000000000082e-05,-6.999999999999999387e-05,-2.000000000000000164e-05,2.600000000000000314e-04,1.100000000000000039e-04,4.400000000000000157e-04,1.600000000000000131e-04
-5.999999999999999474e-05,1.000000000000000082e-05,-6.999999999999999387e-05,-2.000000000000000164e-05,2.600000000000000314e-04,1.100000000000000039e-04,4.400000000000000157e-04,1.600000000000000131e-04
-5.999999999999999474e-05,1.000000000000000082e-05,-6.999999999999999387e-05,-2.000000000000000164e-05,2.600000000000000314e-04,1.100000000000000039e-04,4.400000000000000157e-04,1.600000000000000131e-04
-5.999999999999999474e-05,1.000000000000000082e-05,-6.999999999999999387e-05,-2.000000000000000164e-05,2.600000000000000314e-04,1.100000000000000039e-04,4.400000000000000157e-04,1.600000000000000131e-04
-5.999999999999999474e-05,1.000000000000000082e-05,-6.999999999999999387e-05,-2.000000000000000164e-05,2.600000000000000314e-04,1.100000000000000039e-04,4.400000000000000157e-04,1.600000000000000131e-04
-5.999999999999999474e-05,1.000000000000000082e-05,-6.999999999999999387e-05,-2.000000000000000164e-05,2.600000000000000314e-04,1.100000000000000039e-04,4.400000000000000157e-04,1.600000000000000131e-04
-5.999999999999999474e-05,1.000000000000000082e-05,-6.999999999999999387e-05,-2.000000000000000164e-05,2.600000000000000314e-04,1.100000000000000039e-04,4.400000000000000157e-04,1.600000000000000131e-04
-5.999999999999999474e-05,1.000000000000000082e-05,-6.999999999999999387e-05,-2.000000000000000164e-05,2.600000000000000314e-04,1.100000000000000039e-04,4.400000000000000157e-04,1.600000000000000131e-04
-5.999999999999999474e-05,1.000000000000000082e-05,-6.999999999999999387e-05,-2.000000000000000164e-05,2.600000000000000314e-04,1.100000000000000039e-04,4.400000000000000157e-04,1.600000000000000131e-04
-5.999999999999999474e-05,1.000000000000000082e-05,-6.999999999999999387e-05,-2.000000000000000164e-05,2.600000000000000314e-04,1.100000000000000039e-04,4.400000000000000157e-04,1.600000000000000131e-04
-5.999999999999999474e-05,1.000000000000000082e-05,-6.999999999999999387e-05,-2.000000000000000164e-05,2.600000000000000314e-04,1.100000000000000039e-04,4.400000000000000157e-04,1.600000000000000131e-04
-5.999999999999999474e-05,1.000000000000000082e-05,-6.999999999999999387e-05,-2.000000000000000164e-05,2.600000000000000314e-04,1.100000000000000039e-04,4.400000000000000157e-04,1.600000000000000131e-04
-5.999999999999999474e-05,1.000000000000000082e-05,-6.999999999999999387e-05,-2.000000000000000164e-05,2.600000000000000314e-04,1.100000000000000039e-04,4.400000000000000157e-04,1.600000000000000131e-04
-5.999999999999999474e-05,1.000000000000000082e-05,-6.999999999999999387e-05,-2.000000000000000164e-05,2.600000000000000314e-04,1.100000000000000039e-04,4.400000000000000157e-04,1.600000000000000131e-04
-5.999999999999999474e-05,1.000000000000000082e-05,-6.999999999999999387e-05,-2.000000000000000164e-05,2.600000000000000314e-04,1.100000000000000039e-04,4.400000000000000157e-04,1.600000000000000131e-04
-5.999999999999999474e-05,1.000000000000000082e-05,-6.999999999999999387e-05,-2.000000000000000164e-05,2.600000000000000314e-04,1.100000000000000039e-04,4.400000000000000157e-04,1.600000000000000131e-04
-5.999999999999999474e-05,1.000000000000000082e-05,-6.999999999999999387e-05,-2.000000000000000164e-05,2.600000000000000314e-04,1.100000000000000039e-04,4.400000000000000157e-04,1.600000000000000131e-04
-5.999999999999999474e-05,1.000000000000000082e-05,-6.999999999999999387e-05,-2.000000000000000164e-05,2.600000000000000314e-04,1.100000000000000039e-04,4.400000000000000157e-04,1.600000000000000131e-04
-5.999999999999999474e-05,1.000000000000000082e-05,-6.999999999999999387e-05,-2.000000000000000164e-05,2.600000000000000314e-04,1.100000000000000039e-04,4.400000000000000157e-04,1.600000000000000131e-04
3.099999999999999999e-04,-2.200000000000000078e-04,-1.600000000000000131e-04,-1.699999999999999851e-04,9.000000000000000567e-05,-4.400000000000000157e-04,6.599999999999999964e-04,4.400000000000000157e-04
-3.899999999999999929e-04,1.000000000000000082e-05,5.200000000000000629e-04,7.599999999999999334e-04,5.900000000000000296e-04,-3.799999999999999667e-04,4.000000000000000192e-04,2.200000000000000078e-04
-8.000000000000000654e-05,2.000000000000000164e-05,4.000000000000000327e-05,-9.599999999999999159e-04,-1.300000000000000157e-04,4.400000000000000157e-04,3.499999999999999964e-04,-6.999999999999999387e-05
-8.000000000000000654e-05,2.000000000000000164e-05,4.000000000000000327e-05,-9.599999999999999159e-04,-1.300000000000000157e-04,4.400000000000000157e-04,3.499999999999999964e-04,-6.999999999999999387e-05
-8.000000000000000654e-05,2.000000000000000164e-05,4.000000000000000327e-05,-9.599999999999999159e-04,-1.300000000000000157e-04,4.400000000000000157e-04,3.499999999999999964e-04,-6.999999999999999387e-05
-8.000000000000000654e-05,2.000000000000000164e-05,4.000000000000000327e-05,-9.599999999999999159e-04,-1.300000000000000157e-04,4.400000000000000157e-04,3.499999999999999964e-04,-6.999999999999999387e-05
-8.000000000000000654e-05,2.000000000000000164e-05,4.000000000000000327e-05,-9.599999999999999159e-04,-1.300000000000000157e-04,4.400000000000000157e-04,3.499999999999999964e-04,-6.999999999999999387e-05
-8.000000000000000654e-05,2.000000000000000164e-05,4.000000000000000327e-05,-9.599999999999999159e-04,-1.300000000000000157e-04,4.400000000000000157e-04,3.499999999999999964e-04,-6.999999999999999387e-05
-8.000000000000000654e-05,2.000000000000000164e-05,4.000000000000000327e-05,-9.599999999999999159e-04,-1.300000000000000157e-04,4.400000000000000157e-04,3.499999999999999964e-04,-6.999999999999999387e-05
-8.000000000000000654e-05,2.000000000000000164e-05,4.000000000000000327e-05,-9.599999999999999159e-04,-1.300000000000000157e-04,4.400000000000000157e-04,3.499999999999999964e-04,-6.999999999999999387e-05
-8.000000000000000654e-05,2.000000000000000164e-05,4.000000000000000327e-05,-9.599999999999999159e-04,-1.300000000000000157e-04,4.400000000000000157e-04,3.499999999999999964e-04,-6.999999999999999387e-05
-8.000000000000000654e-05,2.000000000000000164e-05,4.000000000000000327e-05,-9.599999999999999159e-04,-1.300000000000000157e-04,4.400000000000000157e-04,3.499999999999999964e-04,-6.999999999999999387e-05
-8.000000000000000654e-05,2.000000000000000164e-05,4.000000000000000327e-05,-9.599999999999999159e-04,-1.300000000000000157e-04,4.400000000000000157e-04,3.499999999999999964e-04,-6.999999999999999387e-05
2.299999999999999799e-04,1.300000000000000157e-04,3.499999999999999964e-04,4.599999999999999597e-04,-1.699999999999999851e-04,-1.300000000000000157e-04,-5.699999999999999772e-04,8.000000000000000654e-05
2.299999999999999799e-04,1.300000000000000157e-04,3.499999999999999964e-04,4.599999999999999597e-04,-1.699999999999999851e-04,-1.300000000000000157e-04,-5.699999999999999772e-04,8.000000000000000654e-05
2.299999999999999799e-04,1.300000000000000157e-04,3.499999999999999964e-04,4.599999999999999597e-04,-1.699999999999999851e-04,-1.300000000000000157e-04,-5.699999999999999772e-04,8.000000000000000654e-05
2.299999999999999799e-04,1.300000000000000157e-04,3.499999999999999964e-04,4.599999999999999597e-04,-1.699999999999999851e-04,-1.300000000000000157e-04,-5.699999999999999772e-04,8.000000000000000654e-05
2.299999999999999799e-04,1.300000000000000157e-04,3.499999999999999964e-04,4.599999999999999597e-04,-1.699999999999999851e-04,-1.300000000000000157e-04,-5.699999999999999772e-04,8.000000000000000654e-05
2.299999999999999799e-04,1.300000000000000157e-04,3.499999999999999964e-04,4.599999999999999597e-04,-1.699999999999999851e-04,-1.300000000000000157e-04,-5.699999999999999772e-04,8.000000000000000654e-05
2.299999999999999799e-04,1.300000000000000157e-04,3.499999999999999964e-04,4.599999999999999597e-04,-1.699999999999999851e-04,-1.300000000000000157e-04,-5.699999999999999772e-04,8.000000000000000654e-05
-1.600000000000000131e-04,2.000000000000000164e-05,2.299999999999999799e-04,-2.500000000000000052e-04,-1.499999999999999869e-04,1.000000000000000048e-04,-3.299999999999999982e-04,2.999999999999999737e-05
-1.600000000000000131e-04,2.000000000000000164e-05,2.299999999999999799e-04,-2.500000000000000052e-04,-1.499999999999999869e-04,1.000000000000000048e-04,-3.299999999999999982e-04,2.999999999999999737e-05
