3.867200000000000000e+04,-5.000000000000000240e-05,-4.000000000000000327e-05,-5.000000000000000240e-05,0.000000000000000000e+00,-1.000000000000000048e-04,-4.000000000000000327e-05,-4.000000000000000327e-05,-2.000000000000000164e-05,1.000000000000000000e+00,1.300000000000000000e+01
3.867300000000000000e+04,-5.000000000000000240e-05,-4.000000000000000327e-05,-5.000000000000000240e-05,0.000000000000000000e+00,-1.000000000000000048e-04,-4.000000000000000327e-05,-4.000000000000000327e-05,-2.000000000000000164e-05,1.000000000000000000e+00,1.300000000000000000e+01
3.867400000000000000e+04,-5.000000000000000240e-05,-4.000000000000000327e-05,-5.000000000000000240e-05,0.000000000000000000e+00,-1.000000000000000048e-04,-4.000000000000000327e-05,-4.000000000000000327e-05,-2.000000000000000164e-05,1.000000000000000000e+00,1.300000000000000000e+01
3.867500000000000000e+04,-5.000000000000000240e-05,-4.000000000000000327e-05,-5.000000000000000240e-05,0.000000000000000000e+00,-1.000000000000000048e-04,-4.000000000000000327e-05,-4.000000000000000327e-05,-2.000000000000000164e-05,1.000000000000000000e+00,1.300000000000000000e+01
3.867600000000000000e+04,-5.000000000000000240e-05,-4.000000000000000327e-05,-5.000000000000000240e-05,0.000000000000000000e+00,-1.000000000000000048e-04,-4.000000000000000327e-05,-4.000000000000000327e-05,-2.000000000000000164e-05,1.000000000000000000e+00,1.300000000000000000e+01
3.867700000000000000e+04,-5.000000000000000240e-05,-4.000000000000000327e-05,-5.000000000000000240e-05,0.000000000000000000e+00,-1.000000000000000048e-04,-4.000000000000000327e-05,-4.000000000000000327e-05,-2.000000000000000164e-05,1.000000000000000000e+00,1.300000000000000000e+01
3.867800000000000000e+04,-5.000000000000000240e-05,-4.000000000000000327e-05,-5.000000000000000240e-05,0.000000000000000000e+00,-1.000000000000000048e-04,-4.000000000000000327e-05,-4.000000000000000327e-05,-2.000000000000000164e-05,1.000000000000000000e+00,1.300000000000000000e+01
3.867900000000000000e+04,-5.000000000000000240e-05,-4.000000000000000327e-05,-5.000000000000000240e-05,0.000000000000000000e+00,-1.000000000000000048e-04,-4.000000000000000327e-05,-4.000000000000000327e-05,-2.000000000000000164e-05,1.000000000000000000e+00,1.300000000000000000e+01
3.868000000000000000e+04,-5.000000000000000240e-05,-4.000000000000000327e-05,-5.000000000000000240e-05,0.000000000000000000e+00,-1.000000000000000048e-04,-4.000000000000000327e-05,-4.000000000000000327e-05,-2.000000000000000164e-05,1.000000000000000000e+00,1.300000000000000000e+01
3.868100000000000000e+04,-5.000000000000000240e-05,-4.000000000000000327e-05,-5.000000000000000240e-05,0.000000000000000000e+00,-1.000000000000000048e-04,-4.000000000000000327e-05,-4.000000000000000327e-05,-2.000000000000000164e-05,1.000000000000000000e+00,1.300000000000000000e+01
3.868200000000000000e+04,-5.000000000000000240e-05,-4.000000000000000327e-05,-5.000000000000000240e-05,0.000000000000000000e+00,-1.000000000000000048e-04,-4.000000000000000327e-05,-4.000000000000000327e-05,-2.000000000000000164e-05,1.000000000000000000e+00,1.300000000000000000e+01
3.868300000000000000e+04,-2.999999999999999737e-05,-2.000000000000000164e-05,-4.000000000000000327e-05,6.999999999999999387e-05,5.000000000000000240e-05,1.000000000000000082e-05,-2.000000000000000164e-05,-1.000000000000000082e-05,1.000000000000000000e+00,1.300000000000000000e+01
3.868400000000000000e+04,-2.999999999999999737e-05,-2.000000000000000164e-05,-4.000000000000000327e-05,6.999999999999999387e-05,5.000000000000000240e-05,1.000000000000000082e-05,-2.000000000000000164e-05,-1.000000000000000082e-05,1.000000000000000000e+00,1.300000000000000000e+01
3.868500000000000000e+04,-2.999999999999999737e-05,-2.000000000000000164e-05,-4.000000000000000327e-05,6.999999999999999387e-05,5.000000000000000240e-05,1.000000000000000082e-05,-2.000000000000000164e-05,-1.000000000000000082e-05,1.000000000000000000e+00,1.300000000000000000e+01
3.868600000000000000e+04,-2.999999999999999737e-05,-2.000000000000000164e-05,-4.000000000000000327e-05,6.999999999999999387e-05,5.000000000000000240e-05,1.000000000000000082e-05,-2.000000000000000164e-05,-1.000000000000000082e-05,1.000000000000000000e+00,1.300000000000000000e+01
3.868800000000000000e+04,-2.999999999999999737e-05,-2.000000000000000164e-05,-4.000000000000000327e-05,6.999999999999999387e-05,5.000000000000000240e-05,1.000000000000000082e-05,-2.000000000000000164e-05,-1.000000000000000082e-05,1.000000000000000000e+00,1.300000000000000000e+01
3.868900000000000000e+04,-2.999999999999999737e-05,-2.000000000000000164e-05,-4.000000000000000327e-05,6.999999999999999387e-05,5.000000000000000240e-05,1.000000000000000082e-05,-2.000000000000000164e-05,-1.000000000000000082e-05,1.000000000000000000e+00,1.300000000000000000e+01
3.869000000000000000e+04,-2.999999999999999737e-05,-2.000000000000000164e-05,-4.000000000000000327e-05,6.999999999999999387e-05,5.000000000000000240e-05,1.000000000000000082e-05,-2.000000000000000164e-05,-1.000000000000000082e-05,1.000000000000000000e+00,1.300000000000000000e+01
3.869100000000000000e+04,-2.999999999999999737e-05,-2.000000000000000164e-05,-4.000000000000000327e-05,6.999999999999999387e-05,5.000000000000000240e-05,1.000000000000000082e-05,-2.000000000000000164e-05,-1.000000000000000082e-05,1.000000000000000000e+00,1.300000000000000000e+01
3.869200000000000000e+04,0.000000000000000000e+00,0.000000000000000000e+00,1.000000000000000082e-05,1.000000000000000082e-05,5.000000000000000240e-05,1.000000000000000082e-05,0.000000000000000000e+00,-1.000000000000000082e-05,1.000000000000000000e+00,1.300000000000000000e+01
3.869300000000000000e+04,0.000000000000000000e+00,0.000000000000000000e+00,1.000000000000000082e-05,1.000000000000000082e-05,5.000000000000000240e-05,1.000000000000000082e-05,0.000000000000000000e+00,-1.000000000000000082e-05,1.000000000000000000e+00,1.300000000000000000e+01
3.869400000000000000e+04,0.000000000000000000e+00,0.000000000000000000e+00,1.000000000000000082e-05,1.000000000000000082e-05,5.000000000000000240e-05,1.000000000000000082e-05,0.000000000000000000e+00,-1.000000000000000082e-05,1.000000000000000000e+00,1.300000000000000000e+01
3.869500000000000000e+04,0.000000000000000000e+00,0.000000000000000000e+00,1.000000000000000082e-05,1.000000000000000082e-05,5.000000000000000240e-05,1.000000000000000082e-05,0.000000000000000000e+00,-1.000000000000000082e-05,1.000000000000000000e+00,1.300000000000000000e+01
3.869600000000000000e+04,0.000000000000000000e+00,0.000000000000000000e+00,1.000000000000000082e-05,1.000000000000000082e-05,5.000000000000000240e-05,1.000000000000000082e-05,0.000000000000000000e+00,-1.000000000000000082e-05,1.000000000000000000e+00,1.300000000000000000e+01
3.869700000000000000e+04,0.000000000000000000e+00,0.000000000000000000e+00,1.000000000000000082e-05,1.000000000000000082e-05,5.000000000000000240e-05,1.000000000000000082e-05,0.000000000000000000e+00,-1.000000000000000082e-05,1.000000000000000000e+00,1.300000000000000000e+01
3.869800000000000000e+04,0.000000000000000000e+00,0.000000000000000000e+00,1.000000000000000082e-05,1.000000000000000082e-05,5.000000000000000240e-05,1.000000000000000082e-05,0.000000000000000000e+00,-1.000000000000000082e-05,1.000000000000000000e+00,1.300000000000000000e+01
3.869900000000000000e+04,0.000000000000000000e+00,0.000000000000000000e+00,1.000000000000000082e-05,1.000000000000000082e-05,5.000000000000000240e-05,1.000000000000000082e-05,0.000000000000000000e+00,-1.000000000000000082e-05,1.000000000000000000e+00,1.300000000000000000e+01
3.870000000000000000e+04,0.000000000000000000e+00,0.000000000000000000e+00,1.000000000000000082e-05,1.000000000000000082e-05,5.000000000000000240e-05,1.000000000000000082e-05,0.000000000000000000e+00,-1.000000000000000082e-05,1.000000000000000000e+00,1.300000000000000000e+01
3.870100000000000000e+04,0.000000000000000000e+00,0.000000000000000000e+00,1.000000000000000082e-05,1.000000000000000082e-05,5.000000000000000240e-05,1.000000000000000082e-05,0.000000000000000000e+00,-1.000000000000000082e-05,1.000000000000000000e+00,1.300000000000000000e+01
3.870200000000000000e+04,0.000000000000000000e+00,0.000000000000000000e+00,1.000000000000000082e-05,1.000000000000000082e-05,5.000000000000000240e-05,1.000000000000000082e-05,0.000000000000000000e+00,-1.000000000000000082e-05,1.000000000000000000e+00,1.300000000000000000e+01
3.870300000000000000e+04,0.000000000000000000e+00,0.000000000000000000e+00,1.000000000000000082e-05,1.000000000000000082e-05,5.000000000000000240e-05,1.000000000000000082e-05,0.000000000000000000e+00,-1.000000000000000082e-05,1.000000000000000000e+00,1.300000000000000000e+01
3.870400000000000000e+04,0.000000000000000000e+00,0.000000000000000000e+00,1.000000000000000082e-05,1.000000000000000082e-05,5.000000000000000240e-05,1.000000000000000082e-05,0.000000000000000000e+00,-1.000000000000000082e-05,1.000000000000000000e+00,1.300000000000000000e+01
3.870500000000000000e+04,0.000000000000000000e+00,0.000000000000000000e+00,1.000000000000000082e-05,1.000000000000000082e-05,5.000000000000000240e-05,1.000000000000000082e-05,0.000000000000000000e+00,-1.000000000000000082e-05,1.000000000000000000e+00,1.300000000000000000e+01
3.870600000000000000e+04,0.000000000000000000e+00,0.000000000000000000e+00,1.000000000000000082e-05,1.000000000000000082e-05,5.000000000000000240e-05,1.000000000000000082e-05,0.000000000000000000e+00,-1.000000000000000082e-05,1.000000000000000000e+00,1.300000000000000000e+01
3.870700000000000000e+04,-2.000000000000000164e-05,-2.999999999999999737e-05,-5.000000000000000240e-05,-8.000000000000000654e-05,-1.300000000000000157e-04,-2.999999999999999737e-05,-1.000000000000000082e-05,-4.000000000000000327e-05,1.000000000000000000e+00,1.300000000000000000e+01
3.870800000000000000e+04,-1.000000000000000082e-05,-2.999999999999999737e-05,-4.000000000000000327e-05,-1.100000000000000039e-04,-2.100000000000000087e-04,-4.000000000000000327e-05,-1.000000000000000082e-05,-1.000000000000000082e-05,1.000000000000000000e+00,1.300000000000000000e+01
3.870900000000000000e+04,-1.000000000000000082e-05,-4.000000000000000327e-05,-1.100000000000000039e-04,-6.999999999999999387e-05,1.300000000000000157e-04,5.000000000000000240e-05,0.000000000000000000e+00,-1.000000000000000082e-05,1.000000000000000000e+00,1.300000000000000000e+01
3.871000000000000000e+04,-1.000000000000000082e-05,-4.000000000000000327e-05,-1.100000000000000039e-04,-6.999999999999999387e-05,1.300000000000000157e-04,5.000000000000000240e-05,0.000000000000000000e+00,-1.000000000000000082e-05,1.000000000000000000e+00,1.300000000000000000e+01
3.871100000000000000e+04,-1.000000000000000082e-05,-4.000000000000000327e-05,-1.100000000000000039e-04,-6.999999999999999387e-05,1.300000000000000157e-04,5.000000000000000240e-05,0.000000000000000000e+00,-1.000000000000000082e-05,1.000000000000000000e+00,1.300000000000000000e+01
3.871200000000000000e+04,-1.000000000000000082e-05,-4.000000000000000327e-05,-1.100000000000000039e-04,-6.999999999999999387e-05,1.300000000000000157e-04,5.000000000000000240e-05,0.000000000000000000e+00,-1.000000000000000082e-05,1.000000000000000000e+00,1.300000000000000000e+01
3.871300000000000000e+04,-1.000000000000000082e-05,-4.000000000000000327e-05,-1.100000000000000039e-04,-6.999999999999999387e-05,1.300000000000000157e-04,5.000000000000000240e-05,0.000000000000000000e+00,-1.000000000000000082e-05,1.000000000000000000e+00,1.300000000000000000e+01
3.871400000000000000e+04,-1.000000000000000082e-05,-4.000000000000000327e-05,-1.100000000000000039e-04,-6.999999999999999387e-05,1.300000000000000157e-04,5.000000000000000240e-05,0.000000000000000000e+00,-1.000000000000000082e-05,1.000000000000000000e+00,1.300000000000000000e+01
3.871500000000000000e+04,-1.000000000000000082e-05,-4.000000000000000327e-05,-1.100000000000000039e-04,-6.999999999999999387e-05,1.300000000000000157e-04,5.000000000000000240e-05,0.000000000000000000e+00,-1.000000000000000082e-05,1.000000000000000000e+00,1.300000000000000000e+01
3.871600000000000000e+04,-1.000000000000000082e-05,-4.000000000000000327e-05,-1.100000000000000039e-04,-6.999999999999999387e-05,1.300000000000000157e-04,5.000000000000000240e-05,0.000000000000000000e+00,-1.000000000000000082e-05,1.000000000000000000e+00,1.300000000000000000e+01
3.871700000000000000e+04,-1.000000000000000082e-05,-4.000000000000000327e-05,-1.100000000000000039e-04,-6.999999999999999387e-05,1.300000000000000157e-04,5.000000000000000240e-05,0.000000000000000000e+00,-1.000000000000000082e-05,1.000000000000000000e+00,1.300000000000000000e+01
3.871800000000000000e+04,-1.000000000000000082e-05,-4.000000000000000327e-05,-1.100000000000000039e-04,-6.999999999999999387e-05,1.300000000000000157e-04,5.000000000000000240e-05,0.000000000000000000e+00,-1.000000000000000082e-05,1.000000000000000000e+00,1.300000000000000000e+01
3.871900000000000000e+04,-1.000000000000000082e-05,-4.000000000000000327e-05,-1.100000000000000039e-04,-6.999999999999999387e-05,1.300000000000000157e-04,5.000000000000000240e-05,0.000000000000000000e+00,-1.000000000000000082e-05,1.000000000000000000e+00,1.300000000000000000e+01
3.872000000000000000e+04,-1.000000000000000082e-05,-4.000000000000000327e-05,-1.100000000000000039e-04,-6.999999999999999387e-05,1.300000000000000157e-04,5.000000000000000240e-05,0.000000000000000000e+00,-1.000000000000000082e-05,1.000000000000000000e+00,1.300000000000000000e+01
3.872100000000000000e+04,-1.000000000000000082e-05,-4.000000000000000327e-05,-1.100000000000000039e-04,-6.999999999999999387e-05,1.300000000000000157e-04,5.000000000000000240e-05,0.000000000000000000e+00,-1.000000000000000082e-05,1.000000000000000000e+00,1.300000000000000000e+01
3.872200000000000000e+04,-1.000000000000000082e-05,-4.000000000000000327e-05,-1.100000000000000039e-04,-6.999999999999999387e-05,1.300000000000000157e-04,5.000000000000000240e-05,0.000000000000000000e+00,-1.000000000000000082e-05,1.000000000000000000e+00,1.300000000000000000e+01
3.872300000000000000e+04,-1.000000000000000082e-05,-4.000000000000000327e-05,-1.100000000000000039e-04,-6.999999999999999387e-05,1.300000000000000157e-04,5.000000000000000240e-05,0.000000000000000000e+00,-1.000000000000000082e-05,1.000000000000000000e+00,1.300000000000000000e+01
3.872400000000000000e+04,-1.000000000000000082e-05,-4.000000000000000327e-05,-1.100000000000000039e-04,-6.999999999999999387e-05,1.300000000000000157e-04,5.000000000000000240e-05,0.000000000000000000e+00,-1.000000000000000082e-05,1.000000000000000000e+00,1.300000000000000000e+01
3.872500000000000000e+04,-1.000000000000000082e-05,-4.000000000000000327e-05,-1.100000000000000039e-04,-6.999999999999999387e-05,1.300000000000000157e-04,5.000000000000000240e-05,0.000000000000000000e+00,-1.000000000000000082e-05,1.000000000000000000e+00,1.300000000000000000e+01
3.872600000000000000e+04,-1.000000000000000082e-05,-4.000000000000000327e-05,-1.100000000000000039e-04,-6.999999999999999387e-05,1.300000000000000157e-04,5.000000000000000240e-05,0.000000000000000000e+00,-1.000000000000000082e-05,1.000000000000000000e+00,1.300000000000000000e+01
3.872700000000000000e+04,-1.000000000000000082e-05,-4.000000000000000327e-05,-1.100000000000000039e-04,-6.999999999999999387e-05,1.300000000000000157e-04,5.000000000000000240e-05,0.000000000000000000e+00,-1.000000000000000082e-05,1.000000000000000000e+00,1.300000000000000000e+01
3.872800000000000000e+04,-1.000000000000000082e-05,-4.000000000000000327e-05,-1.100000000000000039e-04,-6.999999999999999387e-05,1.300000000000000157e-04,5.000000000000000240e-05,0.000000000000000000e+00,-1.000000000000000082e-05,1.000000000000000000e+00,1.300000000000000000e+01
3.872900000000000000e+04,-2.000000000000000164e-05,1.000000000000000082e-05,1.000000000000000082e-05,1.199999999999999895e-04,6.999999999999999387e-05,-1.000000000000000082e-05,0.000000000000000000e+00,-1.000000000000000082e-05,1.000000000000000000e+00,1.300000000000000000e+01
3.873000000000000000e+04,-1.000000000000000082e-05,-2.000000000000000164e-05,-4.000000000000000327e-05,-2.000000000000000164e-05,-8.000000000000000654e-05,-2.000000000000000164e-05,-1.000000000000000082e-05,-1.000000000000000082e-05,1.000000000000000000e+00,1.300000000000000000e+01
3.873100000000000000e+04,-2.999999999999999737e-05,-2.000000000000000164e-05,1.000000000000000082e-05,-2.999999999999999737e-05,-2.000000000000000164e-05,-2.999999999999999737e-05,-2.999999999999999737e-05,-2.000000000000000164e-05,1.000000000000000000e+00,1.300000000000000000e+01
3.873200000000000000e+04,-2.999999999999999737e-05,-2.000000000000000164e-05,1.000000000000000082e-05,-2.999999999999999737e-05,-2.000000000000000164e-05,-2.999999999999999737e-05,-2.999999999999999737e-05,-2.000000000000000164e-05,1.000000000000000000e+00,1.300000000000000000e+01
3.873300000000000000e+04,-2.999999999999999737e-05,-2.000000000000000164e-05,1.000000000000000082e-05,-2.999999999999999737e-05,-2.000000000000000164e-05,-2.999999999999999737e-05,-2.999999999999999737e-05,-2.000000000000000164e-05,1.000000000000000000e+00,1.300000000000000000e+01
3.873400000000000000e+04,-2.999999999999999737e-05,-2.000000000000000164e-05,1.000000000000000082e-05,-2.999999999999999737e-05,-2.000000000000000164e-05,-2.999999999999999737e-05,-2.999999999999999737e-05,-2.000000000000000164e-05,1.000000000000000000e+00,1.300000000000000000e+01
3.873500000000000000e+04,-2.999999999999999737e-05,-2.000000000000000164e-05,1.000000000000000082e-05,-2.999999999999999737e-05,-2.000000000000000164e-05,-2.999999999999999737e-05,-2.999999999999999737e-05,-2.000000000000000164e-05,1.000000000000000000e+00,1.300000000000000000e+01
3.873600000000000000e+04,-2.999999999999999737e-05,-2.000000000000000164e-05,1.000000000000000082e-05,-2.999999999999999737e-05,-2.000000000000000164e-05,-2.999999999999999737e-05,-2.999999999999999737e-05,-2.000000000000000164e-05,1.000000000000000000e+00,1.300000000000000000e+01
3.873800000000000000e+04,-2.999999999999999737e-05,-2.000000000000000164e-05,1.000000000000000082e-05,-2.999999999999999737e-05,-2.000000000000000164e-05,-2.999999999999999737e-05,-2.999999999999999737e-05,-2.000000000000000164e-05,1.000000000000000000e+00,1.300000000000000000e+01
3.873900000000000000e+04,-2.999999999999999737e-05,-2.000000000000000164e-05,1.000000000000000082e-05,-2.999999999999999737e-05,-2.000000000000000164e-05,-2.999999999999999737e-05,-2.999999999999999737e-05,-2.000000000000000164e-05,1.000000000000000000e+00,1.300000000000000000e+01
3.874000000000000000e+04,-2.999999999999999737e-05,-2.000000000000000164e-05,1.000000000000000082e-05,-2.999999999999999737e-05,-2.000000000000000164e-05,-2.999999999999999737e-05,-2.999999999999999737e-05,-2.000000000000000164e-05,1.000000000000000000e+00,1.300000000000000000e+01
3.874100000000000000e+04,-2.999999999999999737e-05,-2.000000000000000164e-05,1.000000000000000082e-05,-2.999999999999999737e-05,-2.000000000000000164e-05,-2.999999999999999737e-05,-2.999999999999999737e-05,-2.000000000000000164e-05,1.000000000000000000e+00,1.300000000000000000e+01
3.874200000000000000e+04,-2.999999999999999737e-05,-2.000000000000000164e-05,1.000000000000000082e-05,-2.999999999999999737e-05,-2.000000000000000164e-05,-2.999999999999999737e-05,-2.999999999999999737e-05,-2.000000000000000164e-05,1.000000000000000000e+00,1.300000000000000000e+01
3.874300000000000000e+04,-2.999999999999999737e-05,-1.000000000000000082e-05,-2.999999999999999737e-05,-2.000000000000000164e-05,1.000000000000000082e-05,1.000000000000000082e-05,-1.000000000000000082e-05,-1.000000000000000082e-05,1.000000000000000000e+00,1.300000000000000000e+01
3.874400000000000000e+04,-2.999999999999999737e-05,-1.000000000000000082e-05,-2.999999999999999737e-05,-2.000000000000000164e-05,1.000000000000000082e-05,1.000000000000000082e-05,-1.000000000000000082e-05,-1.000000000000000082e-05,1.000000000000000000e+00,1.300000000000000000e+01
3.874500000000000000e+04,-2.999999999999999737e-05,-1.000000000000000082e-05,-2.999999999999999737e-05,-2.000000000000000164e-05,1.000000000000000082e-05,1.000000000000000082e-05,-1.000000000000000082e-05,-1.000000000000000082e-05,1.000000000000000000e+00,1.300000000000000000e+01
3.874600000000000000e+04,-2.999999999999999737e-05,-1.000000000000000082e-05,-2.999999999999999737e-05,-2.000000000000000164e-05,1.000000000000000082e-05,1.000000000000000082e-05,-1.000000000000000082e-05,-1.000000000000000082e-05,1.000000000000000000e+00,1.300000000000000000e+01
3.874700000000000000e+04,-2.999999999999999737e-05,-1.000000000000000082e-05,-2.999999999999999737e-05,-2.000000000000000164e-05,1.000000000000000082e-05,1.000000000000000082e-05,-1.000000000000000082e-05,-1.000000000000000082e-05,1.000000000000000000e+00,1.300000000000000000e+01
3.874800000000000000e+04,-2.999999999999999737e-05,-1.000000000000000082e-05,-2.999999999999999737e-05,-2.000000000000000164e-05,1.000000000000000082e-05,1.000000000000000082e-05,-1.000000000000000082e-05,-1.000000000000000082e-05,1.000000000000000000e+00,1.300000000000000000e+01
3.874900000000000000e+04,-2.999999999999999737e-05,-1.000000000000000082e-05,-2.999999999999999737e-05,-2.000000000000000164e-05,1.000000000000000082e-05,1.000000000000000082e-05,-1.000000000000000082e-05,-1.000000000000000082e-05,1.000000000000000000e+00,1.300000000000000000e+01
3.875000000000000000e+04,-2.999999999999999737e-05,-1.000000000000000082e-05,-2.999999999999999737e-05,-2.000000000000000164e-05,1.000000000000000082e-05,1.000000000000000082e-05,-1.000000000000000082e-05,-1.000000000000000082e-05,1.000000000000000000e+00,1.300000000000000000e+01
3.875100000000000000e+04,-2.999999999999999737e-05,-1.000000000000000082e-05,-2.999999999999999737e-05,-2.000000000000000164e-05,1.000000000000000082e-05,1.000000000000000082e-05,-1.000000000000000082e-05,-1.000000000000000082e-05,1.000000000000000000e+00,1.300000000000000000e+01
3.875200000000000000e+04,-2.000000000000000164e-05,-2.999999999999999737e-05,-4.000000000000000327e-05,-9.000000000000000567e-05,-1.199999999999999895e-04,-4.000000000000000327e-05,-1.000000000000000082e-05,-1.000000000000000082e-05,1.000000000000000000e+00,1.300000000000000000e+01
3.875300000000000000e+04,-2.000000000000000164e-05,-2.999999999999999737e-05,-4.000000000000000327e-05,-9.000000000000000567e-05,-1.199999999999999895e-04,-4.000000000000000327e-05,-1.000000000000000082e-05,-1.000000000000000082e-05,1.000000000000000000e+00,1.300000000000000000e+01
3.875400000000000000e+04,-2.000000000000000164e-05,-2.999999999999999737e-05,-4.000000000000000327e-05,-9.000000000000000567e-05,-1.199999999999999895e-04,-4.000000000000000327e-05,-1.000000000000000082e-05,-1.000000000000000082e-05,1.000000000000000000e+00,1.300000000000000000e+01
3.875500000000000000e+04,-2.000000000000000164e-05,-2.999999999999999737e-05,-4.000000000000000327e-05,-9.000000000000000567e-05,-1.199999999999999895e-04,-4.000000000000000327e-05,-1.000000000000000082e-05,-1.000000000000000082e-05,1.000000000000000000e+00,1.300000000000000000e+01
3.875600000000000000e+04,-2.000000000000000164e-05,-2.999999999999999737e-05,-4.000000000000000327e-05,-9.000000000000000567e-05,-1.199999999999999895e-04,-4.000000000000000327e-05,-1.000000000000000082e-05,-1.000000000000000082e-05,1.000000000000000000e+00,1.300000000000000000e+01
3.875700000000000000e+04,-2.000000000000000164e-05,-2.999999999999999737e-05,-4.000000000000000327e-05,-9.000000000000000567e-05,-1.199999999999999895e-04,-4.000000000000000327e-05,-1.000000000000000082e-05,-1.000000000000000082e-05,1.000000000000000000e+00,1.300000000000000000e+01
3.875800000000000000e+04,-2.000000000000000164e-05,-2.999999999999999737e-05,-4.000000000000000327e-05,-9.000000000000000567e-05,-1.199999999999999895e-04,-4.000000000000000327e-05,-1.000000000000000082e-05,-1.000000000000000082e-05,1.000000000000000000e+00,1.300000000000000000e+01
3.875900000000000000e+04,-2.000000000000000164e-05,-2.999999999999999737e-05,-4.000000000000000327e-05,-9.000000000000000567e-05,-1.199999999999999895e-04,-4.000000000000000327e-05,-1.000000000000000082e-05,-1.000000000000000082e-05,1.000000000000000000e+00,1.300000000000000000e+01
3.876000000000000000e+04,-2.000000000000000164e-05,-2.999999999999999737e-05,-4.000000000000000327e-05,-9.000000000000000567e-05,-1.199999999999999895e-04,-4.000000000000000327e-05,-1.000000000000000082e-05,-1.000000000000000082e-05,1.000000000000000000e+00,1.300000000000000000e+01
3.876100000000000000e+04,-2.000000000000000164e-05,-2.999999999999999737e-05,-4.000000000000000327e-05,-9.000000000000000567e-05,-1.199999999999999895e-04,-4.000000000000000327e-05,-1.000000000000000082e-05,-1.000000000000000082e-05,1.000000000000000000e+00,1.300000000000000000e+01
3.876200000000000000e+04,-2.000000000000000164e-05,-2.999999999999999737e-05,-4.000000000000000327e-05,-9.000000000000000567e-05,-1.199999999999999895e-04,-4.000000000000000327e-05,-1.000000000000000082e-05,-1.000000000000000082e-05,1.000000000000000000e+00,1.300000000000000000e+01
3.876300000000000000e+04,-2.000000000000000164e-05,-2.999999999999999737e-05,-4.000000000000000327e-05,-9.000000000000000567e-05,-1.199999999999999895e-04,-4.000000000000000327e-05,-1.000000000000000082e-05,-1.000000000000000082e-05,1.000000000000000000e+00,1.300000000000000000e+01
3.876400000000000000e+04,-2.000000000000000164e-05,-2.999999999999999737e-05,-4.000000000000000327e-05,-9.000000000000000567e-05,-1.199999999999999895e-04,-4.000000000000000327e-05,-1.000000000000000082e-05,-1.000000000000000082e-05,1.000000000000000000e+00,1.300000000000000000e+01
3.876500000000000000e+04,-2.000000000000000164e-05,-2.999999999999999737e-05,-4.000000000000000327e-05,-9.000000000000000567e-05,-1.199999999999999895e-04,-4.000000000000000327e-05,-1.000000000000000082e-05,-1.000000000000000082e-05,1.000000000000000000e+00,1.300000000000000000e+01
3.876600000000000000e+04,-2.000000000000000164e-05,-2.999999999999999737e-05,-4.000000000000000327e-05,-9.000000000000000567e-05,-1.199999999999999895e-04,-4.000000000000000327e-05,-1.000000000000000082e-05,-1.000000000000000082e-05,1.000000000000000000e+00,1.300000000000000000e+01
3.876700000000000000e+04,0.000000000000000000e+00,-4.000000000000000327e-05,-5.999999999999999474e-05,-6.999999999999999387e-05,8.000000000000000654e-05,2.999999999999999737e-05,2.000000000000000164e-05,1.000000000000000082e-05,1.000000000000000000e+00,1.300000000000000000e+01
3.876800000000000000e+04,0.000000000000000000e+00,-4.000000000000000327e-05,-5.999999999999999474e-05,-6.999999999999999387e-05,8.000000000000000654e-05,2.999999999999999737e-05,2.000000000000000164e-05,1.000000000000000082e-05,1.000000000000000000e+00,1.300000000000000000e+01
3.876900000000000000e+04,2.000000000000000164e-05,4.000000000000000327e-05,2.999999999999999737e-05,4.000000000000000327e-05,5.999999999999999474e-05,-2.000000000000000164e-05,-1.000000000000000082e-05,0.000000000000000000e+00,1.000000000000000000e+00,1.300000000000000000e+01
3.877000000000000000e+04,2.000000000000000164e-05,4.000000000000000327e-05,2.999999999999999737e-05,4.000000000000000327e-05,5.999999999999999474e-05,-2.000000000000000164e-05,-1.000000000000000082e-05,0.000000000000000000e+00,1.000000000000000000e+00,1.300000000000000000e+01
3.877100000000000000e+04,2.000000000000000164e-05,4.000000000000000327e-05,2.999999999999999737e-05,4.000000000000000327e-05,5.999999999999999474e-05,-2.000000000000000164e-05,-1.000000000000000082e-05,0.000000000000000000e+00,1.000000000000000000e+00,1.300000000000000000e+01
3.877200000000000000e+04,2.000000000000000164e-05,4.000000000000000327e-05,2.999999999999999737e-05,4.000000000000000327e-05,5.999999999999999474e-05,-2.000000000000000164e-05,-1.000000000000000082e-05,0.000000000000000000e+00,1.000000000000000000e+00,1.300000000000000000e+01
3.877300000000000000e+04,2.000000000000000164e-05,4.000000000000000327e-05,2.999999999999999737e-05,4.000000000000000327e-05,5.999999999999999474e-05,-2.000000000000000164e-05,-1.000000000000000082e-05,0.000000000000000000e+00,1.000000000000000000e+00,1.300000000000000000e+01
3.877400000000000000e+04,2.000000000000000164e-05,4.000000000000000327e-05,2.999999999999999737e-05,4.000000000000000327e-05,5.999999999999999474e-05,-2.000000000000000164e-05,-1.000000000000000082e-05,0.000000000000000000e+00,1.000000000000000000e+00,1.300000000000000000e+01
3.877500000000000000e+04,2.000000000000000164e-05,4.000000000000000327e-05,2.999999999999999737e-05,4.000000000000000327e-05,5.999999999999999474e-05,-2.000000000000000164e-05,-1.000000000000000082e-05,0.000000000000000000e+00,1.000000000000000000e+00,1.300000000000000000e+01
3.877600000000000000e+04,2.000000000000000164e-05,4.000000000000000327e-05,2.999999999999999737e-05,4.000000000000000327e-05,5.999999999999999474e-05,-2.000000000000000164e-05,-1.000000000000000082e-05,0.000000000000000000e+00,1.000000000000000000e+00,1.300000000000000000e+01
3.877700000000000000e+04,2.000000000000000164e-05,4.000000000000000327e-05,2.999999999999999737e-05,4.000000000000000327e-05,5.999999999999999474e-05,-2.000000000000000164e-05,-1.000000000000000082e-05,0.000000000000000000e+00,1.000000000000000000e+00,1.300000000000000000e+01
3.877800000000000000e+04,2.000000000000000164e-05,4.000000000000000327e-05,2.999999999999999737e-05,4.000000000000000327e-05,5.999999999999999474e-05,-2.000000000000000164e-05,-1.000000000000000082e-05,0.000000000000000000e+00,1.000000000000000000e+00,1.300000000000000000e+01
3.877900000000000000e+04,2.000000000000000164e-05,4.000000000000000327e-05,2.999999999999999737e-05,4.000000000000000327e-05,5.999999999999999474e-05,-2.000000000000000164e-05,-1.000000000000000082e-05,0.000000000000000000e+00,1.000000000000000000e+00,1.300000000000000000e+01
3.878000000000000000e+04,2.000000000000000164e-05,4.000000000000000327e-05,2.999999999999999737e-05,4.000000000000000327e-05,5.999999999999999474e-05,-2.000000000000000164e-05,-1.000000000000000082e-05,0.000000000000000000e+00,1.000000000000000000e+00,1.300000000000000000e+01
3.878100000000000000e+04,2.000000000000000164e-05,4.000000000000000327e-05,2.999999999999999737e-05,4.000000000000000327e-05,5.999999999999999474e-05,-2.000000000000000164e-05,-1.000000000000000082e-05,0.000000000000000000e+00,1.000000000000000000e+00,1.300000000000000000e+01
3.878200000000000000e+04,2.000000000000000164e-05,4.000000000000000327e-05,2.999999999999999737e-05,4.000000000000000327e-05,5.999999999999999474e-05,-2.000000000000000164e-05,-1.000000000000000082e-05,0.000000000000000000e+00,1.000000000000000000e+00,1.300000000000000000e+01
3.878300000000000000e+04,2.000000000000000164e-05,4.000000000000000327e-05,2.999999999999999737e-05,4.000000000000000327e-05,5.999999999999999474e-05,-2.000000000000000164e-05,-1.000000000000000082e-05,0.000000000000000000e+00,1.000000000000000000e+00,1.300000000000000000e+01
3.878400000000000000e+04,2.000000000000000164e-05,4.000000000000000327e-05,2.999999999999999737e-05,4.000000000000000327e-05,5.999999999999999474e-05,-2.000000000000000164e-05,-1.000000000000000082e-05,0.000000000000000000e+00,1.000000000000000000e+00,1.300000000000000000e+01
3.878500000000000000e+04,2.000000000000000164e-05,4.000000000000000327e-05,2.999999999999999737e-05,4.000000000000000327e-05,5.999999999999999474e-05,-2.000000000000000164e-05,-1.000000000000000082e-05,0.000000000000000000e+00,1.000000000000000000e+00,1.300000000000000000e+01
3.878600000000000000e+04,2.000000000000000164e-05,4.000000000000000327e-05,2.999999999999999737e-05,4.000000000000000327e-05,5.999999999999999474e-05,-2.000000000000000164e-05,-1.000000000000000082e-05,0.000000000000000000e+00,1.000000000000000000e+00,1.300000000000000000e+01
3.878800000000000000e+04,2.000000000000000164e-05,4.000000000000000327e-05,2.999999999999999737e-05,4.000000000000000327e-05,5.999999999999999474e-05,-2.000000000000000164e-05,-1.000000000000000082e-05,0.000000000000000000e+00,1.000000000000000000e+00,1.300000000000000000e+01
3.878900000000000000e+04,-2.000000000000000164e-05,-1.000000000000000082e-05,-2.999999999999999737e-05,-1.000000000000000048e-04,-9.000000000000000567e-05,-4.000000000000000327e-05,-1.000000000000000082e-05,-1.000000000000000082e-05,1.000000000000000000e+00,1.300000000000000000e+01
3.879000000000000000e+04,-1.000000000000000082e-05,0.000000000000000000e+00,2.000000000000000164e-05,1.000000000000000082e-05,-2.000000000000000164e-05,-2.000000000000000164e-05,-2.000000000000000164e-05,0.000000000000000000e+00,1.000000000000000000e+00,1.300000000000000000e+01
3.879100000000000000e+04,-2.000000000000000164e-05,-2.000000000000000164e-05,-5.000000000000000240e-05,-5.999999999999999474e-05,-2.999999999999999737e-05,-1.000000000000000082e-05,-1.000000000000000082e-05,0.000000000000000000e+00,1.000000000000000000e+00,1.300000000000000000e+01
3.879200000000000000e+04,-2.000000000000000164e-05,-2.000000000000000164e-05,-5.000000000000000240e-05,-5.999999999999999474e-05,-2.999999999999999737e-05,-1.000000000000000082e-05,-1.000000000000000082e-05,0.000000000000000000e+00,1.000000000000000000e+00,1.300000000000000000e+01
3.879300000000000000e+04,-2.000000000000000164e-05,-2.000000000000000164e-05,-5.000000000000000240e-05,-5.999999999999999474e-05,-2.999999999999999737e-05,-1.000000000000000082e-05,-1.000000000000000082e-05,0.000000000000000000e+00,1.000000000000000000e+00,1.300000000000000000e+01
3.879400000000000000e+04,-2.000000000000000164e-05,-2.000000000000000164e-05,-5.000000000000000240e-05,-5.999999999999999474e-05,-2.999999999999999737e-05,-1.000000000000000082e-05,-1.000000000000000082e-05,0.000000000000000000e+00,1.000000000000000000e+00,1.300000000000000000e+01
3.879500000000000000e+04,-2.000000000000000164e-05,-2.000000000000000164e-05,-5.000000000000000240e-05,-5.999999999999999474e-05,-2.999999999999999737e-05,-1.000000000000000082e-05,-1.000000000000000082e-05,0.000000000000000000e+00,1.000000000000000000e+00,1.300000000000000000e+01
3.879600000000000000e+04,-2.000000000000000164e-05,-2.000000000000000164e-05,-5.000000000000000240e-05,-5.999999999999999474e-05,-2.999999999999999737e-05,-1.000000000000000082e-05,-1.000000000000000082e-05,0.000000000000000000e+00,1.000000000000000000e+00,1.300000000000000000e+01
3.879700000000000000e+04,-2.000000000000000164e-05,-2.000000000000000164e-05,-5.000000000000000240e-05,-5.999999999999999474e-05,-2.999999999999999737e-05,-1.000000000000000082e-05,-1.000000000000000082e-05,0.000000000000000000e+00,1.000000000000000000e+00,1.300000000000000000e+01
3.879800000000000000e+04,-2.000000000000000164e-05,-2.000000000000000164e-05,-5.000000000000000240e-05,-5.999999999999999474e-05,-2.999999999999999737e-05,-1.000000000000000082e-05,-1.000000000000000082e-05,0.000000000000000000e+00,1.000000000000000000e+00,1.300000000000000000e+01
3.879900000000000000e+04,-2.000000000000000164e-05,-2.000000000000000164e-05,-5.000000000000000240e-05,-5.999999999999999474e-05,-2.999999999999999737e-05,-1.000000000000000082e-05,-1.000000000000000082e-05,0.000000000000000000e+00,1.000000000000000000e+00,1.300000000000000000e+01
3.880000000000000000e+04,-2.000000000000000164e-05,-2.000000000000000164e-05,-5.000000000000000240e-05,-5.999999999999999474e-05,-2.999999999999999737e-05,-1.000000000000000082e-05,-1.000000000000000082e-05,0.000000000000000000e+00,1.000000000000000000e+00,1.300000000000000000e+01
3.880100000000000000e+04,-2.000000000000000164e-05,-2.000000000000000164e-05,-5.000000000000000240e-05,-5.999999999999999474e-05,-2.999999999999999737e-05,-1.000000000000000082e-05,-1.000000000000000082e-05,0.000000000000000000e+00,1.000000000000000000e+00,1.300000000000000000e+01
3.880200000000000000e+04,-2.000000000000000164e-05,-2.000000000000000164e-05,-5.000000000000000240e-05,-5.999999999999999474e-05,-2.999999999999999737e-05,-1.000000000000000082e-05,-1.000000000000000082e-05,0.000000000000000000e+00,1.000000000000000000e+00,1.300000000000000000e+01
3.880300000000000000e+04,0.000000000000000000e+00,-1.000000000000000082e-05,-5.000000000000000240e-05,-2.999999999999999737e-05,-5.000000000000000240e-05,-2.000000000000000164e-05,-1.000000000000000082e-05,-1.000000000000000082e-05,1.000000000000000000e+00,1.300000000000000000e+01
3.880400000000000000e+04,0.000000000000000000e+00,-1.000000000000000082e-05,-5.000000000000000240e-05,-2.999999999999999737e-05,-5.000000000000000240e-05,-2.000000000000000164e-05,-1.000000000000000082e-05,-1.000000000000000082e-05,1.000000000000000000e+00,1.300000000000000000e+01
3.880500000000000000e+04,0.000000000000000000e+00,-1.000000000000000082e-05,-5.000000000000000240e-05,-2.999999999999999737e-05,-5.000000000000000240e-05,-2.000000000000000164e-05,-1.000000000000000082e-05,-1.000000000000000082e-05,1.000000000000000000e+00,1.300000000000000000e+01
3.880600000000000000e+04,0.000000000000000000e+00,-1.000000000000000082e-05,-5.000000000000000240e-05,-2.999999999999999737e-05,-5.000000000000000240e-05,-2.000000000000000164e-05,-1.000000000000000082e-05,-1.000000000000000082e-05,1.000000000000000000e+00,1.300000000000000000e+01
3.880700000000000000e+04,0.000000000000000000e+00,-1.000000000000000082e-05,-5.000000000000000240e-05,-2.999999999999999737e-05,-5.000000000000000240e-05,-2.000000000000000164e-05,-1.000000000000000082e-05,-1.000000000000000082e-05,1.000000000000000000e+00,1.300000000000000000e+01
3.880800000000000000e+04,0.000000000000000000e+00,-1.000000000000000082e-05,-5.000000000000000240e-05,-2.999999999999999737e-05,-5.000000000000000240e-05,-2.000000000000000164e-05,-1.000000000000000082e-05,-1.000000000000000082e-05,1.000000000000000000e+00,1.300000000000000000e+01
3.880900000000000000e+04,0.000000000000000000e+00,-1.000000000000000082e-05,-5.000000000000000240e-05,-2.999999999999999737e-05,-5.000000000000000240e-05,-2.000000000000000164e-05,-1.000000000000000082e-05,-1.000000000000000082e-05,1.000000000000000000e+00,1.300000000000000000e+01
3.881000000000000000e+04,0.000000000000000000e+00,-1.000000000000000082e-05,-5.000000000000000240e-05,-2.999999999999999737e-05,-5.000000000000000240e-05,-2.000000000000000164e-05,-1.000000000000000082e-05,-1.000000000000000082e-05,1.000000000000000000e+00,1.300000000000000000e+01
3.881100000000000000e+04,0.000000000000000000e+00,-1.000000000000000082e-05,-5.000000000000000240e-05,-2.999999999999999737e-05,-5.000000000000000240e-05,-2.000000000000000164e-05,-1.000000000000000082e-05,-1.000000000000000082e-05,1.000000000000000000e+00,1.300000000000000000e+01
3.881200000000000000e+04,0.000000000000000000e+00,-1.000000000000000082e-05,-5.000000000000000240e-05,-2.999999999999999737e-05,-5.000000000000000240e-05,-2.000000000000000164e-05,-1.000000000000000082e-05,-1.000000000000000082e-05,1.000000000000000000e+00,1.300000000000000000e+01
3.881300000000000000e+04,1.000000000000000082e-05,0.000000000000000000e+00,2.000000000000000164e-05,5.999999999999999474e-05,-1.000000000000000082e-05,-1.000000000000000082e-05,-1.000000000000000082e-05,0.000000000000000000e+00,1.000000000000000000e+00,1.300000000000000000e+01
3.881400000000000000e+04,1.000000000000000082e-05,0.000000000000000000e+00,2.000000000000000164e-05,5.999999999999999474e-05,-1.000000000000000082e-05,-1.000000000000000082e-05,-1.000000000000000082e-05,0.000000000000000000e+00,1.000000000000000000e+00,1.300000000000000000e+01
3.881500000000000000e+04,1.000000000000000082e-05,0.000000000000000000e+00,2.000000000000000164e-05,5.999999999999999474e-05,-1.000000000000000082e-05,-1.000000000000000082e-05,-1.000000000000000082e-05,0.000000000000000000e+00,1.000000000000000000e+00,1.300000000000000000e+01
3.881600000000000000e+04,1.000000000000000082e-05,0.000000000000000000e+00,2.000000000000000164e-05,5.999999999999999474e-05,-1.000000000000000082e-05,-1.000000000000000082e-05,-1.000000000000000082e-05,0.000000000000000000e+00,1.000000000000000000e+00,1.300000000000000000e+01
3.881700000000000000e+04,1.000000000000000082e-05,0.000000000000000000e+00,2.000000000000000164e-05,5.999999999999999474e-05,-1.000000000000000082e-05,-1.000000000000000082e-05,-1.000000000000000082e-05,0.000000000000000000e+00,1.000000000000000000e+00,1.300000000000000000e+01
3.881800000000000000e+04,1.000000000000000082e-05,0.000000000000000000e+00,2.000000000000000164e-05,5.999999999999999474e-05,-1.000000000000000082e-05,-1.000000000000000082e-05,-1.000000000000000082e-05,0.000000000000000000e+00,1.000000000000000000e+00,1.300000000000000000e+01
3.881900000000000000e+04,1.000000000000000082e-05,0.000000000000000000e+00,2.000000000000000164e-05,5.999999999999999474e-05,-1.000000000000000082e-05,-1.000000000000000082e-05,-1.000000000000000082e-05,0.000000000000000000e+00,1.000000000000000000e+00,1.300000000000000000e+01
3.882000000000000000e+04,1.000000000000000082e-05,0.000000000000000000e+00,2.000000000000000164e-05,5.999999999999999474e-05,-1.000000000000000082e-05,-1.000000000000000082e-05,-1.000000000000000082e-05,0.000000000000000000e+00,1.000000000000000000e+00,1.300000000000000000e+01
3.882100000000000000e+04,1.000000000000000082e-05,0.000000000000000000e+00,2.000000000000000164e-05,5.999999999999999474e-05,-1.000000000000000082e-05,-1.000000000000000082e-05,-1.000000000000000082e-05,0.000000000000000000e+00,1.000000000000000000e+00,1.300000000000000000e+01
3.882200000000000000e+04,1.000000000000000082e-05,0.000000000000000000e+00,2.000000000000000164e-05,5.999999999999999474e-05,-1.000000000000000082e-05,-1.000000000000000082e-05,-1.000000000000000082e-05,0.000000000000000000e+00,1.000000000000000000e+00,1.300000000000000000e+01
3.882300000000000000e+04,1.000000000000000082e-05,0.000000000000000000e+00,2.000000000000000164e-05,5.999999999999999474e-05,-1.000000000000000082e-05,-1.000000000000000082e-05,-1.000000000000000082e-05,0.000000000000000000e+00,1.000000000000000000e+00,1.300000000000000000e+01
3.882400000000000000e+04,1.000000000000000082e-05,0.000000000000000000e+00,2.000000000000000164e-05,5.999999999999999474e-05,-1.000000000000000082e-05,-1.000000000000000082e-05,-1.000000000000000082e-05,0.000000000000000000e+00,1.000000000000000000e+00,1.300000000000000000e+01
3.882500000000000000e+04,1.000000000000000082e-05,0.000000000000000000e+00,2.000000000000000164e-05,5.999999999999999474e-05,-1.000000000000000082e-05,-1.000000000000000082e-05,-1.000000000000000082e-05,0.000000000000000000e+00,1.000000000000000000e+00,1.300000000000000000e+01
3.882600000000000000e+04,1.000000000000000082e-05,0.000000000000000000e+00,2.000000000000000164e-05,5.999999999999999474e-05,-1.000000000000000082e-05,-1.000000000000000082e-05,-1.000000000000000082e-05,0.000000000000000000e+00,1.000000000000000000e+00,1.300000000000000000e+01
3.882700000000000000e+04,1.000000000000000082e-05,0.000000000000000000e+00,-2.000000000000000164e-05,-5.000000000000000240e-05,0.000000000000000000e+00,1.000000000000000082e-05,2.000000000000000164e-05,1.000000000000000082e-05,1.000000000000000000e+00,1.300000000000000000e+01
3.882800000000000000e+04,1.000000000000000082e-05,0.000000000000000000e+00,-2.000000000000000164e-05,-5.000000000000000240e-05,0.000000000000000000e+00,1.000000000000000082e-05,2.000000000000000164e-05,1.000000000000000082e-05,1.000000000000000000e+00,1.300000000000000000e+01
3.882900000000000000e+04,0.000000000000000000e+00,0.000000000000000000e+00,0.000000000000000000e+00,-2.000000000000000164e-05,1.000000000000000082e-05,-2.999999999999999737e-05,-1.000000000000000082e-05,-1.000000000000000082e-05,1.000000000000000000e+00,1.300000000000000000e+01
3.883000000000000000e+04,0.000000000000000000e+00,0.000000000000000000e+00,0.000000000000000000e+00,-2.000000000000000164e-05,1.000000000000000082e-05,-2.999999999999999737e-05,-1.000000000000000082e-05,-1.000000000000000082e-05,1.000000000000000000e+00,1.300000000000000000e+01
3.883100000000000000e+04,0.000000000000000000e+00,0.000000000000000000e+00,0.000000000000000000e+00,-2.000000000000000164e-05,1.000000000000000082e-05,-2.999999999999999737e-05,-1.000000000000000082e-05,-1.000000000000000082e-05,1.000000000000000000e+00,1.300000000000000000e+01
3.883200000000000000e+04,0.000000000000000000e+00,0.000000000000000000e+00,0.000000000000000000e+00,-2.000000000000000164e-05,1.000000000000000082e-05,-2.999999999999999737e-05,-1.000000000000000082e-05,-1.000000000000000082e-05,1.000000000000000000e+00,1.300000000000000000e+01
3.883300000000000000e+04,0.000000000000000000e+00,0.000000000000000000e+00,0.000000000000000000e+00,-2.000000000000000164e-05,1.000000000000000082e-05,-2.999999999999999737e-05,-1.000000000000000082e-05,-1.000000000000000082e-05,1.000000000000000000e+00,1.300000000000000000e+01
3.883400000000000000e+04,0.000000000000000000e+00,0.000000000000000000e+00,0.000000000000000000e+00,-2.000000000000000164e-05,1.000000000000000082e-05,-2.999999999999999737e-05,-1.000000000000000082e-05,-1.000000000000000082e-05,1.000000000000000000e+00,1.300000000000000000e+01
3.883500000000000000e+04,0.000000000000000000e+00,0.000000000000000000e+00,0.000000000000000000e+00,-2.000000000000000164e-05,1.000000000000000082e-05,-2.999999999999999737e-05,-1.000000000000000082e-05,-1.000000000000000082e-05,1.000000000000000000e+00,1.300000000000000000e+01
3.883600000000000000e+04,0.000000000000000000e+00,0.000000000000000000e+00,0.000000000000000000e+00,-2.000000000000000164e-05,1.000000000000000082e-05,-2.999999999999999737e-05,-1.000000000000000082e-05,-1.000000000000000082e-05,1.000000000000000000e+00,1.300000000000000000e+01
3.883800000000000000e+04,0.000000000000000000e+00,0.000000000000000000e+00,0.000000000000000000e+00,-2.000000000000000164e-05,1.000000000000000082e-05,-2.999999999999999737e-05,-1.000000000000000082e-05,-1.000000000000000082e-05,1.000000000000000000e+00,1.300000000000000000e+01
3.883900000000000000e+04,0.000000000000000000e+00,0.000000000000000000e+00,0.000000000000000000e+00,-2.000000000000000164e-05,1.000000000000000082e-05,-2.999999999999999737e-05,-1.000000000000000082e-05,-1.000000000000000082e-05,1.000000000000000000e+00,1.300000000000000000e+01
3.884000000000000000e+04,0.000000000000000000e+00,0.000000000000000000e+00,0.000000000000000000e+00,-2.000000000000000164e-05,1.000000000000000082e-05,-2.999999999999999737e-05,-1.000000000000000082e-05,-1.000000000000000082e-05,1.000000000000000000e+00,1.300000000000000000e+01
3.884100000000000000e+04,0.000000000000000000e+00,0.000000000000000000e+00,0.000000000000000000e+00,-2.000000000000000164e-05,1.000000000000000082e-05,-2.999999999999999737e-05,-1.000000000000000082e-05,-1.000000000000000082e-05,1.000000000000000000e+00,1.300000000000000000e+01
3.884200000000000000e+04,0.000000000000000000e+00,0.000000000000000000e+00,0.000000000000000000e+00,-2.000000000000000164e-05,1.000000000000000082e-05,-2.999999999999999737e-05,-1.000000000000000082e-05,-1.000000000000000082e-05,1.000000000000000000e+00,1.300000000000000000e+01
3.884300000000000000e+04,0.000000000000000000e+00,0.000000000000000000e+00,0.000000000000000000e+00,-2.000000000000000164e-05,1.000000000000000082e-05,-2.999999999999999737e-05,-1.000000000000000082e-05,-1.000000000000000082e-05,1.000000000000000000e+00,1.300000000000000000e+01
3.884400000000000000e+04,0.000000000000000000e+00,0.000000000000000000e+00,0.000000000000000000e+00,-2.000000000000000164e-05,1.000000000000000082e-05,-2.999999999999999737e-05,-1.000000000000000082e-05,-1.000000000000000082e-05,1.000000000000000000e+00,1.300000000000000000e+01
3.884500000000000000e+04,0.000000000000000000e+00,0.000000000000000000e+00,0.000000000000000000e+00,-2.000000000000000164e-05,1.000000000000000082e-05,-2.999999999999999737e-05,-1.000000000000000082e-05,-1.000000000000000082e-05,1.000000000000000000e+00,1.300000000000000000e+01
3.884600000000000000e+04,0.000000000000000000e+00,0.000000000000000000e+00,0.000000000000000000e+00,-2.000000000000000164e-05,1.000000000000000082e-05,-2.999999999999999737e-05,-1.000000000000000082e-05,-1.000000000000000082e-05,1.000000000000000000e+00,1.300000000000000000e+01
3.884700000000000000e+04,0.000000000000000000e+00,0.000000000000000000e+00,0.000000000000000000e+00,-2.000000000000000164e-05,1.000000000000000082e-05,-2.999999999999999737e-05,-1.000000000000000082e-05,-1.000000000000000082e-05,1.000000000000000000e+00,1.300000000000000000e+01
3.884800000000000000e+04,0.000000000000000000e+00,0.000000000000000000e+00,0.000000000000000000e+00,-2.000000000000000164e-05,1.000000000000000082e-05,-2.999999999999999737e-05,-1.000000000000000082e-05,-1.000000000000000082e-05,1.000000000000000000e+00,1.300000000000000000e+01
3.884900000000000000e+04,0.000000000000000000e+00,0.000000000000000000e+00,0.000000000000000000e+00,-2.000000000000000164e-05,1.000000000000000082e-05,-2.999999999999999737e-05,-1.000000000000000082e-05,-1.000000000000000082e-05,1.000000000000000000e+00,1.300000000000000000e+01
3.885000000000000000e+04,0.000000000000000000e+00,1.000000000000000082e-05,1.000000000000000082e-05,-1.000000000000000082e-05,-2.999999999999999737e-05,0.000000000000000000e+00,-2.999999999999999737e-05,-2.000000000000000164e-05,1.000000000000000000e+00,1.300000000000000000e+01
3.885100000000000000e+04,0.000000000000000000e+00,-2.000000000000000164e-05,-4.000000000000000327e-05,-5.000000000000000240e-05,-2.000000000000000164e-05,0.000000000000000000e+00,1.000000000000000082e-05,0.000000000000000000e+00,1.000000000000000000e+00,1.300000000000000000e+01
3.885200000000000000e+04,0.000000000000000000e+00,-2.000000000000000164e-05,-4.000000000000000327e-05,-5.000000000000000240e-05,-2.000000000000000164e-05,0.000000000000000000e+00,1.000000000000000082e-05,0.000000000000000000e+00,1.000000000000000000e+00,1.300000000000000000e+01
3.885400000000000000e+04,0.000000000000000000e+00,-2.000000000000000164e-05,-4.000000000000000327e-05,-5.000000000000000240e-05,-2.000000000000000164e-05,0.000000000000000000e+00,1.000000000000000082e-05,0.000000000000000000e+00,1.000000000000000000e+00,1.300000000000000000e+01
3.885500000000000000e+04,0.000000000000000000e+00,-2.000000000000000164e-05,-4.000000000000000327e-05,-5.000000000000000240e-05,-2.000000000000000164e-05,0.000000000000000000e+00,1.000000000000000082e-05,0.000000000000000000e+00,1.000000000000000000e+00,1.300000000000000000e+01
3.885600000000000000e+04,0.000000000000000000e+00,-2.000000000000000164e-05,-4.000000000000000327e-05,-5.000000000000000240e-05,-2.000000000000000164e-05,0.000000000000000000e+00,1.000000000000000082e-05,0.000000000000000000e+00,1.000000000000000000e+00,1.300000000000000000e+01
3.885700000000000000e+04,0.000000000000000000e+00,-2.000000000000000164e-05,-4.000000000000000327e-05,-5.000000000000000240e-05,-2.000000000000000164e-05,0.000000000000000000e+00,1.000000000000000082e-05,0.000000000000000000e+00,1.000000000000000000e+00,1.300000000000000000e+01
3.885800000000000000e+04,0.000000000000000000e+00,-2.000000000000000164e-05,-4.000000000000000327e-05,-5.000000000000000240e-05,-2.000000000000000164e-05,0.000000000000000000e+00,1.000000000000000082e-05,0.000000000000000000e+00,1.000000000000000000e+00,1.300000000000000000e+01
3.885900000000000000e+04,0.000000000000000000e+00,-2.000000000000000164e-05,-4.000000000000000327e-05,-5.000000000000000240e-05,-2.000000000000000164e-05,0.000000000000000000e+00,1.000000000000000082e-05,0.000000000000000000e+00,1.000000000000000000e+00,1.300000000000000000e+01
3.886000000000000000e+04,0.000000000000000000e+00,-2.000000000000000164e-05,-4.000000000000000327e-05,-5.000000000000000240e-05,-2.000000000000000164e-05,0.000000000000000000e+00,1.000000000000000082e-05,0.000000000000000000e+00,1.000000000000000000e+00,1.300000000000000000e+01
3.886100000000000000e+04,0.000000000000000000e+00,-2.000000000000000164e-05,-4.000000000000000327e-05,-5.000000000000000240e-05,-2.000000000000000164e-05,0.000000000000000000e+00,1.000000000000000082e-05,0.000000000000000000e+00,1.000000000000000000e+00,1.300000000000000000e+01
3.886200000000000000e+04,0.000000000000000000e+00,-2.000000000000000164e-05,-4.000000000000000327e-05,-5.000000000000000240e-05,-2.000000000000000164e-05,0.000000000000000000e+00,1.000000000000000082e-05,0.000000000000000000e+00,1.000000000000000000e+00,1.300000000000000000e+01
3.886300000000000000e+04,-1.000000000000000082e-05,-1.000000000000000082e-05,2.999999999999999737e-05,2.399999999999999790e-04,3.699999999999999947e-04,2.000000000000000164e-05,-2.999999999999999737e-05,-2.000000000000000164e-05,1.000000000000000000e+00,1.300000000000000000e+01
3.886400000000000000e+04,-1.000000000000000082e-05,-1.000000000000000082e-05,2.999999999999999737e-05,2.399999999999999790e-04,3.699999999999999947e-04,2.000000000000000164e-05,-2.999999999999999737e-05,-2.000000000000000164e-05,1.000000000000000000e+00,1.300000000000000000e+01
3.886500000000000000e+04,-1.000000000000000082e-05,-1.000000000000000082e-05,2.999999999999999737e-05,2.399999999999999790e-04,3.699999999999999947e-04,2.000000000000000164e-05,-2.999999999999999737e-05,-2.000000000000000164e-05,1.000000000000000000e+00,1.300000000000000000e+01
3.886600000000000000e+04,-1.000000000000000082e-05,-1.000000000000000082e-05,2.999999999999999737e-05,2.399999999999999790e-04,3.699999999999999947e-04,2.000000000000000164e-05,-2.999999999999999737e-05,-2.000000000000000164e-05,1.000000000000000000e+00,1.300000000000000000e+01
3.886700000000000000e+04,-1.000000000000000082e-05,-1.000000000000000082e-05,2.999999999999999737e-05,2.399999999999999790e-04,3.699999999999999947e-04,2.000000000000000164e-05,-2.999999999999999737e-05,-2.000000000000000164e-05,1.000000000000000000e+00,1.300000000000000000e+01
3.886800000000000000e+04,-1.000000000000000082e-05,-1.000000000000000082e-05,2.999999999999999737e-05,2.399999999999999790e-04,3.699999999999999947e-04,2.000000000000000164e-05,-2.999999999999999737e-05,-2.000000000000000164e-05,1.000000000000000000e+00,1.300000000000000000e+01
3.886900000000000000e+04,-1.000000000000000082e-05,-1.000000000000000082e-05,2.999999999999999737e-05,2.399999999999999790e-04,3.699999999999999947e-04,2.000000000000000164e-05,-2.999999999999999737e-05,-2.000000000000000164e-05,1.000000000000000000e+00,1.300000000000000000e+01
3.887000000000000000e+04,-1.000000000000000082e-05,-1.000000000000000082e-05,2.999999999999999737e-05,2.399999999999999790e-04,3.699999999999999947e-04,2.000000000000000164e-05,-2.999999999999999737e-05,-2.000000000000000164e-05,1.000000000000000000e+00,1.300000000000000000e+01
3.887100000000000000e+04,-1.000000000000000082e-05,-1.000000000000000082e-05,2.999999999999999737e-05,2.399999999999999790e-04,3.699999999999999947e-04,2.000000000000000164e-05,-2.999999999999999737e-05,-2.000000000000000164e-05,1.000000000000000000e+00,1.300000000000000000e+01
3.887200000000000000e+04,-2.000000000000000164e-05,-2.000000000000000164e-05,-2.999999999999999737e-05,5.000000000000000240e-05,1.100000000000000039e-04,-1.000000000000000082e-05,-2.999999999999999737e-05,-1.000000000000000082e-05,1.000000000000000000e+00,1.300000000000000000e+01
3.887300000000000000e+04,-2.000000000000000164e-05,-2.000000000000000164e-05,-2.999999999999999737e-05,5.000000000000000240e-05,1.100000000000000039e-04,-1.000000000000000082e-05,-2.999999999999999737e-05,-1.000000000000000082e-05,1.000000000000000000e+00,1.300000000000000000e+01
3.887400000000000000e+04,-2.000000000000000164e-05,-2.000000000000000164e-05,-2.999999999999999737e-05,5.000000000000000240e-05,1.100000000000000039e-04,-1.000000000000000082e-05,-2.999999999999999737e-05,-1.000000000000000082e-05,1.000000000000000000e+00,1.300000000000000000e+01
3.887500000000000000e+04,-2.000000000000000164e-05,-2.000000000000000164e-05,-2.999999999999999737e-05,5.000000000000000240e-05,1.100000000000000039e-04,-1.000000000000000082e-05,-2.999999999999999737e-05,-1.000000000000000082e-05,1.000000000000000000e+00,1.300000000000000000e+01
3.887600000000000000e+04,-2.000000000000000164e-05,-2.000000000000000164e-05,-2.999999999999999737e-05,5.000000000000000240e-05,1.100000000000000039e-04,-1.000000000000000082e-05,-2.999999999999999737e-05,-1.000000000000000082e-05,1.000000000000000000e+00,1.300000000000000000e+01
3.887700000000000000e+04,-2.000000000000000164e-05,-2.000000000000000164e-05,-2.999999999999999737e-05,5.000000000000000240e-05,1.100000000000000039e-04,-1.000000000000000082e-05,-2.999999999999999737e-05,-1.000000000000000082e-05,1.000000000000000000e+00,1.300000000000000000e+01
3.887800000000000000e+04,-2.000000000000000164e-05,-2.000000000000000164e-05,-2.999999999999999737e-05,5.000000000000000240e-05,1.100000000000000039e-04,-1.000000000000000082e-05,-2.999999999999999737e-05,-1.000000000000000082e-05,1.000000000000000000e+00,1.300000000000000000e+01
3.887900000000000000e+04,-2.000000000000000164e-05,-2.000000000000000164e-05,-2.999999999999999737e-05,5.000000000000000240e-05,1.100000000000000039e-04,-1.000000000000000082e-05,-2.999999999999999737e-05,-1.000000000000000082e-05,1.000000000000000000e+00,1.300000000000000000e+01
3.888000000000000000e+04,-2.000000000000000164e-05,-2.000000000000000164e-05,-2.999999999999999737e-05,5.000000000000000240e-05,1.100000000000000039e-04,-1.000000000000000082e-05,-2.999999999999999737e-05,-1.000000000000000082e-05,1.000000000000000000e+00,1.300000000000000000e+01
3.888100000000000000e+04,-2.000000000000000164e-05,-2.000000000000000164e-05,-2.999999999999999737e-05,5.000000000000000240e-05,1.100000000000000039e-04,-1.000000000000000082e-05,-2.999999999999999737e-05,-1.000000000000000082e-05,1.000000000000000000e+00,1.300000000000000000e+01
3.888200000000000000e+04,-2.000000000000000164e-05,-2.000000000000000164e-05,-2.999999999999999737e-05,5.000000000000000240e-05,1.100000000000000039e-04,-1.000000000000000082e-05,-2.999999999999999737e-05,-1.000000000000000082e-05,1.000000000000000000e+00,1.300000000000000000e+01
3.888300000000000000e+04,-2.000000000000000164e-05,-2.000000000000000164e-05,-2.999999999999999737e-05,5.000000000000000240e-05,1.100000000000000039e-04,-1.000000000000000082e-05,-2.999999999999999737e-05,-1.000000000000000082e-05,1.000000000000000000e+00,1.300000000000000000e+01
3.888400000000000000e+04,-2.000000000000000164e-05,-2.000000000000000164e-05,-2.999999999999999737e-05,5.000000000000000240e-05,1.100000000000000039e-04,-1.000000000000000082e-05,-2.999999999999999737e-05,-1.000000000000000082e-05,1.000000000000000000e+00,1.300000000000000000e+01
3.888500000000000000e+04,-2.000000000000000164e-05,-2.000000000000000164e-05,-2.999999999999999737e-05,5.000000000000000240e-05,1.100000000000000039e-04,-1.000000000000000082e-05,-2.999999999999999737e-05,-1.000000000000000082e-05,1.000000000000000000e+00,1.300000000000000000e+01
3.888600000000000000e+04,-2.000000000000000164e-05,-2.000000000000000164e-05,-2.999999999999999737e-05,5.000000000000000240e-05,1.100000000000000039e-04,-1.000000000000000082e-05,-2.999999999999999737e-05,-1.000000000000000082e-05,1.000000000000000000e+00,1.300000000000000000e+01
3.888900000000000000e+04,-1.000000000000000082e-05,-5.000000000000000240e-05,-9.000000000000000567e-05,-4.000000000000000327e-05,1.000000000000000048e-04,-1.000000000000000082e-05,-1.000000000000000082e-05,-2.000000000000000164e-05,1.000000000000000000e+00,1.300000000000000000e+01
3.889000000000000000e+04,-1.000000000000000082e-05,-5.000000000000000240e-05,-9.000000000000000567e-05,-4.000000000000000327e-05,1.000000000000000048e-04,-1.000000000000000082e-05,-1.000000000000000082e-05,-2.000000000000000164e-05,1.000000000000000000e+00,1.300000000000000000e+01
3.889100000000000000e+04,-1.000000000000000082e-05,-5.000000000000000240e-05,-9.000000000000000567e-05,-4.000000000000000327e-05,1.000000000000000048e-04,-1.000000000000000082e-05,-1.000000000000000082e-05,-2.000000000000000164e-05,1.000000000000000000e+00,1.300000000000000000e+01
3.889200000000000000e+04,-1.000000000000000082e-05,-5.000000000000000240e-05,-9.000000000000000567e-05,-4.000000000000000327e-05,1.000000000000000048e-04,-1.000000000000000082e-05,-1.000000000000000082e-05,-2.000000000000000164e-05,1.000000000000000000e+00,1.300000000000000000e+01
3.889300000000000000e+04,-1.000000000000000082e-05,-5.000000000000000240e-05,-9.000000000000000567e-05,-4.000000000000000327e-05,1.000000000000000048e-04,-1.000000000000000082e-05,-1.000000000000000082e-05,-2.000000000000000164e-05,1.000000000000000000e+00,1.300000000000000000e+01
3.889400000000000000e+04,-1.000000000000000082e-05,-5.000000000000000240e-05,-9.000000000000000567e-05,-4.000000000000000327e-05,1.000000000000000048e-04,-1.000000000000000082e-05,-1.000000000000000082e-05,-2.000000000000000164e-05,1.000000000000000000e+00,1.300000000000000000e+01
3.889500000000000000e+04,-1.000000000000000082e-05,-5.000000000000000240e-05,-9.000000000000000567e-05,-4.000000000000000327e-05,1.000000000000000048e-04,-1.000000000000000082e-05,-1.000000000000000082e-05,-2.000000000000000164e-05,1.000000000000000000e+00,1.300000000000000000e+01
3.889600000000000000e+04,-1.000000000000000082e-05,-5.000000000000000240e-05,-9.000000000000000567e-05,-4.000000000000000327e-05,1.000000000000000048e-04,-1.000000000000000082e-05,-1.000000000000000082e-05,-2.000000000000000164e-05,1.000000000000000000e+00,1.300000000000000000e+01
3.889700000000000000e+04,-1.000000000000000082e-05,-5.000000000000000240e-05,-9.000000000000000567e-05,-4.000000000000000327e-05,1.000000000000000048e-04,-1.000000000000000082e-05,-1.000000000000000082e-05,-2.000000000000000164e-05,1.000000000000000000e+00,1.300000000000000000e+01
3.889800000000000000e+04,-1.000000000000000082e-05,-5.000000000000000240e-05,-9.000000000000000567e-05,-4.000000000000000327e-05,1.000000000000000048e-04,-1.000000000000000082e-05,-1.000000000000000082e-05,-2.000000000000000164e-05,1.000000000000000000e+00,1.300000000000000000e+01
3.889900000000000000e+04,-1.000000000000000082e-05,-5.000000000000000240e-05,-9.000000000000000567e-05,-4.000000000000000327e-05,1.000000000000000048e-04,-1.000000000000000082e-05,-1.000000000000000082e-05,-2.000000000000000164e-05,1.000000000000000000e+00,1.300000000000000000e+01
3.890000000000000000e+04,-1.000000000000000082e-05,-5.000000000000000240e-05,-9.000000000000000567e-05,-4.000000000000000327e-05,1.000000000000000048e-04,-1.000000000000000082e-05,-1.000000000000000082e-05,-2.000000000000000164e-05,1.000000000000000000e+00,1.300000000000000000e+01
3.890100000000000000e+04,-1.000000000000000082e-05,-5.000000000000000240e-05,-9.000000000000000567e-05,-4.000000000000000327e-05,1.000000000000000048e-04,-1.000000000000000082e-05,-1.000000000000000082e-05,-2.000000000000000164e-05,1.000000000000000000e+00,1.300000000000000000e+01
3.890200000000000000e+04,-1.000000000000000082e-05,-5.000000000000000240e-05,-9.000000000000000567e-05,-4.000000000000000327e-05,1.000000000000000048e-04,-1.000000000000000082e-05,-1.000000000000000082e-05,-2.000000000000000164e-05,1.000000000000000000e+00,1.300000000000000000e+01
3.890400000000000000e+04,-1.000000000000000082e-05,-5.000000000000000240e-05,-9.000000000000000567e-05,-4.000000000000000327e-05,1.000000000000000048e-04,-1.000000000000000082e-05,-1.000000000000000082e-05,-2.000000000000000164e-05,1.000000000000000000e+00,1.300000000000000000e+01
3.890500000000000000e+04,-1.000000000000000082e-05,-5.000000000000000240e-05,-9.000000000000000567e-05,-4.000000000000000327e-05,1.000000000000000048e-04,-1.000000000000000082e-05,-1.000000000000000082e-05,-2.000000000000000164e-05,1.000000000000000000e+00,1.300000000000000000e+01
3.890600000000000000e+04,-1.000000000000000082e-05,-5.000000000000000240e-05,-9.000000000000000567e-05,-4.000000000000000327e-05,1.000000000000000048e-04,-1.000000000000000082e-05,-1.000000000000000082e-05,-2.000000000000000164e-05,1.000000000000000000e+00,1.300000000000000000e+01
3.890700000000000000e+04,-1.000000000000000082e-05,-5.000000000000000240e-05,-9.000000000000000567e-05,-4.000000000000000327e-05,1.000000000000000048e-04,-1.000000000000000082e-05,-1.000000000000000082e-05,-2.000000000000000164e-05,1.000000000000000000e+00,1.300000000000000000e+01
3.890800000000000000e+04,-1.000000000000000082e-05,-5.000000000000000240e-05,-9.000000000000000567e-05,-4.000000000000000327e-05,1.000000000000000048e-04,-1.000000000000000082e-05,-1.000000000000000082e-05,-2.000000000000000164e-05,1.000000000000000000e+00,1.300000000000000000e+01
3.890900000000000000e+04,2.000000000000000164e-05,1.000000000000000082e-05,2.999999999999999737e-05,2.999999999999999737e-05,4.000000000000000327e-05,-1.000000000000000082e-05,0.000000000000000000e+00,0.000000000000000000e+00,1.000000000000000000e+00,1.300000000000000000e+01
3.891000000000000000e+04,-2.000000000000000164e-05,-2.000000000000000164e-05,0.000000000000000000e+00,-5.999999999999999474e-05,-1.800000000000000113e-04,-2.000000000000000164e-05,0.000000000000000000e+00,-2.000000000000000164e-05,1.000000000000000000e+00,1.300000000000000000e+01
3.891100000000000000e+04,-2.000000000000000164e-05,1.000000000000000082e-05,5.000000000000000240e-05,1.000000000000000082e-05,-4.000000000000000327e-05,0.000000000000000000e+00,-1.000000000000000082e-05,-1.000000000000000082e-05,1.000000000000000000e+00,1.300000000000000000e+01
3.891200000000000000e+04,-2.000000000000000164e-05,1.000000000000000082e-05,5.000000000000000240e-05,1.000000000000000082e-05,-4.000000000000000327e-05,0.000000000000000000e+00,-1.000000000000000082e-05,-1.000000000000000082e-05,1.000000000000000000e+00,1.300000000000000000e+01
3.891300000000000000e+04,-2.000000000000000164e-05,1.000000000000000082e-05,5.000000000000000240e-05,1.000000000000000082e-05,-4.000000000000000327e-05,0.000000000000000000e+00,-1.000000000000000082e-05,-1.000000000000000082e-05,1.000000000000000000e+00,1.300000000000000000e+01
3.891400000000000000e+04,-2.000000000000000164e-05,1.000000000000000082e-05,5.000000000000000240e-05,1.000000000000000082e-05,-4.000000000000000327e-05,0.000000000000000000e+00,-1.000000000000000082e-05,-1.000000000000000082e-05,1.000000000000000000e+00,1.300000000000000000e+01
3.891500000000000000e+04,-2.000000000000000164e-05,1.000000000000000082e-05,5.000000000000000240e-05,1.000000000000000082e-05,-4.000000000000000327e-05,0.000000000000000000e+00,-1.000000000000000082e-05,-1.000000000000000082e-05,1.000000000000000000e+00,1.300000000000000000e+01
3.891600000000000000e+04,-2.000000000000000164e-05,1.000000000000000082e-05,5.000000000000000240e-05,1.000000000000000082e-05,-4.000000000000000327e-05,0.000000000000000000e+00,-1.000000000000000082e-05,-1.000000000000000082e-05,1.000000000000000000e+00,1.300000000000000000e+01
3.891700000000000000e+04,-2.000000000000000164e-05,1.000000000000000082e-05,5.000000000000000240e-05,1.000000000000000082e-05,-4.000000000000000327e-05,0.000000000000000000e+00,-1.000000000000000082e-05,-1.000000000000000082e-05,1.000000000000000000e+00,1.300000000000000000e+01
3.891800000000000000e+04,-2.000000000000000164e-05,1.000000000000000082e-05,5.000000000000000240e-05,1.000000000000000082e-05,-4.000000000000000327e-05,0.000000000000000000e+00,-1.000000000000000082e-05,-1.000000000000000082e-05,1.000000000000000000e+00,1.300000000000000000e+01
3.891900000000000000e+04,-2.000000000000000164e-05,1.000000000000000082e-05,5.000000000000000240e-05,1.000000000000000082e-05,-4.000000000000000327e-05,0.000000000000000000e+00,-1.000000000000000082e-05,-1.000000000000000082e-05,1.000000000000000000e+00,1.300000000000000000e+01
3.892000000000000000e+04,-2.000000000000000164e-05,1.000000000000000082e-05,5.000000000000000240e-05,1.000000000000000082e-05,-4.000000000000000327e-05,0.000000000000000000e+00,-1.000000000000000082e-05,-1.000000000000000082e-05,1.000000000000000000e+00,1.300000000000000000e+01
3.892100000000000000e+04,-2.000000000000000164e-05,1.000000000000000082e-05,5.000000000000000240e-05,1.000000000000000082e-05,-4.000000000000000327e-05,0.000000000000000000e+00,-1.000000000000000082e-05,-1.000000000000000082e-05,1.000000000000000000e+00,1.300000000000000000e+01
3.892200000000000000e+04,-2.000000000000000164e-05,1.000000000000000082e-05,5.000000000000000240e-05,1.000000000000000082e-05,-4.000000000000000327e-05,0.000000000000000000e+00,-1.000000000000000082e-05,-1.000000000000000082e-05,1.000000000000000000e+00,1.300000000000000000e+01
3.892300000000000000e+04,-2.000000000000000164e-05,-5.999999999999999474e-05,-9.000000000000000567e-05,-2.999999999999999737e-05,-4.000000000000000327e-05,-2.999999999999999737e-05,-1.000000000000000082e-05,-2.000000000000000164e-05,1.000000000000000000e+00,1.300000000000000000e+01
3.892400000000000000e+04,-2.000000000000000164e-05,-5.999999999999999474e-05,-9.000000000000000567e-05,-2.999999999999999737e-05,-4.000000000000000327e-05,-2.999999999999999737e-05,-1.000000000000000082e-05,-2.000000000000000164e-05,1.000000000000000000e+00,1.300000000000000000e+01
3.892500000000000000e+04,-2.000000000000000164e-05,-5.999999999999999474e-05,-9.000000000000000567e-05,-2.999999999999999737e-05,-4.000000000000000327e-05,-2.999999999999999737e-05,-1.000000000000000082e-05,-2.000000000000000164e-05,1.000000000000000000e+00,1.300000000000000000e+01
3.892600000000000000e+04,-2.000000000000000164e-05,-5.999999999999999474e-05,-9.000000000000000567e-05,-2.999999999999999737e-05,-4.000000000000000327e-05,-2.999999999999999737e-05,-1.000000000000000082e-05,-2.000000000000000164e-05,1.000000000000000000e+00,1.300000000000000000e+01
3.892700000000000000e+04,-2.000000000000000164e-05,-5.999999999999999474e-05,-9.000000000000000567e-05,-2.999999999999999737e-05,-4.000000000000000327e-05,-2.999999999999999737e-05,-1.000000000000000082e-05,-2.000000000000000164e-05,1.000000000000000000e+00,1.300000000000000000e+01
3.892800000000000000e+04,-2.000000000000000164e-05,-5.999999999999999474e-05,-9.000000000000000567e-05,-2.999999999999999737e-05,-4.000000000000000327e-05,-2.999999999999999737e-05,-1.000000000000000082e-05,-2.000000000000000164e-05,1.000000000000000000e+00,1.300000000000000000e+01
3.892900000000000000e+04,-2.000000000000000164e-05,-5.999999999999999474e-05,-9.000000000000000567e-05,-2.999999999999999737e-05,-4.000000000000000327e-05,-2.999999999999999737e-05,-1.000000000000000082e-05,-2.000000000000000164e-05,1.000000000000000000e+00,1.300000000000000000e+01
3.893000000000000000e+04,-2.000000000000000164e-05,-5.999999999999999474e-05,-9.000000000000000567e-05,-2.999999999999999737e-05,-4.000000000000000327e-05,-2.999999999999999737e-05,-1.000000000000000082e-05,-2.000000000000000164e-05,1.000000000000000000e+00,1.300000000000000000e+01
3.893100000000000000e+04,-2.000000000000000164e-05,-4.000000000000000327e-05,-5.999999999999999474e-05,-1.100000000000000039e-04,-2.100000000000000087e-04,-1.000000000000000082e-05,-1.000000000000000082e-05,-1.000000000000000082e-05,1.000000000000000000e+00,1.300000000000000000e+01
3.893200000000000000e+04,-1.000000000000000082e-05,1.000000000000000082e-05,2.000000000000000164e-05,-2.000000000000000164e-05,2.000000000000000164e-05,2.000000000000000164e-05,0.000000000000000000e+00,-1.000000000000000082e-05,1.000000000000000000e+00,1.300000000000000000e+01
3.893300000000000000e+04,-1.000000000000000082e-05,1.000000000000000082e-05,2.000000000000000164e-05,-2.000000000000000164e-05,2.000000000000000164e-05,2.000000000000000164e-05,0.000000000000000000e+00,-1.000000000000000082e-05,1.000000000000000000e+00,1.300000000000000000e+01
3.893400000000000000e+04,-1.000000000000000082e-05,1.000000000000000082e-05,2.000000000000000164e-05,-2.000000000000000164e-05,2.000000000000000164e-05,2.000000000000000164e-05,0.000000000000000000e+00,-1.000000000000000082e-05,1.000000000000000000e+00,1.300000000000000000e+01
3.893500000000000000e+04,-1.000000000000000082e-05,1.000000000000000082e-05,2.000000000000000164e-05,-2.000000000000000164e-05,2.000000000000000164e-05,2.000000000000000164e-05,0.000000000000000000e+00,-1.000000000000000082e-05,1.000000000000000000e+00,1.300000000000000000e+01
3.893600000000000000e+04,-1.000000000000000082e-05,1.000000000000000082e-05,2.000000000000000164e-05,-2.000000000000000164e-05,2.000000000000000164e-05,2.000000000000000164e-05,0.000000000000000000e+00,-1.000000000000000082e-05,1.000000000000000000e+00,1.300000000000000000e+01
3.893900000000000000e+04,-1.000000000000000082e-05,1.000000000000000082e-05,2.000000000000000164e-05,-2.000000000000000164e-05,2.000000000000000164e-05,2.000000000000000164e-05,0.000000000000000000e+00,-1.000000000000000082e-05,1.000000000000000000e+00,1.300000000000000000e+01
3.894000000000000000e+04,-1.000000000000000082e-05,1.000000000000000082e-05,2.000000000000000164e-05,-2.000000000000000164e-05,2.000000000000000164e-05,2.000000000000000164e-05,0.000000000000000000e+00,-1.000000000000000082e-05,1.000000000000000000e+00,1.300000000000000000e+01
3.894100000000000000e+04,-1.000000000000000082e-05,1.000000000000000082e-05,2.000000000000000164e-05,-2.000000000000000164e-05,2.000000000000000164e-05,2.000000000000000164e-05,0.000000000000000000e+00,-1.000000000000000082e-05,1.000000000000000000e+00,1.300000000000000000e+01
3.894200000000000000e+04,-1.000000000000000082e-05,1.000000000000000082e-05,2.000000000000000164e-05,-2.000000000000000164e-05,2.000000000000000164e-05,2.000000000000000164e-05,0.000000000000000000e+00,-1.000000000000000082e-05,1.000000000000000000e+00,1.300000000000000000e+01
3.894300000000000000e+04,-1.000000000000000082e-05,1.000000000000000082e-05,2.000000000000000164e-05,-2.000000000000000164e-05,2.000000000000000164e-05,2.000000000000000164e-05,0.000000000000000000e+00,-1.000000000000000082e-05,1.000000000000000000e+00,1.300000000000000000e+01
3.894400000000000000e+04,-1.000000000000000082e-05,1.000000000000000082e-05,2.000000000000000164e-05,-2.000000000000000164e-05,2.000000000000000164e-05,2.000000000000000164e-05,0.000000000000000000e+00,-1.000000000000000082e-05,1.000000000000000000e+00,1.300000000000000000e+01
3.894500000000000000e+04,-1.000000000000000082e-05,1.000000000000000082e-05,2.000000000000000164e-05,-2.000000000000000164e-05,2.000000000000000164e-05,2.000000000000000164e-05,0.000000000000000000e+00,-1.000000000000000082e-05,1.000000000000000000e+00,1.300000000000000000e+01
3.894600000000000000e+04,-1.000000000000000082e-05,1.000000000000000082e-05,2.000000000000000164e-05,-2.000000000000000164e-05,2.000000000000000164e-05,2.000000000000000164e-05,0.000000000000000000e+00,-1.000000000000000082e-05,1.000000000000000000e+00,1.300000000000000000e+01
3.894700000000000000e+04,-1.000000000000000082e-05,2.000000000000000164e-05,2.000000000000000164e-05,2.000000000000000164e-05,-8.000000000000000654e-05,-2.000000000000000164e-05,-2.000000000000000164e-05,0.000000000000000000e+00,1.000000000000000000e+00,1.300000000000000000e+01
3.894800000000000000e+04,-1.000000000000000082e-05,2.000000000000000164e-05,2.000000000000000164e-05,2.000000000000000164e-05,-8.000000000000000654e-05,-2.000000000000000164e-05,-2.000000000000000164e-05,0.000000000000000000e+00,1.000000000000000000e+00,1.300000000000000000e+01
3.894900000000000000e+04,2.000000000000000164e-05,-2.999999999999999737e-05,-5.000000000000000240e-05,-4.000000000000000327e-05,-1.499999999999999869e-04,2.000000000000000164e-05,-2.000000000000000164e-05,0.000000000000000000e+00,1.000000000000000000e+00,1.300000000000000000e+01
3.895000000000000000e+04,2.000000000000000164e-05,-2.999999999999999737e-05,-5.000000000000000240e-05,-4.000000000000000327e-05,-1.499999999999999869e-04,2.000000000000000164e-05,-2.000000000000000164e-05,0.000000000000000000e+00,1.000000000000000000e+00,1.300000000000000000e+01
3.895100000000000000e+04,2.000000000000000164e-05,-2.999999999999999737e-05,-5.000000000000000240e-05,-4.000000000000000327e-05,-1.499999999999999869e-04,2.000000000000000164e-05,-2.000000000000000164e-05,0.000000000000000000e+00,1.000000000000000000e+00,1.300000000000000000e+01
3.895200000000000000e+04,2.000000000000000164e-05,-2.999999999999999737e-05,-5.000000000000000240e-05,-4.000000000000000327e-05,-1.499999999999999869e-04,2.000000000000000164e-05,-2.000000000000000164e-05,0.000000000000000000e+00,1.000000000000000000e+00,1.300000000000000000e+01
3.895300000000000000e+04,2.000000000000000164e-05,-2.999999999999999737e-05,-5.000000000000000240e-05,-4.000000000000000327e-05,-1.499999999999999869e-04,2.000000000000000164e-05,-2.000000000000000164e-05,0.000000000000000000e+00,1.000000000000000000e+00,1.300000000000000000e+01
3.895400000000000000e+04,2.000000000000000164e-05,-2.999999999999999737e-05,-5.000000000000000240e-05,-4.000000000000000327e-05,-1.499999999999999869e-04,2.000000000000000164e-05,-2.000000000000000164e-05,0.000000000000000000e+00,1.000000000000000000e+00,1.300000000000000000e+01
3.895500000000000000e+04,2.000000000000000164e-05,-2.999999999999999737e-05,-5.000000000000000240e-05,-4.000000000000000327e-05,-1.499999999999999869e-04,2.000000000000000164e-05,-2.000000000000000164e-05,0.000000000000000000e+00,1.000000000000000000e+00,1.300000000000000000e+01
3.895600000000000000e+04,2.000000000000000164e-05,-2.999999999999999737e-05,-5.000000000000000240e-05,-4.000000000000000327e-05,-1.499999999999999869e-04,2.000000000000000164e-05,-2.000000000000000164e-05,0.000000000000000000e+00,1.000000000000000000e+00,1.300000000000000000e+01
3.895700000000000000e+04,2.000000000000000164e-05,-2.999999999999999737e-05,-5.000000000000000240e-05,-4.000000000000000327e-05,-1.499999999999999869e-04,2.000000000000000164e-05,-2.000000000000000164e-05,0.000000000000000000e+00,1.000000000000000000e+00,1.300000000000000000e+01
3.895800000000000000e+04,2.000000000000000164e-05,-2.999999999999999737e-05,-5.000000000000000240e-05,-4.000000000000000327e-05,-1.499999999999999869e-04,2.000000000000000164e-05,-2.000000000000000164e-05,0.000000000000000000e+00,1.000000000000000000e+00,1.300000000000000000e+01
3.895900000000000000e+04,2.000000000000000164e-05,-2.999999999999999737e-05,-5.000000000000000240e-05,-4.000000000000000327e-05,-1.499999999999999869e-04,2.000000000000000164e-05,-2.000000000000000164e-05,0.000000000000000000e+00,1.000000000000000000e+00,1.300000000000000000e+01
3.896000000000000000e+04,2.000000000000000164e-05,-2.999999999999999737e-05,-5.000000000000000240e-05,-4.000000000000000327e-05,-1.499999999999999869e-04,2.000000000000000164e-05,-2.000000000000000164e-05,0.000000000000000000e+00,1.000000000000000000e+00,1.300000000000000000e+01
3.896100000000000000e+04,2.000000000000000164e-05,-2.999999999999999737e-05,-5.000000000000000240e-05,-4.000000000000000327e-05,-1.499999999999999869e-04,2.000000000000000164e-05,-2.000000000000000164e-05,0.000000000000000000e+00,1.000000000000000000e+00,1.300000000000000000e+01
3.896200000000000000e+04,2.000000000000000164e-05,-2.999999999999999737e-05,-5.000000000000000240e-05,-4.000000000000000327e-05,-1.499999999999999869e-04,2.000000000000000164e-05,-2.000000000000000164e-05,0.000000000000000000e+00,1.000000000000000000e+00,1.300000000000000000e+01
3.896300000000000000e+04,2.000000000000000164e-05,-2.999999999999999737e-05,-5.000000000000000240e-05,-4.000000000000000327e-05,-1.499999999999999869e-04,2.000000000000000164e-05,-2.000000000000000164e-05,0.000000000000000000e+00,1.000000000000000000e+00,1.300000000000000000e+01
3.896400000000000000e+04,2.000000000000000164e-05,-2.999999999999999737e-05,-5.000000000000000240e-05,-4.000000000000000327e-05,-1.499999999999999869e-04,2.000000000000000164e-05,-2.000000000000000164e-05,0.000000000000000000e+00,1.000000000000000000e+00,1.300000000000000000e+01
3.896500000000000000e+04,2.000000000000000164e-05,-2.999999999999999737e-05,-5.000000000000000240e-05,-4.000000000000000327e-05,-1.499999999999999869e-04,2.000000000000000164e-05,-2.000000000000000164e-05,0.000000000000000000e+00,1.000000000000000000e+00,1.300000000000000000e+01
3.896600000000000000e+04,2.000000000000000164e-05,-2.999999999999999737e-05,-5.000000000000000240e-05,-4.000000000000000327e-05,-1.499999999999999869e-04,2.000000000000000164e-05,-2.000000000000000164e-05,0.000000000000000000e+00,1.000000000000000000e+00,1.300000000000000000e+01
3.896700000000000000e+04,2.000000000000000164e-05,-2.999999999999999737e-05,-5.000000000000000240e-05,-4.000000000000000327e-05,-1.499999999999999869e-04,2.000000000000000164e-05,-2.000000000000000164e-05,0.000000000000000000e+00,1.000000000000000000e+00,1.300000000000000000e+01
3.896800000000000000e+04,2.000000000000000164e-05,-2.999999999999999737e-05,-5.000000000000000240e-05,-4.000000000000000327e-05,-1.499999999999999869e-04,2.000000000000000164e-05,-2.000000000000000164e-05,0.000000000000000000e+00,1.000000000000000000e+00,1.300000000000000000e+01
3.896900000000000000e+04,-2.000000000000000164e-05,1.000000000000000082e-05,-2.999999999999999737e-05,-4.000000000000000327e-05,0.000000000000000000e+00,-1.000000000000000082e-05,-1.000000000000000082e-05,0.000000000000000000e+00,1.000000000000000000e+00,1.300000000000000000e+01
3.897000000000000000e+04,0.000000000000000000e+00,0.000000000000000000e+00,0.000000000000000000e+00,4.000000000000000327e-05,9.000000000000000567e-05,-1.000000000000000082e-05,0.000000000000000000e+00,-1.000000000000000082e-05,1.000000000000000000e+00,1.300000000000000000e+01
3.897100000000000000e+04,-1.000000000000000082e-05,-2.000000000000000164e-05,0.000000000000000000e+00,2.999999999999999737e-05,-2.999999999999999737e-05,-5.000000000000000240e-05,-2.000000000000000164e-05,-2.000000000000000164e-05,1.000000000000000000e+00,1.300000000000000000e+01
3.897200000000000000e+04,-1.000000000000000082e-05,-2.000000000000000164e-05,0.000000000000000000e+00,2.999999999999999737e-05,-2.999999999999999737e-05,-5.000000000000000240e-05,-2.000000000000000164e-05,-2.000000000000000164e-05,1.000000000000000000e+00,1.300000000000000000e+01
3.897300000000000000e+04,-1.000000000000000082e-05,-2.000000000000000164e-05,0.000000000000000000e+00,2.999999999999999737e-05,-2.999999999999999737e-05,-5.000000000000000240e-05,-2.000000000000000164e-05,-2.000000000000000164e-05,1.000000000000000000e+00,1.300000000000000000e+01
3.897400000000000000e+04,-1.000000000000000082e-05,-2.000000000000000164e-05,0.000000000000000000e+00,2.999999999999999737e-05,-2.999999999999999737e-05,-5.000000000000000240e-05,-2.000000000000000164e-05,-2.000000000000000164e-05,1.000000000000000000e+00,1.300000000000000000e+01
3.897500000000000000e+04,-1.000000000000000082e-05,-2.000000000000000164e-05,0.000000000000000000e+00,2.999999999999999737e-05,-2.999999999999999737e-05,-5.000000000000000240e-05,-2.000000000000000164e-05,-2.000000000000000164e-05,1.000000000000000000e+00,1.300000000000000000e+01
3.897600000000000000e+04,-1.000000000000000082e-05,-2.000000000000000164e-05,0.000000000000000000e+00,2.999999999999999737e-05,-2.999999999999999737e-05,-5.000000000000000240e-05,-2.000000000000000164e-05,-2.000000000000000164e-05,1.000000000000000000e+00,1.300000000000000000e+01
3.897700000000000000e+04,-1.000000000000000082e-05,-2.000000000000000164e-05,0.000000000000000000e+00,2.999999999999999737e-05,-2.999999999999999737e-05,-5.000000000000000240e-05,-2.000000000000000164e-05,-2.000000000000000164e-05,1.000000000000000000e+00,1.300000000000000000e+01
3.897800000000000000e+04,-1.000000000000000082e-05,-2.000000000000000164e-05,0.000000000000000000e+00,2.999999999999999737e-05,-2.999999999999999737e-05,-5.000000000000000240e-05,-2.000000000000000164e-05,-2.000000000000000164e-05,1.000000000000000000e+00,1.300000000000000000e+01
3.897900000000000000e+04,-1.000000000000000082e-05,-2.000000000000000164e-05,0.000000000000000000e+00,2.999999999999999737e-05,-2.999999999999999737e-05,-5.000000000000000240e-05,-2.000000000000000164e-05,-2.000000000000000164e-05,1.000000000000000000e+00,1.300000000000000000e+01
3.898000000000000000e+04,-1.000000000000000082e-05,-2.000000000000000164e-05,0.000000000000000000e+00,2.999999999999999737e-05,-2.999999999999999737e-05,-5.000000000000000240e-05,-2.000000000000000164e-05,-2.000000000000000164e-05,1.000000000000000000e+00,1.300000000000000000e+01
3.898100000000000000e+04,-1.000000000000000082e-05,-2.000000000000000164e-05,0.000000000000000000e+00,2.999999999999999737e-05,-2.999999999999999737e-05,-5.000000000000000240e-05,-2.000000000000000164e-05,-2.000000000000000164e-05,1.000000000000000000e+00,1.300000000000000000e+01
3.898200000000000000e+04,-1.000000000000000082e-05,-2.000000000000000164e-05,0.000000000000000000e+00,2.999999999999999737e-05,-2.999999999999999737e-05,-5.000000000000000240e-05,-2.000000000000000164e-05,-2.000000000000000164e-05,1.000000000000000000e+00,1.300000000000000000e+01
3.898300000000000000e+04,-1.000000000000000082e-05,-2.000000000000000164e-05,0.000000000000000000e+00,1.000000000000000082e-05,-2.999999999999999737e-05,-1.000000000000000082e-05,-2.000000000000000164e-05,-1.000000000000000082e-05,1.000000000000000000e+00,1.300000000000000000e+01
3.898400000000000000e+04,-1.000000000000000082e-05,-2.000000000000000164e-05,0.000000000000000000e+00,1.000000000000000082e-05,-2.999999999999999737e-05,-1.000000000000000082e-05,-2.000000000000000164e-05,-1.000000000000000082e-05,1.000000000000000000e+00,1.300000000000000000e+01
3.898500000000000000e+04,-1.000000000000000082e-05,-2.000000000000000164e-05,0.000000000000000000e+00,1.000000000000000082e-05,-2.999999999999999737e-05,-1.000000000000000082e-05,-2.000000000000000164e-05,-1.000000000000000082e-05,1.000000000000000000e+00,1.300000000000000000e+01
3.898600000000000000e+04,-1.000000000000000082e-05,-2.000000000000000164e-05,0.000000000000000000e+00,1.000000000000000082e-05,-2.999999999999999737e-05,-1.000000000000000082e-05,-2.000000000000000164e-05,-1.000000000000000082e-05,1.000000000000000000e+00,1.300000000000000000e+01
3.898800000000000000e+04,-1.000000000000000082e-05,-2.000000000000000164e-05,0.000000000000000000e+00,1.000000000000000082e-05,-2.999999999999999737e-05,-1.000000000000000082e-05,-2.000000000000000164e-05,-1.000000000000000082e-05,1.000000000000000000e+00,1.300000000000000000e+01
3.898900000000000000e+04,-1.000000000000000082e-05,-2.000000000000000164e-05,0.000000000000000000e+00,1.000000000000000082e-05,-2.999999999999999737e-05,-1.000000000000000082e-05,-2.000000000000000164e-05,-1.000000000000000082e-05,1.000000000000000000e+00,1.300000000000000000e+01
3.899000000000000000e+04,-1.000000000000000082e-05,-2.000000000000000164e-05,0.000000000000000000e+00,1.000000000000000082e-05,-2.999999999999999737e-05,-1.000000000000000082e-05,-2.000000000000000164e-05,-1.000000000000000082e-05,1.000000000000000000e+00,1.300000000000000000e+01
3.899100000000000000e+04,-1.000000000000000082e-05,-2.000000000000000164e-05,0.000000000000000000e+00,1.000000000000000082e-05,-2.999999999999999737e-05,-1.000000000000000082e-05,-2.000000000000000164e-05,-1.000000000000000082e-05,1.000000000000000000e+00,1.300000000000000000e+01
3.899200000000000000e+04,1.000000000000000082e-05,0.000000000000000000e+00,1.000000000000000082e-05,1.000000000000000082e-05,1.000000000000000082e-05,-1.000000000000000082e-05,-2.000000000000000164e-05,-1.000000000000000082e-05,1.000000000000000000e+00,1.300000000000000000e+01
3.899300000000000000e+04,1.000000000000000082e-05,0.000000000000000000e+00,1.000000000000000082e-05,1.000000000000000082e-05,1.000000000000000082e-05,-1.000000000000000082e-05,-2.000000000000000164e-05,-1.000000000000000082e-05,1.000000000000000000e+00,1.300000000000000000e+01
3.899400000000000000e+04,1.000000000000000082e-05,0.000000000000000000e+00,1.000000000000000082e-05,1.000000000000000082e-05,1.000000000000000082e-05,-1.000000000000000082e-05,-2.000000000000000164e-05,-1.000000000000000082e-05,1.000000000000000000e+00,1.300000000000000000e+01
3.899500000000000000e+04,1.000000000000000082e-05,0.000000000000000000e+00,1.000000000000000082e-05,1.000000000000000082e-05,1.000000000000000082e-05,-1.000000000000000082e-05,-2.000000000000000164e-05,-1.000000000000000082e-05,1.000000000000000000e+00,1.300000000000000000e+01
3.899600000000000000e+04,1.000000000000000082e-05,0.000000000000000000e+00,1.000000000000000082e-05,1.000000000000000082e-05,1.000000000000000082e-05,-1.000000000000000082e-05,-2.000000000000000164e-05,-1.000000000000000082e-05,1.000000000000000000e+00,1.300000000000000000e+01
3.899700000000000000e+04,1.000000000000000082e-05,0.000000000000000000e+00,1.000000000000000082e-05,1.000000000000000082e-05,1.000000000000000082e-05,-1.000000000000000082e-05,-2.000000000000000164e-05,-1.000000000000000082e-05,1.000000000000000000e+00,1.300000000000000000e+01
3.899800000000000000e+04,1.000000000000000082e-05,0.000000000000000000e+00,1.000000000000000082e-05,1.000000000000000082e-05,1.000000000000000082e-05,-1.000000000000000082e-05,-2.000000000000000164e-05,-1.000000000000000082e-05,1.000000000000000000e+00,1.300000000000000000e+01
3.899900000000000000e+04,1.000000000000000082e-05,0.000000000000000000e+00,1.000000000000000082e-05,1.000000000000000082e-05,1.000000000000000082e-05,-1.000000000000000082e-05,-2.000000000000000164e-05,-1.000000000000000082e-05,1.000000000000000000e+00,1.300000000000000000e+01
3.900000000000000000e+04,1.000000000000000082e-05,0.000000000000000000e+00,1.000000000000000082e-05,1.000000000000000082e-05,1.000000000000000082e-05,-1.000000000000000082e-05,-2.000000000000000164e-05,-1.000000000000000082e-05,1.000000000000000000e+00,1.300000000000000000e+01
3.900100000000000000e+04,1.000000000000000082e-05,0.000000000000000000e+00,1.000000000000000082e-05,1.000000000000000082e-05,1.000000000000000082e-05,-1.000000000000000082e-05,-2.000000000000000164e-05,-1.000000000000000082e-05,1.000000000000000000e+00,1.300000000000000000e+01
3.900200000000000000e+04,1.000000000000000082e-05,0.000000000000000000e+00,1.000000000000000082e-05,1.000000000000000082e-05,1.000000000000000082e-05,-1.000000000000000082e-05,-2.000000000000000164e-05,-1.000000000000000082e-05,1.000000000000000000e+00,1.300000000000000000e+01
3.900400000000000000e+04,1.000000000000000082e-05,0.000000000000000000e+00,1.000000000000000082e-05,1.000000000000000082e-05,1.000000000000000082e-05,-1.000000000000000082e-05,-2.000000000000000164e-05,-1.000000000000000082e-05,1.000000000000000000e+00,1.300000000000000000e+01
3.900500000000000000e+04,1.000000000000000082e-05,0.000000000000000000e+00,1.000000000000000082e-05,1.000000000000000082e-05,1.000000000000000082e-05,-1.000000000000000082e-05,-2.000000000000000164e-05,-1.000000000000000082e-05,1.000000000000000000e+00,1.300000000000000000e+01
3.900600000000000000e+04,1.000000000000000082e-05,0.000000000000000000e+00,1.000000000000000082e-05,1.000000000000000082e-05,1.000000000000000082e-05,-1.000000000000000082e-05,-2.000000000000000164e-05,-1.000000000000000082e-05,1.000000000000000000e+00,1.300000000000000000e+01
3.900700000000000000e+04,-2.999999999999999737e-05,-2.000000000000000164e-05,1.000000000000000082e-05,2.000000000000000164e-05,-4.000000000000000327e-05,-2.000000000000000164e-05,0.000000000000000000e+00,-2.000000000000000164e-05,1.000000000000000000e+00,1.300000000000000000e+01
3.900800000000000000e+04,-1.000000000000000082e-05,-2.999999999999999737e-05,-2.000000000000000164e-05,-1.100000000000000039e-04,-2.999999999999999737e-05,0.000000000000000000e+00,-1.000000000000000082e-05,-1.000000000000000082e-05,1.000000000000000000e+00,1.300000000000000000e+01
3.900900000000000000e+04,0.000000000000000000e+00,2.000000000000000164e-05,5.000000000000000240e-05,2.000000000000000164e-05,-5.999999999999999474e-05,-2.999999999999999737e-05,0.000000000000000000e+00,-2.000000000000000164e-05,1.000000000000000000e+00,1.300000000000000000e+01
3.901000000000000000e+04,0.000000000000000000e+00,2.000000000000000164e-05,5.000000000000000240e-05,2.000000000000000164e-05,-5.999999999999999474e-05,-2.999999999999999737e-05,0.000000000000000000e+00,-2.000000000000000164e-05,1.000000000000000000e+00,1.300000000000000000e+01
3.901100000000000000e+04,0.000000000000000000e+00,2.000000000000000164e-05,5.000000000000000240e-05,2.000000000000000164e-05,-5.999999999999999474e-05,-2.999999999999999737e-05,0.000000000000000000e+00,-2.000000000000000164e-05,1.000000000000000000e+00,1.300000000000000000e+01
3.901200000000000000e+04,0.000000000000000000e+00,2.000000000000000164e-05,5.000000000000000240e-05,2.000000000000000164e-05,-5.999999999999999474e-05,-2.999999999999999737e-05,0.000000000000000000e+00,-2.000000000000000164e-05,1.000000000000000000e+00,1.300000000000000000e+01
3.901300000000000000e+04,0.000000000000000000e+00,2.000000000000000164e-05,5.000000000000000240e-05,2.000000000000000164e-05,-5.999999999999999474e-05,-2.999999999999999737e-05,0.000000000000000000e+00,-2.000000000000000164e-05,1.000000000000000000e+00,1.300000000000000000e+01
3.901400000000000000e+04,0.000000000000000000e+00,2.000000000000000164e-05,5.000000000000000240e-05,2.000000000000000164e-05,-5.999999999999999474e-05,-2.999999999999999737e-05,0.000000000000000000e+00,-2.000000000000000164e-05,1.000000000000000000e+00,1.300000000000000000e+01
3.901500000000000000e+04,0.000000000000000000e+00,2.000000000000000164e-05,5.000000000000000240e-05,2.000000000000000164e-05,-5.999999999999999474e-05,-2.999999999999999737e-05,0.000000000000000000e+00,-2.000000000000000164e-05,1.000000000000000000e+00,1.300000000000000000e+01
3.901600000000000000e+04,0.000000000000000000e+00,2.000000000000000164e-05,5.000000000000000240e-05,2.000000000000000164e-05,-5.999999999999999474e-05,-2.999999999999999737e-05,0.000000000000000000e+00,-2.000000000000000164e-05,1.000000000000000000e+00,1.300000000000000000e+01
3.901700000000000000e+04,0.000000000000000000e+00,2.000000000000000164e-05,5.000000000000000240e-05,2.000000000000000164e-05,-5.999999999999999474e-05,-2.999999999999999737e-05,0.000000000000000000e+00,-2.000000000000000164e-05,1.000000000000000000e+00,1.300000000000000000e+01
3.901800000000000000e+04,0.000000000000000000e+00,2.000000000000000164e-05,5.000000000000000240e-05,2.000000000000000164e-05,-5.999999999999999474e-05,-2.999999999999999737e-05,0.000000000000000000e+00,-2.000000000000000164e-05,1.000000000000000000e+00,1.300000000000000000e+01
3.901900000000000000e+04,0.000000000000000000e+00,2.000000000000000164e-05,5.000000000000000240e-05,2.000000000000000164e-05,-5.999999999999999474e-05,-2.999999999999999737e-05,0.000000000000000000e+00,-2.000000000000000164e-05,1.000000000000000000e+00,1.300000000000000000e+01
3.902000000000000000e+04,0.000000000000000000e+00,2.000000000000000164e-05,5.000000000000000240e-05,2.000000000000000164e-05,-5.999999999999999474e-05,-2.999999999999999737e-05,0.000000000000000000e+00,-2.000000000000000164e-05,1.000000000000000000e+00,1.300000000000000000e+01
3.902100000000000000e+04,0.000000000000000000e+00,2.000000000000000164e-05,5.000000000000000240e-05,2.000000000000000164e-05,-5.999999999999999474e-05,-2.999999999999999737e-05,0.000000000000000000e+00,-2.000000000000000164e-05,1.000000000000000000e+00,1.300000000000000000e+01
3.902200000000000000e+04,0.000000000000000000e+00,2.000000000000000164e-05,5.000000000000000240e-05,2.000000000000000164e-05,-5.999999999999999474e-05,-2.999999999999999737e-05,0.000000000000000000e+00,-2.000000000000000164e-05,1.000000000000000000e+00,1.300000000000000000e+01
3.902300000000000000e+04,0.000000000000000000e+00,2.000000000000000164e-05,5.000000000000000240e-05,2.000000000000000164e-05,-5.999999999999999474e-05,-2.999999999999999737e-05,0.000000000000000000e+00,-2.000000000000000164e-05,1.000000000000000000e+00,1.300000000000000000e+01
3.902400000000000000e+04,0.000000000000000000e+00,2.000000000000000164e-05,5.000000000000000240e-05,2.000000000000000164e-05,-5.999999999999999474e-05,-2.999999999999999737e-05,0.000000000000000000e+00,-2.000000000000000164e-05,1.000000000000000000e+00,1.300000000000000000e+01
3.902500000000000000e+04,0.000000000000000000e+00,2.000000000000000164e-05,5.000000000000000240e-05,2.000000000000000164e-05,-5.999999999999999474e-05,-2.999999999999999737e-05,0.000000000000000000e+00,-2.000000000000000164e-05,1.000000000000000000e+00,1.300000000000000000e+01
3.902600000000000000e+04,0.000000000000000000e+00,2.000000000000000164e-05,5.000000000000000240e-05,2.000000000000000164e-05,-5.999999999999999474e-05,-2.999999999999999737e-05,0.000000000000000000e+00,-2.000000000000000164e-05,1.000000000000000000e+00,1.300000000000000000e+01
3.902700000000000000e+04,0.000000000000000000e+00,2.000000000000000164e-05,5.000000000000000240e-05,2.000000000000000164e-05,-5.999999999999999474e-05,-2.999999999999999737e-05,0.000000000000000000e+00,-2.000000000000000164e-05,1.000000000000000000e+00,1.300000000000000000e+01
3.902800000000000000e+04,0.000000000000000000e+00,2.000000000000000164e-05,5.000000000000000240e-05,2.000000000000000164e-05,-5.999999999999999474e-05,-2.999999999999999737e-05,0.000000000000000000e+00,-2.000000000000000164e-05,1.000000000000000000e+00,1.300000000000000000e+01
3.902900000000000000e+04,0.000000000000000000e+00,2.000000000000000164e-05,5.000000000000000240e-05,2.000000000000000164e-05,-5.999999999999999474e-05,-2.999999999999999737e-05,0.000000000000000000e+00,-2.000000000000000164e-05,1.000000000000000000e+00,1.300000000000000000e+01
3.903000000000000000e+04,0.000000000000000000e+00,1.000000000000000082e-05,0.000000000000000000e+00,0.000000000000000000e+00,1.000000000000000082e-05,0.000000000000000000e+00,-1.000000000000000082e-05,-1.000000000000000082e-05,1.000000000000000000e+00,1.300000000000000000e+01
3.903100000000000000e+04,-2.000000000000000164e-05,-2.000000000000000164e-05,-6.999999999999999387e-05,-1.800000000000000113e-04,-5.000000000000000240e-05,4.000000000000000327e-05,-1.000000000000000082e-05,0.000000000000000000e+00,1.000000000000000000e+00,1.300000000000000000e+01
3.903200000000000000e+04,-2.000000000000000164e-05,-2.000000000000000164e-05,-6.999999999999999387e-05,-1.800000000000000113e-04,-5.000000000000000240e-05,4.000000000000000327e-05,-1.000000000000000082e-05,0.000000000000000000e+00,1.000000000000000000e+00,1.300000000000000000e+01
3.903300000000000000e+04,-2.000000000000000164e-05,-2.000000000000000164e-05,-6.999999999999999387e-05,-1.800000000000000113e-04,-5.000000000000000240e-05,4.000000000000000327e-05,-1.000000000000000082e-05,0.000000000000000000e+00,1.000000000000000000e+00,1.300000000000000000e+01
3.903400000000000000e+04,-2.000000000000000164e-05,-2.000000000000000164e-05,-6.999999999999999387e-05,-1.800000000000000113e-04,-5.000000000000000240e-05,4.000000000000000327e-05,-1.000000000000000082e-05,0.000000000000000000e+00,1.000000000000000000e+00,1.300000000000000000e+01
3.903500000000000000e+04,-2.000000000000000164e-05,-2.000000000000000164e-05,-6.999999999999999387e-05,-1.800000000000000113e-04,-5.000000000000000240e-05,4.000000000000000327e-05,-1.000000000000000082e-05,0.000000000000000000e+00,1.000000000000000000e+00,1.300000000000000000e+01
3.903600000000000000e+04,-2.000000000000000164e-05,-2.000000000000000164e-05,-6.999999999999999387e-05,-1.800000000000000113e-04,-5.000000000000000240e-05,4.000000000000000327e-05,-1.000000000000000082e-05,0.000000000000000000e+00,1.000000000000000000e+00,1.300000000000000000e+01
3.903800000000000000e+04,-2.000000000000000164e-05,-2.000000000000000164e-05,-6.999999999999999387e-05,-1.800000000000000113e-04,-5.000000000000000240e-05,4.000000000000000327e-05,-1.000000000000000082e-05,0.000000000000000000e+00,1.000000000000000000e+00,1.300000000000000000e+01
3.903900000000000000e+04,-2.000000000000000164e-05,-2.000000000000000164e-05,-6.999999999999999387e-05,-1.800000000000000113e-04,-5.000000000000000240e-05,4.000000000000000327e-05,-1.000000000000000082e-05,0.000000000000000000e+00,1.000000000000000000e+00,1.300000000000000000e+01
3.904000000000000000e+04,-2.000000000000000164e-05,-2.000000000000000164e-05,-6.999999999999999387e-05,-1.800000000000000113e-04,-5.000000000000000240e-05,4.000000000000000327e-05,-1.000000000000000082e-05,0.000000000000000000e+00,1.000000000000000000e+00,1.300000000000000000e+01
3.904100000000000000e+04,-2.000000000000000164e-05,-2.000000000000000164e-05,-6.999999999999999387e-05,-1.800000000000000113e-04,-5.000000000000000240e-05,4.000000000000000327e-05,-1.000000000000000082e-05,0.000000000000000000e+00,1.000000000000000000e+00,1.300000000000000000e+01
3.904200000000000000e+04,-2.000000000000000164e-05,-2.000000000000000164e-05,-6.999999999999999387e-05,-1.800000000000000113e-04,-5.000000000000000240e-05,4.000000000000000327e-05,-1.000000000000000082e-05,0.000000000000000000e+00,1.000000000000000000e+00,1.300000000000000000e+01
3.904300000000000000e+04,-2.000000000000000164e-05,-2.000000000000000164e-05,-6.999999999999999387e-05,-1.800000000000000113e-04,-5.000000000000000240e-05,4.000000000000000327e-05,-1.000000000000000082e-05,0.000000000000000000e+00,1.000000000000000000e+00,1.300000000000000000e+01
3.904400000000000000e+04,-2.000000000000000164e-05,-2.000000000000000164e-05,-6.999999999999999387e-05,-1.800000000000000113e-04,-5.000000000000000240e-05,4.000000000000000327e-05,-1.000000000000000082e-05,0.000000000000000000e+00,1.000000000000000000e+00,1.300000000000000000e+01
3.904500000000000000e+04,-2.000000000000000164e-05,-2.000000000000000164e-05,-6.999999999999999387e-05,-1.800000000000000113e-04,-5.000000000000000240e-05,4.000000000000000327e-05,-1.000000000000000082e-05,0.000000000000000000e+00,1.000000000000000000e+00,1.300000000000000000e+01
3.904600000000000000e+04,-2.000000000000000164e-05,-2.000000000000000164e-05,-6.999999999999999387e-05,-1.800000000000000113e-04,-5.000000000000000240e-05,4.000000000000000327e-05,-1.000000000000000082e-05,0.000000000000000000e+00,1.000000000000000000e+00,1.300000000000000000e+01
3.904700000000000000e+04,-2.000000000000000164e-05,-2.000000000000000164e-05,-6.999999999999999387e-05,-1.800000000000000113e-04,-5.000000000000000240e-05,4.000000000000000327e-05,-1.000000000000000082e-05,0.000000000000000000e+00,1.000000000000000000e+00,1.300000000000000000e+01
3.904800000000000000e+04,-2.000000000000000164e-05,-2.000000000000000164e-05,-6.999999999999999387e-05,-1.800000000000000113e-04,-5.000000000000000240e-05,4.000000000000000327e-05,-1.000000000000000082e-05,0.000000000000000000e+00,1.000000000000000000e+00,1.300000000000000000e+01
3.904900000000000000e+04,-2.000000000000000164e-05,-2.000000000000000164e-05,-6.999999999999999387e-05,-1.800000000000000113e-04,-5.000000000000000240e-05,4.000000000000000327e-05,-1.000000000000000082e-05,0.000000000000000000e+00,1.000000000000000000e+00,1.300000000000000000e+01
3.905000000000000000e+04,-2.000000000000000164e-05,-2.000000000000000164e-05,-6.999999999999999387e-05,-1.800000000000000113e-04,-5.000000000000000240e-05,4.000000000000000327e-05,-1.000000000000000082e-05,0.000000000000000000e+00,1.000000000000000000e+00,1.300000000000000000e+01
3.905100000000000000e+04,-2.000000000000000164e-05,-2.000000000000000164e-05,-6.999999999999999387e-05,-1.800000000000000113e-04,-5.000000000000000240e-05,4.000000000000000327e-05,-1.000000000000000082e-05,0.000000000000000000e+00,1.000000000000000000e+00,1.300000000000000000e+01
3.905200000000000000e+04,0.000000000000000000e+00,1.000000000000000082e-05,-1.000000000000000082e-05,-1.199999999999999895e-04,-1.800000000000000113e-04,-2.999999999999999737e-05,0.000000000000000000e+00,0.000000000000000000e+00,1.000000000000000000e+00,1.300000000000000000e+01
3.905300000000000000e+04,-1.000000000000000082e-05,1.000000000000000082e-05,5.999999999999999474e-05,4.000000000000000327e-05,-5.999999999999999474e-05,-1.000000000000000082e-05,-1.000000000000000082e-05,-2.999999999999999737e-05,1.000000000000000000e+00,1.300000000000000000e+01
3.905400000000000000e+04,0.000000000000000000e+00,0.000000000000000000e+00,5.000000000000000240e-05,2.100000000000000087e-04,2.700000000000000035e-04,0.000000000000000000e+00,-1.000000000000000082e-05,0.000000000000000000e+00,1.000000000000000000e+00,1.300000000000000000e+01
3.905500000000000000e+04,0.000000000000000000e+00,0.000000000000000000e+00,5.000000000000000240e-05,2.100000000000000087e-04,2.700000000000000035e-04,0.000000000000000000e+00,-1.000000000000000082e-05,0.000000000000000000e+00,1.000000000000000000e+00,1.300000000000000000e+01
3.905600000000000000e+04,0.000000000000000000e+00,0.000000000000000000e+00,5.000000000000000240e-05,2.100000000000000087e-04,2.700000000000000035e-04,0.000000000000000000e+00,-1.000000000000000082e-05,0.000000000000000000e+00,1.000000000000000000e+00,1.300000000000000000e+01
3.905700000000000000e+04,0.000000000000000000e+00,0.000000000000000000e+00,5.000000000000000240e-05,2.100000000000000087e-04,2.700000000000000035e-04,0.000000000000000000e+00,-1.000000000000000082e-05,0.000000000000000000e+00,1.000000000000000000e+00,1.300000000000000000e+01
3.905800000000000000e+04,0.000000000000000000e+00,0.000000000000000000e+00,5.000000000000000240e-05,2.100000000000000087e-04,2.700000000000000035e-04,0.000000000000000000e+00,-1.000000000000000082e-05,0.000000000000000000e+00,1.000000000000000000e+00,1.300000000000000000e+01
3.905900000000000000e+04,0.000000000000000000e+00,0.000000000000000000e+00,5.000000000000000240e-05,2.100000000000000087e-04,2.700000000000000035e-04,0.000000000000000000e+00,-1.000000000000000082e-05,0.000000000000000000e+00,1.000000000000000000e+00,1.300000000000000000e+01
3.906000000000000000e+04,0.000000000000000000e+00,0.000000000000000000e+00,5.000000000000000240e-05,2.100000000000000087e-04,2.700000000000000035e-04,0.000000000000000000e+00,-1.000000000000000082e-05,0.000000000000000000e+00,1.000000000000000000e+00,1.300000000000000000e+01
3.906100000000000000e+04,0.000000000000000000e+00,0.000000000000000000e+00,5.000000000000000240e-05,2.100000000000000087e-04,2.700000000000000035e-04,0.000000000000000000e+00,-1.000000000000000082e-05,0.000000000000000000e+00,1.000000000000000000e+00,1.300000000000000000e+01
3.906200000000000000e+04,0.000000000000000000e+00,0.000000000000000000e+00,5.000000000000000240e-05,2.100000000000000087e-04,2.700000000000000035e-04,0.000000000000000000e+00,-1.000000000000000082e-05,0.000000000000000000e+00,1.000000000000000000e+00,1.300000000000000000e+01
3.906300000000000000e+04,0.000000000000000000e+00,0.000000000000000000e+00,5.000000000000000240e-05,2.100000000000000087e-04,2.700000000000000035e-04,0.000000000000000000e+00,-1.000000000000000082e-05,0.000000000000000000e+00,1.000000000000000000e+00,1.300000000000000000e+01
3.906400000000000000e+04,0.000000000000000000e+00,0.000000000000000000e+00,5.000000000000000240e-05,2.100000000000000087e-04,2.700000000000000035e-04,0.000000000000000000e+00,-1.000000000000000082e-05,0.000000000000000000e+00,1.000000000000000000e+00,1.300000000000000000e+01
3.906500000000000000e+04,0.000000000000000000e+00,0.000000000000000000e+00,5.000000000000000240e-05,2.100000000000000087e-04,2.700000000000000035e-04,0.000000000000000000e+00,-1.000000000000000082e-05,0.000000000000000000e+00,1.000000000000000000e+00,1.300000000000000000e+01
3.906600000000000000e+04,0.000000000000000000e+00,0.000000000000000000e+00,5.000000000000000240e-05,2.100000000000000087e-04,2.700000000000000035e-04,0.000000000000000000e+00,-1.000000000000000082e-05,0.000000000000000000e+00,1.000000000000000000e+00,1.300000000000000000e+01
3.906700000000000000e+04,-4.000000000000000327e-05,-2.000000000000000164e-05,-4.000000000000000327e-05,1.000000000000000082e-05,-1.100000000000000039e-04,-2.000000000000000164e-05,-1.000000000000000082e-05,-1.000000000000000082e-05,1.000000000000000000e+00,1.300000000000000000e+01
3.906800000000000000e+04,-2.000000000000000164e-05,-2.000000000000000164e-05,-4.000000000000000327e-05,-8.000000000000000654e-05,5.999999999999999474e-05,0.000000000000000000e+00,-1.000000000000000082e-05,-2.000000000000000164e-05,1.000000000000000000e+00,1.300000000000000000e+01
3.906900000000000000e+04,-1.000000000000000082e-05,0.000000000000000000e+00,-1.000000000000000082e-05,-5.000000000000000240e-05,-2.999999999999999737e-05,-1.000000000000000082e-05,0.000000000000000000e+00,1.000000000000000082e-05,1.000000000000000000e+00,1.300000000000000000e+01
3.907000000000000000e+04,-1.000000000000000082e-05,0.000000000000000000e+00,-1.000000000000000082e-05,-5.000000000000000240e-05,-2.999999999999999737e-05,-1.000000000000000082e-05,0.000000000000000000e+00,1.000000000000000082e-05,1.000000000000000000e+00,1.300000000000000000e+01
3.907100000000000000e+04,-1.000000000000000082e-05,0.000000000000000000e+00,-1.000000000000000082e-05,-5.000000000000000240e-05,-2.999999999999999737e-05,-1.000000000000000082e-05,0.000000000000000000e+00,1.000000000000000082e-05,1.000000000000000000e+00,1.300000000000000000e+01
3.907200000000000000e+04,-1.000000000000000082e-05,0.000000000000000000e+00,-1.000000000000000082e-05,-5.000000000000000240e-05,-2.999999999999999737e-05,-1.000000000000000082e-05,0.000000000000000000e+00,1.000000000000000082e-05,1.000000000000000000e+00,1.300000000000000000e+01
3.907300000000000000e+04,-1.000000000000000082e-05,0.000000000000000000e+00,-1.000000000000000082e-05,-5.000000000000000240e-05,-2.999999999999999737e-05,-1.000000000000000082e-05,0.000000000000000000e+00,1.000000000000000082e-05,1.000000000000000000e+00,1.300000000000000000e+01
3.907400000000000000e+04,-1.000000000000000082e-05,0.000000000000000000e+00,-1.000000000000000082e-05,-5.000000000000000240e-05,-2.999999999999999737e-05,-1.000000000000000082e-05,0.000000000000000000e+00,1.000000000000000082e-05,1.000000000000000000e+00,1.300000000000000000e+01
3.907500000000000000e+04,-1.000000000000000082e-05,0.000000000000000000e+00,-1.000000000000000082e-05,-5.000000000000000240e-05,-2.999999999999999737e-05,-1.000000000000000082e-05,0.000000000000000000e+00,1.000000000000000082e-05,1.000000000000000000e+00,1.300000000000000000e+01
3.907600000000000000e+04,-1.000000000000000082e-05,0.000000000000000000e+00,-1.000000000000000082e-05,-5.000000000000000240e-05,-2.999999999999999737e-05,-1.000000000000000082e-05,0.000000000000000000e+00,1.000000000000000082e-05,1.000000000000000000e+00,1.300000000000000000e+01
3.907700000000000000e+04,-1.000000000000000082e-05,0.000000000000000000e+00,-1.000000000000000082e-05,-5.000000000000000240e-05,-2.999999999999999737e-05,-1.000000000000000082e-05,0.000000000000000000e+00,1.000000000000000082e-05,1.000000000000000000e+00,1.300000000000000000e+01
3.907800000000000000e+04,-1.000000000000000082e-05,0.000000000000000000e+00,-1.000000000000000082e-05,-5.000000000000000240e-05,-2.999999999999999737e-05,-1.000000000000000082e-05,0.000000000000000000e+00,1.000000000000000082e-05,1.000000000000000000e+00,1.300000000000000000e+01
3.907900000000000000e+04,-1.000000000000000082e-05,0.000000000000000000e+00,-1.000000000000000082e-05,-5.000000000000000240e-05,-2.999999999999999737e-05,-1.000000000000000082e-05,0.000000000000000000e+00,1.000000000000000082e-05,1.000000000000000000e+00,1.300000000000000000e+01
3.908000000000000000e+04,-1.000000000000000082e-05,0.000000000000000000e+00,-1.000000000000000082e-05,-5.000000000000000240e-05,-2.999999999999999737e-05,-1.000000000000000082e-05,0.000000000000000000e+00,1.000000000000000082e-05,1.000000000000000000e+00,1.300000000000000000e+01
3.908100000000000000e+04,-1.000000000000000082e-05,0.000000000000000000e+00,-1.000000000000000082e-05,-5.000000000000000240e-05,-2.999999999999999737e-05,-1.000000000000000082e-05,0.000000000000000000e+00,1.000000000000000082e-05,1.000000000000000000e+00,1.300000000000000000e+01
3.908200000000000000e+04,-1.000000000000000082e-05,0.000000000000000000e+00,-1.000000000000000082e-05,-5.000000000000000240e-05,-2.999999999999999737e-05,-1.000000000000000082e-05,0.000000000000000000e+00,1.000000000000000082e-05,1.000000000000000000e+00,1.300000000000000000e+01
3.908300000000000000e+04,-1.000000000000000082e-05,0.000000000000000000e+00,-1.000000000000000082e-05,-5.000000000000000240e-05,-2.999999999999999737e-05,-1.000000000000000082e-05,0.000000000000000000e+00,1.000000000000000082e-05,1.000000000000000000e+00,1.300000000000000000e+01
3.908400000000000000e+04,-1.000000000000000082e-05,0.000000000000000000e+00,-1.000000000000000082e-05,-5.000000000000000240e-05,-2.999999999999999737e-05,-1.000000000000000082e-05,0.000000000000000000e+00,1.000000000000000082e-05,1.000000000000000000e+00,1.300000000000000000e+01
3.908500000000000000e+04,-1.000000000000000082e-05,0.000000000000000000e+00,-1.000000000000000082e-05,-5.000000000000000240e-05,-2.999999999999999737e-05,-1.000000000000000082e-05,0.000000000000000000e+00,1.000000000000000082e-05,1.000000000000000000e+00,1.300000000000000000e+01
3.908600000000000000e+04,-1.000000000000000082e-05,0.000000000000000000e+00,-1.000000000000000082e-05,-5.000000000000000240e-05,-2.999999999999999737e-05,-1.000000000000000082e-05,0.000000000000000000e+00,1.000000000000000082e-05,1.000000000000000000e+00,1.300000000000000000e+01
3.908800000000000000e+04,-1.000000000000000082e-05,0.000000000000000000e+00,-1.000000000000000082e-05,-5.000000000000000240e-05,-2.999999999999999737e-05,-1.000000000000000082e-05,0.000000000000000000e+00,1.000000000000000082e-05,1.000000000000000000e+00,1.300000000000000000e+01
3.908900000000000000e+04,-1.000000000000000082e-05,0.000000000000000000e+00,-1.000000000000000082e-05,-5.000000000000000240e-05,-2.999999999999999737e-05,-1.000000000000000082e-05,0.000000000000000000e+00,1.000000000000000082e-05,1.000000000000000000e+00,1.300000000000000000e+01
3.909000000000000000e+04,1.000000000000000082e-05,-2.000000000000000164e-05,-4.000000000000000327e-05,-8.000000000000000654e-05,-4.000000000000000327e-05,-2.000000000000000164e-05,0.000000000000000000e+00,0.000000000000000000e+00,1.000000000000000000e+00,1.300000000000000000e+01
3.909100000000000000e+04,-2.999999999999999737e-05,-2.999999999999999737e-05,1.000000000000000082e-05,1.000000000000000082e-05,5.000000000000000240e-05,0.000000000000000000e+00,-2.000000000000000164e-05,-2.000000000000000164e-05,1.000000000000000000e+00,1.300000000000000000e+01
3.909200000000000000e+04,-2.999999999999999737e-05,-2.999999999999999737e-05,1.000000000000000082e-05,1.000000000000000082e-05,5.000000000000000240e-05,0.000000000000000000e+00,-2.000000000000000164e-05,-2.000000000000000164e-05,1.000000000000000000e+00,1.300000000000000000e+01
3.909300000000000000e+04,-2.999999999999999737e-05,-2.999999999999999737e-05,1.000000000000000082e-05,1.000000000000000082e-05,5.000000000000000240e-05,0.000000000000000000e+00,-2.000000000000000164e-05,-2.000000000000000164e-05,1.000000000000000000e+00,1.300000000000000000e+01
3.909400000000000000e+04,-2.999999999999999737e-05,-2.999999999999999737e-05,1.000000000000000082e-05,1.000000000000000082e-05,5.000000000000000240e-05,0.000000000000000000e+00,-2.000000000000000164e-05,-2.000000000000000164e-05,1.000000000000000000e+00,1.300000000000000000e+01
3.909500000000000000e+04,-2.999999999999999737e-05,-2.999999999999999737e-05,1.000000000000000082e-05,1.000000000000000082e-05,5.000000000000000240e-05,0.000000000000000000e+00,-2.000000000000000164e-05,-2.000000000000000164e-05,1.000000000000000000e+00,1.300000000000000000e+01
3.909600000000000000e+04,-2.999999999999999737e-05,-2.999999999999999737e-05,1.000000000000000082e-05,1.000000000000000082e-05,5.000000000000000240e-05,0.000000000000000000e+00,-2.000000000000000164e-05,-2.000000000000000164e-05,1.000000000000000000e+00,1.300000000000000000e+01
3.909700000000000000e+04,-2.999999999999999737e-05,-2.999999999999999737e-05,1.000000000000000082e-05,1.000000000000000082e-05,5.000000000000000240e-05,0.000000000000000000e+00,-2.000000000000000164e-05,-2.000000000000000164e-05,1.000000000000000000e+00,1.300000000000000000e+01
3.909800000000000000e+04,-2.999999999999999737e-05,-2.999999999999999737e-05,1.000000000000000082e-05,1.000000000000000082e-05,5.000000000000000240e-05,0.000000000000000000e+00,-2.000000000000000164e-05,-2.000000000000000164e-05,1.000000000000000000e+00,1.300000000000000000e+01
3.909900000000000000e+04,-2.999999999999999737e-05,-2.999999999999999737e-05,1.000000000000000082e-05,1.000000000000000082e-05,5.000000000000000240e-05,0.000000000000000000e+00,-2.000000000000000164e-05,-2.000000000000000164e-05,1.000000000000000000e+00,1.300000000000000000e+01
3.910000000000000000e+04,-2.999999999999999737e-05,-2.999999999999999737e-05,1.000000000000000082e-05,1.000000000000000082e-05,5.000000000000000240e-05,0.000000000000000000e+00,-2.000000000000000164e-05,-2.000000000000000164e-05,1.000000000000000000e+00,1.300000000000000000e+01
3.910100000000000000e+04,-2.999999999999999737e-05,-2.999999999999999737e-05,1.000000000000000082e-05,1.000000000000000082e-05,5.000000000000000240e-05,0.000000000000000000e+00,-2.000000000000000164e-05,-2.000000000000000164e-05,1.000000000000000000e+00,1.300000000000000000e+01
3.910200000000000000e+04,-2.999999999999999737e-05,-2.999999999999999737e-05,1.000000000000000082e-05,1.000000000000000082e-05,5.000000000000000240e-05,0.000000000000000000e+00,-2.000000000000000164e-05,-2.000000000000000164e-05,1.000000000000000000e+00,1.300000000000000000e+01
3.910400000000000000e+04,-2.999999999999999737e-05,-2.999999999999999737e-05,1.000000000000000082e-05,1.000000000000000082e-05,5.000000000000000240e-05,0.000000000000000000e+00,-2.000000000000000164e-05,-2.000000000000000164e-05,1.000000000000000000e+00,1.300000000000000000e+01
3.910500000000000000e+04,-2.999999999999999737e-05,-2.999999999999999737e-05,1.000000000000000082e-05,1.000000000000000082e-05,5.000000000000000240e-05,0.000000000000000000e+00,-2.000000000000000164e-05,-2.000000000000000164e-05,1.000000000000000000e+00,1.300000000000000000e+01
3.910600000000000000e+04,-2.999999999999999737e-05,-2.999999999999999737e-05,1.000000000000000082e-05,1.000000000000000082e-05,5.000000000000000240e-05,0.000000000000000000e+00,-2.000000000000000164e-05,-2.000000000000000164e-05,1.000000000000000000e+00,1.300000000000000000e+01
3.910700000000000000e+04,-2.999999999999999737e-05,-2.999999999999999737e-05,1.000000000000000082e-05,1.000000000000000082e-05,5.000000000000000240e-05,0.000000000000000000e+00,-2.000000000000000164e-05,-2.000000000000000164e-05,1.000000000000000000e+00,1.300000000000000000e+01
3.910800000000000000e+04,-2.999999999999999737e-05,-2.999999999999999737e-05,1.000000000000000082e-05,1.000000000000000082e-05,5.000000000000000240e-05,0.000000000000000000e+00,-2.000000000000000164e-05,-2.000000000000000164e-05,1.000000000000000000e+00,1.300000000000000000e+01
3.910900000000000000e+04,-2.999999999999999737e-05,-2.999999999999999737e-05,1.000000000000000082e-05,1.000000000000000082e-05,5.000000000000000240e-05,0.000000000000000000e+00,-2.000000000000000164e-05,-2.000000000000000164e-05,1.000000000000000000e+00,1.300000000000000000e+01
3.911000000000000000e+04,-2.999999999999999737e-05,-2.999999999999999737e-05,1.000000000000000082e-05,1.000000000000000082e-05,5.000000000000000240e-05,0.000000000000000000e+00,-2.000000000000000164e-05,-2.000000000000000164e-05,1.000000000000000000e+00,1.300000000000000000e+01
3.911100000000000000e+04,-2.999999999999999737e-05,-2.999999999999999737e-05,1.000000000000000082e-05,1.000000000000000082e-05,5.000000000000000240e-05,0.000000000000000000e+00,-2.000000000000000164e-05,-2.000000000000000164e-05,1.000000000000000000e+00,1.300000000000000000e+01
3.911200000000000000e+04,-2.000000000000000164e-05,-4.000000000000000327e-05,-1.000000000000000082e-05,-5.999999999999999474e-05,-2.399999999999999790e-04,-2.999999999999999737e-05,-2.999999999999999737e-05,-1.000000000000000082e-05,1.000000000000000000e+00,1.300000000000000000e+01
3.911300000000000000e+04,-2.000000000000000164e-05,-4.000000000000000327e-05,-1.000000000000000082e-05,-5.999999999999999474e-05,-2.399999999999999790e-04,-2.999999999999999737e-05,-2.999999999999999737e-05,-1.000000000000000082e-05,1.000000000000000000e+00,1.300000000000000000e+01
3.911400000000000000e+04,0.000000000000000000e+00,1.000000000000000082e-05,4.000000000000000327e-05,0.000000000000000000e+00,-5.999999999999999474e-05,1.000000000000000082e-05,1.000000000000000082e-05,0.000000000000000000e+00,1.000000000000000000e+00,1.300000000000000000e+01
