7.044700000000000000e+04,-2.999999999999999737e-05,-2.999999999999999737e-05,-2.999999999999999737e-05,-6.999999999999999387e-05,-1.399999999999999877e-04,4.099999999999999912e-04,-1.000000000000000048e-04,1.000000000000000048e-04,6.000000000000000000e+00,2.500000000000000000e+01
7.044800000000000000e+04,-2.999999999999999737e-05,-2.999999999999999737e-05,-2.999999999999999737e-05,-6.999999999999999387e-05,-1.399999999999999877e-04,4.099999999999999912e-04,-1.000000000000000048e-04,1.000000000000000048e-04,6.000000000000000000e+00,2.500000000000000000e+01
7.044900000000000000e+04,-2.999999999999999737e-05,-2.999999999999999737e-05,-2.999999999999999737e-05,-6.999999999999999387e-05,-1.399999999999999877e-04,4.099999999999999912e-04,-1.000000000000000048e-04,1.000000000000000048e-04,6.000000000000000000e+00,2.500000000000000000e+01
7.045000000000000000e+04,1.100000000000000039e-04,2.000000000000000164e-05,4.000000000000000327e-05,2.000000000000000164e-05,2.600000000000000314e-04,7.099999999999999107e-04,-2.000000000000000164e-05,8.199999999999999824e-04,6.000000000000000000e+00,2.500000000000000000e+01
7.045100000000000000e+04,1.100000000000000039e-04,2.000000000000000164e-05,4.000000000000000327e-05,2.000000000000000164e-05,2.600000000000000314e-04,7.099999999999999107e-04,-2.000000000000000164e-05,8.199999999999999824e-04,6.000000000000000000e+00,2.500000000000000000e+01
7.045200000000000000e+04,-6.999999999999999387e-05,1.000000000000000082e-05,4.000000000000000327e-05,2.500000000000000052e-04,6.099999999999999737e-04,-1.899999999999999834e-04,-1.300000000000000157e-04,-5.400000000000000069e-04,6.000000000000000000e+00,2.500000000000000000e+01
7.045300000000000000e+04,-6.999999999999999387e-05,1.000000000000000082e-05,4.000000000000000327e-05,2.500000000000000052e-04,6.099999999999999737e-04,-1.899999999999999834e-04,-1.300000000000000157e-04,-5.400000000000000069e-04,6.000000000000000000e+00,2.500000000000000000e+01
7.045400000000000000e+04,-6.999999999999999387e-05,1.000000000000000082e-05,4.000000000000000327e-05,2.500000000000000052e-04,6.099999999999999737e-04,-1.899999999999999834e-04,-1.300000000000000157e-04,-5.400000000000000069e-04,6.000000000000000000e+00,2.500000000000000000e+01
7.045500000000000000e+04,-6.999999999999999387e-05,1.000000000000000082e-05,4.000000000000000327e-05,2.500000000000000052e-04,6.099999999999999737e-04,-1.899999999999999834e-04,-1.300000000000000157e-04,-5.400000000000000069e-04,6.000000000000000000e+00,2.500000000000000000e+01
7.045600000000000000e+04,-6.999999999999999387e-05,1.000000000000000082e-05,4.000000000000000327e-05,2.500000000000000052e-04,6.099999999999999737e-04,-1.899999999999999834e-04,-1.300000000000000157e-04,-5.400000000000000069e-04,6.000000000000000000e+00,2.500000000000000000e+01
7.045700000000000000e+04,-6.999999999999999387e-05,1.000000000000000082e-05,4.000000000000000327e-05,2.500000000000000052e-04,6.099999999999999737e-04,-1.899999999999999834e-04,-1.300000000000000157e-04,-5.400000000000000069e-04,6.000000000000000000e+00,2.500000000000000000e+01
7.045800000000000000e+04,-6.999999999999999387e-05,1.000000000000000082e-05,4.000000000000000327e-05,2.500000000000000052e-04,6.099999999999999737e-04,-1.899999999999999834e-04,-1.300000000000000157e-04,-5.400000000000000069e-04,6.000000000000000000e+00,2.500000000000000000e+01
7.045900000000000000e+04,-6.999999999999999387e-05,1.000000000000000082e-05,4.000000000000000327e-05,2.500000000000000052e-04,6.099999999999999737e-04,-1.899999999999999834e-04,-1.300000000000000157e-04,-5.400000000000000069e-04,6.000000000000000000e+00,2.500000000000000000e+01
7.046000000000000000e+04,-6.999999999999999387e-05,1.000000000000000082e-05,4.000000000000000327e-05,2.500000000000000052e-04,6.099999999999999737e-04,-1.899999999999999834e-04,-1.300000000000000157e-04,-5.400000000000000069e-04,6.000000000000000000e+00,2.500000000000000000e+01
7.046100000000000000e+04,-6.999999999999999387e-05,1.000000000000000082e-05,4.000000000000000327e-05,2.500000000000000052e-04,6.099999999999999737e-04,-1.899999999999999834e-04,-1.300000000000000157e-04,-5.400000000000000069e-04,6.000000000000000000e+00,2.500000000000000000e+01
7.046200000000000000e+04,-6.999999999999999387e-05,1.000000000000000082e-05,4.000000000000000327e-05,2.500000000000000052e-04,6.099999999999999737e-04,-1.899999999999999834e-04,-1.300000000000000157e-04,-5.400000000000000069e-04,6.000000000000000000e+00,2.500000000000000000e+01
7.046300000000000000e+04,-6.999999999999999387e-05,1.000000000000000082e-05,4.000000000000000327e-05,2.500000000000000052e-04,6.099999999999999737e-04,-1.899999999999999834e-04,-1.300000000000000157e-04,-5.400000000000000069e-04,6.000000000000000000e+00,2.500000000000000000e+01
7.046400000000000000e+04,-6.999999999999999387e-05,1.000000000000000082e-05,4.000000000000000327e-05,2.500000000000000052e-04,6.099999999999999737e-04,-1.899999999999999834e-04,-1.300000000000000157e-04,-5.400000000000000069e-04,6.000000000000000000e+00,2.500000000000000000e+01
7.046500000000000000e+04,-6.999999999999999387e-05,1.000000000000000082e-05,4.000000000000000327e-05,2.500000000000000052e-04,6.099999999999999737e-04,-1.899999999999999834e-04,-1.300000000000000157e-04,-5.400000000000000069e-04,6.000000000000000000e+00,2.500000000000000000e+01
7.046600000000000000e+04,-6.999999999999999387e-05,1.000000000000000082e-05,4.000000000000000327e-05,2.500000000000000052e-04,6.099999999999999737e-04,-1.899999999999999834e-04,-1.300000000000000157e-04,-5.400000000000000069e-04,6.000000000000000000e+00,2.500000000000000000e+01
7.046700000000000000e+04,-6.999999999999999387e-05,1.000000000000000082e-05,4.000000000000000327e-05,2.500000000000000052e-04,6.099999999999999737e-04,-1.899999999999999834e-04,-1.300000000000000157e-04,-5.400000000000000069e-04,6.000000000000000000e+00,2.500000000000000000e+01
7.046800000000000000e+04,-6.999999999999999387e-05,1.000000000000000082e-05,4.000000000000000327e-05,2.500000000000000052e-04,6.099999999999999737e-04,-1.899999999999999834e-04,-1.300000000000000157e-04,-5.400000000000000069e-04,6.000000000000000000e+00,2.500000000000000000e+01
7.046900000000000000e+04,-6.999999999999999387e-05,1.000000000000000082e-05,4.000000000000000327e-05,2.500000000000000052e-04,6.099999999999999737e-04,-1.899999999999999834e-04,-1.300000000000000157e-04,-5.400000000000000069e-04,6.000000000000000000e+00,2.500000000000000000e+01
7.047000000000000000e+04,-6.999999999999999387e-05,1.000000000000000082e-05,4.000000000000000327e-05,2.500000000000000052e-04,6.099999999999999737e-04,-1.899999999999999834e-04,-1.300000000000000157e-04,-5.400000000000000069e-04,6.000000000000000000e+00,2.500000000000000000e+01
7.047100000000000000e+04,-6.999999999999999387e-05,1.000000000000000082e-05,4.000000000000000327e-05,2.500000000000000052e-04,6.099999999999999737e-04,-1.899999999999999834e-04,-1.300000000000000157e-04,-5.400000000000000069e-04,6.000000000000000000e+00,2.500000000000000000e+01
7.047200000000000000e+04,-6.999999999999999387e-05,1.000000000000000082e-05,4.000000000000000327e-05,2.500000000000000052e-04,6.099999999999999737e-04,-1.899999999999999834e-04,-1.300000000000000157e-04,-5.400000000000000069e-04,6.000000000000000000e+00,2.500000000000000000e+01
7.047300000000000000e+04,0.000000000000000000e+00,1.000000000000000082e-05,0.000000000000000000e+00,1.199999999999999895e-04,1.499999999999999869e-04,-5.299999999999999807e-04,-2.200000000000000078e-04,-3.600000000000000227e-04,6.000000000000000000e+00,2.500000000000000000e+01
7.047400000000000000e+04,1.000000000000000082e-05,-1.000000000000000082e-05,-2.000000000000000164e-05,-4.000000000000000327e-05,-1.199999999999999895e-04,-1.600000000000000131e-04,3.099999999999999999e-04,2.100000000000000087e-04,6.000000000000000000e+00,2.500000000000000000e+01
7.047500000000000000e+04,1.000000000000000082e-05,-1.000000000000000082e-05,-2.000000000000000164e-05,-4.000000000000000327e-05,-1.199999999999999895e-04,-1.600000000000000131e-04,3.099999999999999999e-04,2.100000000000000087e-04,6.000000000000000000e+00,2.500000000000000000e+01
7.047600000000000000e+04,1.000000000000000082e-05,-1.000000000000000082e-05,-2.000000000000000164e-05,-4.000000000000000327e-05,-1.199999999999999895e-04,-1.600000000000000131e-04,3.099999999999999999e-04,2.100000000000000087e-04,6.000000000000000000e+00,2.500000000000000000e+01
7.047700000000000000e+04,1.000000000000000082e-05,-1.000000000000000082e-05,-2.000000000000000164e-05,-4.000000000000000327e-05,-1.199999999999999895e-04,-1.600000000000000131e-04,3.099999999999999999e-04,2.100000000000000087e-04,6.000000000000000000e+00,2.500000000000000000e+01
7.047800000000000000e+04,1.000000000000000082e-05,-1.000000000000000082e-05,-2.000000000000000164e-05,-4.000000000000000327e-05,-1.199999999999999895e-04,-1.600000000000000131e-04,3.099999999999999999e-04,2.100000000000000087e-04,6.000000000000000000e+00,2.500000000000000000e+01
7.047900000000000000e+04,1.000000000000000082e-05,-1.000000000000000082e-05,-2.000000000000000164e-05,-4.000000000000000327e-05,-1.199999999999999895e-04,-1.600000000000000131e-04,3.099999999999999999e-04,2.100000000000000087e-04,6.000000000000000000e+00,2.500000000000000000e+01
7.048000000000000000e+04,1.000000000000000082e-05,-1.000000000000000082e-05,-2.000000000000000164e-05,-4.000000000000000327e-05,-1.199999999999999895e-04,-1.600000000000000131e-04,3.099999999999999999e-04,2.100000000000000087e-04,6.000000000000000000e+00,2.500000000000000000e+01
7.048100000000000000e+04,1.000000000000000082e-05,-1.000000000000000082e-05,-2.000000000000000164e-05,-4.000000000000000327e-05,-1.199999999999999895e-04,-1.600000000000000131e-04,3.099999999999999999e-04,2.100000000000000087e-04,6.000000000000000000e+00,2.500000000000000000e+01
7.048200000000000000e+04,1.000000000000000082e-05,-1.000000000000000082e-05,-2.000000000000000164e-05,-4.000000000000000327e-05,-1.199999999999999895e-04,-1.600000000000000131e-04,3.099999999999999999e-04,2.100000000000000087e-04,6.000000000000000000e+00,2.500000000000000000e+01
7.048300000000000000e+04,1.000000000000000082e-05,-1.000000000000000082e-05,-2.000000000000000164e-05,-4.000000000000000327e-05,-1.199999999999999895e-04,-1.600000000000000131e-04,3.099999999999999999e-04,2.100000000000000087e-04,6.000000000000000000e+00,2.500000000000000000e+01
7.048400000000000000e+04,1.000000000000000082e-05,-1.000000000000000082e-05,-2.000000000000000164e-05,-4.000000000000000327e-05,-1.199999999999999895e-04,-1.600000000000000131e-04,3.099999999999999999e-04,2.100000000000000087e-04,6.000000000000000000e+00,2.500000000000000000e+01
7.048500000000000000e+04,1.000000000000000082e-05,-1.000000000000000082e-05,-2.000000000000000164e-05,-4.000000000000000327e-05,-1.199999999999999895e-04,-1.600000000000000131e-04,3.099999999999999999e-04,2.100000000000000087e-04,6.000000000000000000e+00,2.500000000000000000e+01
7.048600000000000000e+04,1.000000000000000082e-05,-1.000000000000000082e-05,-2.000000000000000164e-05,-4.000000000000000327e-05,-1.199999999999999895e-04,-1.600000000000000131e-04,3.099999999999999999e-04,2.100000000000000087e-04,6.000000000000000000e+00,2.500000000000000000e+01
7.048800000000000000e+04,1.000000000000000082e-05,-1.000000000000000082e-05,-2.000000000000000164e-05,-4.000000000000000327e-05,-1.199999999999999895e-04,-1.600000000000000131e-04,3.099999999999999999e-04,2.100000000000000087e-04,6.000000000000000000e+00,2.500000000000000000e+01
7.048900000000000000e+04,1.000000000000000082e-05,-1.000000000000000082e-05,-2.000000000000000164e-05,-4.000000000000000327e-05,-1.199999999999999895e-04,-1.600000000000000131e-04,3.099999999999999999e-04,2.100000000000000087e-04,6.000000000000000000e+00,2.500000000000000000e+01
7.049000000000000000e+04,1.000000000000000082e-05,-1.000000000000000082e-05,-2.000000000000000164e-05,-4.000000000000000327e-05,-1.199999999999999895e-04,-1.600000000000000131e-04,3.099999999999999999e-04,2.100000000000000087e-04,6.000000000000000000e+00,2.500000000000000000e+01
7.049100000000000000e+04,1.000000000000000082e-05,-1.000000000000000082e-05,-2.000000000000000164e-05,-4.000000000000000327e-05,-1.199999999999999895e-04,-1.600000000000000131e-04,3.099999999999999999e-04,2.100000000000000087e-04,6.000000000000000000e+00,2.500000000000000000e+01
7.049200000000000000e+04,1.000000000000000082e-05,-1.000000000000000082e-05,-2.000000000000000164e-05,-4.000000000000000327e-05,-1.199999999999999895e-04,-1.600000000000000131e-04,3.099999999999999999e-04,2.100000000000000087e-04,6.000000000000000000e+00,2.500000000000000000e+01
7.049300000000000000e+04,1.000000000000000082e-05,-1.000000000000000082e-05,-2.000000000000000164e-05,-4.000000000000000327e-05,-1.199999999999999895e-04,-1.600000000000000131e-04,3.099999999999999999e-04,2.100000000000000087e-04,6.000000000000000000e+00,2.500000000000000000e+01
7.049400000000000000e+04,1.000000000000000082e-05,-1.000000000000000082e-05,-2.000000000000000164e-05,-4.000000000000000327e-05,-1.199999999999999895e-04,-1.600000000000000131e-04,3.099999999999999999e-04,2.100000000000000087e-04,6.000000000000000000e+00,2.500000000000000000e+01
7.049500000000000000e+04,-1.399999999999999877e-04,-6.999999999999999387e-05,-5.999999999999999474e-05,-8.000000000000000654e-05,-6.999999999999999387e-05,-3.099999999999999999e-04,-2.100000000000000087e-04,-3.299999999999999982e-04,6.000000000000000000e+00,2.500000000000000000e+01
7.049600000000000000e+04,-1.399999999999999877e-04,-6.999999999999999387e-05,-5.999999999999999474e-05,-8.000000000000000654e-05,-6.999999999999999387e-05,-3.099999999999999999e-04,-2.100000000000000087e-04,-3.299999999999999982e-04,6.000000000000000000e+00,2.500000000000000000e+01
7.049700000000000000e+04,5.999999999999999474e-05,4.000000000000000327e-05,5.000000000000000240e-05,-4.000000000000000327e-05,-4.000000000000000192e-04,-5.599999999999999509e-04,-5.000000000000000240e-05,5.999999999999999474e-04,6.000000000000000000e+00,2.500000000000000000e+01
7.049800000000000000e+04,5.999999999999999474e-05,4.000000000000000327e-05,5.000000000000000240e-05,-4.000000000000000327e-05,-4.000000000000000192e-04,-5.599999999999999509e-04,-5.000000000000000240e-05,5.999999999999999474e-04,6.000000000000000000e+00,2.500000000000000000e+01
7.049900000000000000e+04,5.999999999999999474e-05,4.000000000000000327e-05,5.000000000000000240e-05,-4.000000000000000327e-05,-4.000000000000000192e-04,-5.599999999999999509e-04,-5.000000000000000240e-05,5.999999999999999474e-04,6.000000000000000000e+00,2.500000000000000000e+01
7.050000000000000000e+04,5.999999999999999474e-05,4.000000000000000327e-05,5.000000000000000240e-05,-4.000000000000000327e-05,-4.000000000000000192e-04,-5.599999999999999509e-04,-5.000000000000000240e-05,5.999999999999999474e-04,6.000000000000000000e+00,2.500000000000000000e+01
7.050100000000000000e+04,5.999999999999999474e-05,4.000000000000000327e-05,5.000000000000000240e-05,-4.000000000000000327e-05,-4.000000000000000192e-04,-5.599999999999999509e-04,-5.000000000000000240e-05,5.999999999999999474e-04,6.000000000000000000e+00,2.500000000000000000e+01
7.050200000000000000e+04,5.999999999999999474e-05,4.000000000000000327e-05,5.000000000000000240e-05,-4.000000000000000327e-05,-4.000000000000000192e-04,-5.599999999999999509e-04,-5.000000000000000240e-05,5.999999999999999474e-04,6.000000000000000000e+00,2.500000000000000000e+01
7.050300000000000000e+04,5.999999999999999474e-05,4.000000000000000327e-05,5.000000000000000240e-05,-4.000000000000000327e-05,-4.000000000000000192e-04,-5.599999999999999509e-04,-5.000000000000000240e-05,5.999999999999999474e-04,6.000000000000000000e+00,2.500000000000000000e+01
7.050400000000000000e+04,5.999999999999999474e-05,4.000000000000000327e-05,5.000000000000000240e-05,-4.000000000000000327e-05,-4.000000000000000192e-04,-5.599999999999999509e-04,-5.000000000000000240e-05,5.999999999999999474e-04,6.000000000000000000e+00,2.500000000000000000e+01
7.050500000000000000e+04,5.999999999999999474e-05,4.000000000000000327e-05,5.000000000000000240e-05,-4.000000000000000327e-05,-4.000000000000000192e-04,-5.599999999999999509e-04,-5.000000000000000240e-05,5.999999999999999474e-04,6.000000000000000000e+00,2.500000000000000000e+01
7.050600000000000000e+04,5.999999999999999474e-05,4.000000000000000327e-05,5.000000000000000240e-05,-4.000000000000000327e-05,-4.000000000000000192e-04,-5.599999999999999509e-04,-5.000000000000000240e-05,5.999999999999999474e-04,6.000000000000000000e+00,2.500000000000000000e+01
7.050700000000000000e+04,5.999999999999999474e-05,4.000000000000000327e-05,5.000000000000000240e-05,-4.000000000000000327e-05,-4.000000000000000192e-04,-5.599999999999999509e-04,-5.000000000000000240e-05,5.999999999999999474e-04,6.000000000000000000e+00,2.500000000000000000e+01
7.050800000000000000e+04,5.999999999999999474e-05,4.000000000000000327e-05,5.000000000000000240e-05,-4.000000000000000327e-05,-4.000000000000000192e-04,-5.599999999999999509e-04,-5.000000000000000240e-05,5.999999999999999474e-04,6.000000000000000000e+00,2.500000000000000000e+01
7.050900000000000000e+04,5.999999999999999474e-05,4.000000000000000327e-05,5.000000000000000240e-05,-4.000000000000000327e-05,-4.000000000000000192e-04,-5.599999999999999509e-04,-5.000000000000000240e-05,5.999999999999999474e-04,6.000000000000000000e+00,2.500000000000000000e+01
7.051000000000000000e+04,-1.000000000000000048e-04,0.000000000000000000e+00,-2.000000000000000164e-05,-6.999999999999999387e-05,-2.799999999999999755e-04,3.399999999999999702e-04,-4.000000000000000327e-05,-5.400000000000000069e-04,6.000000000000000000e+00,2.500000000000000000e+01
7.051100000000000000e+04,-1.000000000000000048e-04,0.000000000000000000e+00,-2.000000000000000164e-05,-6.999999999999999387e-05,-2.799999999999999755e-04,3.399999999999999702e-04,-4.000000000000000327e-05,-5.400000000000000069e-04,6.000000000000000000e+00,2.500000000000000000e+01
7.051200000000000000e+04,-1.000000000000000048e-04,0.000000000000000000e+00,-2.000000000000000164e-05,-6.999999999999999387e-05,-2.799999999999999755e-04,3.399999999999999702e-04,-4.000000000000000327e-05,-5.400000000000000069e-04,6.000000000000000000e+00,2.500000000000000000e+01
7.051300000000000000e+04,-1.000000000000000048e-04,0.000000000000000000e+00,-2.000000000000000164e-05,-6.999999999999999387e-05,-2.799999999999999755e-04,3.399999999999999702e-04,-4.000000000000000327e-05,-5.400000000000000069e-04,6.000000000000000000e+00,2.500000000000000000e+01
7.051400000000000000e+04,-1.000000000000000048e-04,0.000000000000000000e+00,-2.000000000000000164e-05,-6.999999999999999387e-05,-2.799999999999999755e-04,3.399999999999999702e-04,-4.000000000000000327e-05,-5.400000000000000069e-04,6.000000000000000000e+00,2.500000000000000000e+01
7.051500000000000000e+04,-1.000000000000000048e-04,0.000000000000000000e+00,-2.000000000000000164e-05,-6.999999999999999387e-05,-2.799999999999999755e-04,3.399999999999999702e-04,-4.000000000000000327e-05,-5.400000000000000069e-04,6.000000000000000000e+00,2.500000000000000000e+01
7.051600000000000000e+04,9.000000000000000567e-05,-2.000000000000000164e-05,-1.199999999999999895e-04,-3.399999999999999702e-04,-2.999999999999999737e-04,8.000000000000000654e-05,-1.899999999999999834e-04,3.099999999999999999e-04,6.000000000000000000e+00,2.500000000000000000e+01
7.051700000000000000e+04,9.000000000000000567e-05,-2.000000000000000164e-05,-1.199999999999999895e-04,-3.399999999999999702e-04,-2.999999999999999737e-04,8.000000000000000654e-05,-1.899999999999999834e-04,3.099999999999999999e-04,6.000000000000000000e+00,2.500000000000000000e+01
7.051800000000000000e+04,9.000000000000000567e-05,-2.000000000000000164e-05,-1.199999999999999895e-04,-3.399999999999999702e-04,-2.999999999999999737e-04,8.000000000000000654e-05,-1.899999999999999834e-04,3.099999999999999999e-04,6.000000000000000000e+00,2.500000000000000000e+01
7.051900000000000000e+04,9.000000000000000567e-05,-2.000000000000000164e-05,-1.199999999999999895e-04,-3.399999999999999702e-04,-2.999999999999999737e-04,8.000000000000000654e-05,-1.899999999999999834e-04,3.099999999999999999e-04,6.000000000000000000e+00,2.500000000000000000e+01
7.052000000000000000e+04,9.000000000000000567e-05,-2.000000000000000164e-05,-1.199999999999999895e-04,-3.399999999999999702e-04,-2.999999999999999737e-04,8.000000000000000654e-05,-1.899999999999999834e-04,3.099999999999999999e-04,6.000000000000000000e+00,2.500000000000000000e+01
7.052100000000000000e+04,9.000000000000000567e-05,-2.000000000000000164e-05,-1.199999999999999895e-04,-3.399999999999999702e-04,-2.999999999999999737e-04,8.000000000000000654e-05,-1.899999999999999834e-04,3.099999999999999999e-04,6.000000000000000000e+00,2.500000000000000000e+01
7.052200000000000000e+04,9.000000000000000567e-05,-2.000000000000000164e-05,-1.199999999999999895e-04,-3.399999999999999702e-04,-2.999999999999999737e-04,8.000000000000000654e-05,-1.899999999999999834e-04,3.099999999999999999e-04,6.000000000000000000e+00,2.500000000000000000e+01
7.052300000000000000e+04,9.000000000000000567e-05,-2.000000000000000164e-05,-1.199999999999999895e-04,-3.399999999999999702e-04,-2.999999999999999737e-04,8.000000000000000654e-05,-1.899999999999999834e-04,3.099999999999999999e-04,6.000000000000000000e+00,2.500000000000000000e+01
7.052400000000000000e+04,9.000000000000000567e-05,-2.000000000000000164e-05,-1.199999999999999895e-04,-3.399999999999999702e-04,-2.999999999999999737e-04,8.000000000000000654e-05,-1.899999999999999834e-04,3.099999999999999999e-04,6.000000000000000000e+00,2.500000000000000000e+01
7.052500000000000000e+04,9.000000000000000567e-05,-2.000000000000000164e-05,-1.199999999999999895e-04,-3.399999999999999702e-04,-2.999999999999999737e-04,8.000000000000000654e-05,-1.899999999999999834e-04,3.099999999999999999e-04,6.000000000000000000e+00,2.500000000000000000e+01
7.052600000000000000e+04,9.000000000000000567e-05,-2.000000000000000164e-05,-1.199999999999999895e-04,-3.399999999999999702e-04,-2.999999999999999737e-04,8.000000000000000654e-05,-1.899999999999999834e-04,3.099999999999999999e-04,6.000000000000000000e+00,2.500000000000000000e+01
7.052700000000000000e+04,9.000000000000000567e-05,-2.000000000000000164e-05,-1.199999999999999895e-04,-3.399999999999999702e-04,-2.999999999999999737e-04,8.000000000000000654e-05,-1.899999999999999834e-04,3.099999999999999999e-04,6.000000000000000000e+00,2.500000000000000000e+01
7.052800000000000000e+04,9.000000000000000567e-05,-2.000000000000000164e-05,-1.199999999999999895e-04,-3.399999999999999702e-04,-2.999999999999999737e-04,8.000000000000000654e-05,-1.899999999999999834e-04,3.099999999999999999e-04,6.000000000000000000e+00,2.500000000000000000e+01
7.052900000000000000e+04,9.000000000000000567e-05,-2.000000000000000164e-05,-1.199999999999999895e-04,-3.399999999999999702e-04,-2.999999999999999737e-04,8.000000000000000654e-05,-1.899999999999999834e-04,3.099999999999999999e-04,6.000000000000000000e+00,2.500000000000000000e+01
7.053000000000000000e+04,9.000000000000000567e-05,-2.000000000000000164e-05,-1.199999999999999895e-04,-3.399999999999999702e-04,-2.999999999999999737e-04,8.000000000000000654e-05,-1.899999999999999834e-04,3.099999999999999999e-04,6.000000000000000000e+00,2.500000000000000000e+01
7.053100000000000000e+04,9.000000000000000567e-05,-2.000000000000000164e-05,-1.199999999999999895e-04,-3.399999999999999702e-04,-2.999999999999999737e-04,8.000000000000000654e-05,-1.899999999999999834e-04,3.099999999999999999e-04,6.000000000000000000e+00,2.500000000000000000e+01
7.053200000000000000e+04,9.000000000000000567e-05,5.999999999999999474e-05,1.000000000000000048e-04,4.599999999999999597e-04,6.300000000000000261e-04,6.999999999999999387e-05,2.999999999999999737e-05,1.000000000000000048e-04,6.000000000000000000e+00,2.500000000000000000e+01
7.053300000000000000e+04,-9.000000000000000567e-05,-4.000000000000000327e-05,-2.999999999999999737e-05,-5.000000000000000240e-05,-3.799999999999999667e-04,4.000000000000000192e-04,2.000000000000000096e-04,2.999999999999999737e-04,6.000000000000000000e+00,2.500000000000000000e+01
7.053400000000000000e+04,-1.300000000000000157e-04,-4.000000000000000327e-05,-1.000000000000000082e-05,-2.000000000000000164e-05,-2.600000000000000314e-04,2.999999999999999737e-05,-4.000000000000000327e-05,-6.099999999999999737e-04,6.000000000000000000e+00,2.500000000000000000e+01
7.053500000000000000e+04,-1.300000000000000157e-04,-4.000000000000000327e-05,-1.000000000000000082e-05,-2.000000000000000164e-05,-2.600000000000000314e-04,2.999999999999999737e-05,-4.000000000000000327e-05,-6.099999999999999737e-04,6.000000000000000000e+00,2.500000000000000000e+01
7.053600000000000000e+04,-1.300000000000000157e-04,-4.000000000000000327e-05,-1.000000000000000082e-05,-2.000000000000000164e-05,-2.600000000000000314e-04,2.999999999999999737e-05,-4.000000000000000327e-05,-6.099999999999999737e-04,6.000000000000000000e+00,2.500000000000000000e+01
7.053800000000000000e+04,-1.300000000000000157e-04,-4.000000000000000327e-05,-1.000000000000000082e-05,-2.000000000000000164e-05,-2.600000000000000314e-04,2.999999999999999737e-05,-4.000000000000000327e-05,-6.099999999999999737e-04,6.000000000000000000e+00,2.500000000000000000e+01
7.053900000000000000e+04,-1.300000000000000157e-04,-4.000000000000000327e-05,-1.000000000000000082e-05,-2.000000000000000164e-05,-2.600000000000000314e-04,2.999999999999999737e-05,-4.000000000000000327e-05,-6.099999999999999737e-04,6.000000000000000000e+00,2.500000000000000000e+01
7.054000000000000000e+04,-1.300000000000000157e-04,-4.000000000000000327e-05,-1.000000000000000082e-05,-2.000000000000000164e-05,-2.600000000000000314e-04,2.999999999999999737e-05,-4.000000000000000327e-05,-6.099999999999999737e-04,6.000000000000000000e+00,2.500000000000000000e+01
7.054100000000000000e+04,-1.300000000000000157e-04,-4.000000000000000327e-05,-1.000000000000000082e-05,-2.000000000000000164e-05,-2.600000000000000314e-04,2.999999999999999737e-05,-4.000000000000000327e-05,-6.099999999999999737e-04,6.000000000000000000e+00,2.500000000000000000e+01
7.054200000000000000e+04,-1.300000000000000157e-04,-4.000000000000000327e-05,-1.000000000000000082e-05,-2.000000000000000164e-05,-2.600000000000000314e-04,2.999999999999999737e-05,-4.000000000000000327e-05,-6.099999999999999737e-04,6.000000000000000000e+00,2.500000000000000000e+01
7.054300000000000000e+04,-1.300000000000000157e-04,-4.000000000000000327e-05,-1.000000000000000082e-05,-2.000000000000000164e-05,-2.600000000000000314e-04,2.999999999999999737e-05,-4.000000000000000327e-05,-6.099999999999999737e-04,6.000000000000000000e+00,2.500000000000000000e+01
7.054400000000000000e+04,-1.300000000000000157e-04,-4.000000000000000327e-05,-1.000000000000000082e-05,-2.000000000000000164e-05,-2.600000000000000314e-04,2.999999999999999737e-05,-4.000000000000000327e-05,-6.099999999999999737e-04,6.000000000000000000e+00,2.500000000000000000e+01
7.054500000000000000e+04,-1.300000000000000157e-04,-4.000000000000000327e-05,-1.000000000000000082e-05,-2.000000000000000164e-05,-2.600000000000000314e-04,2.999999999999999737e-05,-4.000000000000000327e-05,-6.099999999999999737e-04,6.000000000000000000e+00,2.500000000000000000e+01
7.054600000000000000e+04,-1.300000000000000157e-04,-4.000000000000000327e-05,-1.000000000000000082e-05,-2.000000000000000164e-05,-2.600000000000000314e-04,2.999999999999999737e-05,-4.000000000000000327e-05,-6.099999999999999737e-04,6.000000000000000000e+00,2.500000000000000000e+01
7.054700000000000000e+04,-1.300000000000000157e-04,-4.000000000000000327e-05,-1.000000000000000082e-05,-2.000000000000000164e-05,-2.600000000000000314e-04,2.999999999999999737e-05,-4.000000000000000327e-05,-6.099999999999999737e-04,6.000000000000000000e+00,2.500000000000000000e+01
7.054800000000000000e+04,-1.300000000000000157e-04,-4.000000000000000327e-05,-1.000000000000000082e-05,-2.000000000000000164e-05,-2.600000000000000314e-04,2.999999999999999737e-05,-4.000000000000000327e-05,-6.099999999999999737e-04,6.000000000000000000e+00,2.500000000000000000e+01
7.054900000000000000e+04,-1.300000000000000157e-04,-4.000000000000000327e-05,-1.000000000000000082e-05,-2.000000000000000164e-05,-2.600000000000000314e-04,2.999999999999999737e-05,-4.000000000000000327e-05,-6.099999999999999737e-04,6.000000000000000000e+00,2.500000000000000000e+01
7.055000000000000000e+04,-1.300000000000000157e-04,-4.000000000000000327e-05,-1.000000000000000082e-05,-2.000000000000000164e-05,-2.600000000000000314e-04,2.999999999999999737e-05,-4.000000000000000327e-05,-6.099999999999999737e-04,6.000000000000000000e+00,2.500000000000000000e+01
7.055100000000000000e+04,-1.300000000000000157e-04,-4.000000000000000327e-05,-1.000000000000000082e-05,-2.000000000000000164e-05,-2.600000000000000314e-04,2.999999999999999737e-05,-4.000000000000000327e-05,-6.099999999999999737e-04,6.000000000000000000e+00,2.500000000000000000e+01
7.055200000000000000e+04,-1.300000000000000157e-04,-4.000000000000000327e-05,-1.000000000000000082e-05,-2.000000000000000164e-05,-2.600000000000000314e-04,2.999999999999999737e-05,-4.000000000000000327e-05,-6.099999999999999737e-04,6.000000000000000000e+00,2.500000000000000000e+01
7.055300000000000000e+04,-1.300000000000000157e-04,-4.000000000000000327e-05,-1.000000000000000082e-05,-2.000000000000000164e-05,-2.600000000000000314e-04,2.999999999999999737e-05,-4.000000000000000327e-05,-6.099999999999999737e-04,6.000000000000000000e+00,2.500000000000000000e+01
7.055400000000000000e+04,-1.300000000000000157e-04,-4.000000000000000327e-05,-1.000000000000000082e-05,-2.000000000000000164e-05,-2.600000000000000314e-04,2.999999999999999737e-05,-4.000000000000000327e-05,-6.099999999999999737e-04,6.000000000000000000e+00,2.500000000000000000e+01
7.055500000000000000e+04,6.999999999999999387e-05,2.000000000000000164e-05,-1.000000000000000082e-05,2.000000000000000164e-05,1.000000000000000048e-04,-1.000000000000000048e-04,4.000000000000000327e-05,-2.100000000000000087e-04,6.000000000000000000e+00,2.500000000000000000e+01
7.055600000000000000e+04,6.999999999999999387e-05,2.000000000000000164e-05,-1.000000000000000082e-05,2.000000000000000164e-05,1.000000000000000048e-04,-1.000000000000000048e-04,4.000000000000000327e-05,-2.100000000000000087e-04,6.000000000000000000e+00,2.500000000000000000e+01
7.055700000000000000e+04,-1.000000000000000048e-04,-5.999999999999999474e-05,-6.999999999999999387e-05,-8.000000000000000654e-05,-1.100000000000000039e-04,-4.299999999999999894e-04,-2.799999999999999755e-04,-1.699999999999999851e-04,6.000000000000000000e+00,2.500000000000000000e+01
7.055800000000000000e+04,-1.000000000000000048e-04,-5.999999999999999474e-05,-6.999999999999999387e-05,-8.000000000000000654e-05,-1.100000000000000039e-04,-4.299999999999999894e-04,-2.799999999999999755e-04,-1.699999999999999851e-04,6.000000000000000000e+00,2.500000000000000000e+01
7.055900000000000000e+04,-1.000000000000000048e-04,-5.999999999999999474e-05,-6.999999999999999387e-05,-8.000000000000000654e-05,-1.100000000000000039e-04,-4.299999999999999894e-04,-2.799999999999999755e-04,-1.699999999999999851e-04,6.000000000000000000e+00,2.500000000000000000e+01
7.056000000000000000e+04,-1.000000000000000048e-04,-5.999999999999999474e-05,-6.999999999999999387e-05,-8.000000000000000654e-05,-1.100000000000000039e-04,-4.299999999999999894e-04,-2.799999999999999755e-04,-1.699999999999999851e-04,6.000000000000000000e+00,2.500000000000000000e+01
7.056100000000000000e+04,-1.000000000000000048e-04,-5.999999999999999474e-05,-6.999999999999999387e-05,-8.000000000000000654e-05,-1.100000000000000039e-04,-4.299999999999999894e-04,-2.799999999999999755e-04,-1.699999999999999851e-04,6.000000000000000000e+00,2.500000000000000000e+01
7.056200000000000000e+04,-1.000000000000000048e-04,-5.999999999999999474e-05,-6.999999999999999387e-05,-8.000000000000000654e-05,-1.100000000000000039e-04,-4.299999999999999894e-04,-2.799999999999999755e-04,-1.699999999999999851e-04,6.000000000000000000e+00,2.500000000000000000e+01
7.056300000000000000e+04,-1.000000000000000048e-04,-5.999999999999999474e-05,-6.999999999999999387e-05,-8.000000000000000654e-05,-1.100000000000000039e-04,-4.299999999999999894e-04,-2.799999999999999755e-04,-1.699999999999999851e-04,6.000000000000000000e+00,2.500000000000000000e+01
7.056400000000000000e+04,-1.000000000000000048e-04,-5.999999999999999474e-05,-6.999999999999999387e-05,-8.000000000000000654e-05,-1.100000000000000039e-04,-4.299999999999999894e-04,-2.799999999999999755e-04,-1.699999999999999851e-04,6.000000000000000000e+00,2.500000000000000000e+01
7.056500000000000000e+04,-1.000000000000000048e-04,-5.999999999999999474e-05,-6.999999999999999387e-05,-8.000000000000000654e-05,-1.100000000000000039e-04,-4.299999999999999894e-04,-2.799999999999999755e-04,-1.699999999999999851e-04,6.000000000000000000e+00,2.500000000000000000e+01
7.056600000000000000e+04,-1.000000000000000048e-04,-5.999999999999999474e-05,-6.999999999999999387e-05,-8.000000000000000654e-05,-1.100000000000000039e-04,-4.299999999999999894e-04,-2.799999999999999755e-04,-1.699999999999999851e-04,6.000000000000000000e+00,2.500000000000000000e+01
7.056700000000000000e+04,-1.000000000000000048e-04,-5.999999999999999474e-05,-6.999999999999999387e-05,-8.000000000000000654e-05,-1.100000000000000039e-04,-4.299999999999999894e-04,-2.799999999999999755e-04,-1.699999999999999851e-04,6.000000000000000000e+00,2.500000000000000000e+01
7.056800000000000000e+04,-1.000000000000000048e-04,-5.999999999999999474e-05,-6.999999999999999387e-05,-8.000000000000000654e-05,-1.100000000000000039e-04,-4.299999999999999894e-04,-2.799999999999999755e-04,-1.699999999999999851e-04,6.000000000000000000e+00,2.500000000000000000e+01
7.056900000000000000e+04,6.999999999999999387e-05,-2.000000000000000164e-05,-4.000000000000000327e-05,-6.999999999999999387e-05,-2.700000000000000035e-04,-2.999999999999999737e-05,-4.000000000000000327e-05,3.699999999999999947e-04,6.000000000000000000e+00,2.500000000000000000e+01
7.057000000000000000e+04,6.999999999999999387e-05,-2.000000000000000164e-05,-4.000000000000000327e-05,-6.999999999999999387e-05,-2.700000000000000035e-04,-2.999999999999999737e-05,-4.000000000000000327e-05,3.699999999999999947e-04,6.000000000000000000e+00,2.500000000000000000e+01
7.057100000000000000e+04,6.999999999999999387e-05,-2.000000000000000164e-05,-4.000000000000000327e-05,-6.999999999999999387e-05,-2.700000000000000035e-04,-2.999999999999999737e-05,-4.000000000000000327e-05,3.699999999999999947e-04,6.000000000000000000e+00,2.500000000000000000e+01
7.057200000000000000e+04,6.999999999999999387e-05,-2.000000000000000164e-05,-4.000000000000000327e-05,-6.999999999999999387e-05,-2.700000000000000035e-04,-2.999999999999999737e-05,-4.000000000000000327e-05,3.699999999999999947e-04,6.000000000000000000e+00,2.500000000000000000e+01
7.057300000000000000e+04,6.999999999999999387e-05,-2.000000000000000164e-05,-4.000000000000000327e-05,-6.999999999999999387e-05,-2.700000000000000035e-04,-2.999999999999999737e-05,-4.000000000000000327e-05,3.699999999999999947e-04,6.000000000000000000e+00,2.500000000000000000e+01
7.057400000000000000e+04,6.999999999999999387e-05,-2.000000000000000164e-05,-4.000000000000000327e-05,-6.999999999999999387e-05,-2.700000000000000035e-04,-2.999999999999999737e-05,-4.000000000000000327e-05,3.699999999999999947e-04,6.000000000000000000e+00,2.500000000000000000e+01
7.057500000000000000e+04,6.999999999999999387e-05,-2.000000000000000164e-05,-4.000000000000000327e-05,-6.999999999999999387e-05,-2.700000000000000035e-04,-2.999999999999999737e-05,-4.000000000000000327e-05,3.699999999999999947e-04,6.000000000000000000e+00,2.500000000000000000e+01
7.057600000000000000e+04,9.000000000000000567e-05,2.999999999999999737e-05,2.999999999999999737e-05,1.499999999999999869e-04,3.899999999999999929e-04,7.099999999999999107e-04,1.000000000000000082e-05,3.600000000000000227e-04,6.000000000000000000e+00,2.500000000000000000e+01
7.057700000000000000e+04,2.999999999999999737e-05,6.999999999999999387e-05,6.999999999999999387e-05,1.399999999999999877e-04,2.000000000000000164e-05,1.899999999999999834e-04,2.999999999999999737e-04,4.299999999999999894e-04,6.000000000000000000e+00,2.500000000000000000e+01
7.057800000000000000e+04,2.999999999999999737e-05,6.999999999999999387e-05,6.999999999999999387e-05,1.399999999999999877e-04,2.000000000000000164e-05,1.899999999999999834e-04,2.999999999999999737e-04,4.299999999999999894e-04,6.000000000000000000e+00,2.500000000000000000e+01
7.057900000000000000e+04,2.999999999999999737e-05,6.999999999999999387e-05,6.999999999999999387e-05,1.399999999999999877e-04,2.000000000000000164e-05,1.899999999999999834e-04,2.999999999999999737e-04,4.299999999999999894e-04,6.000000000000000000e+00,2.500000000000000000e+01
7.058000000000000000e+04,2.999999999999999737e-05,6.999999999999999387e-05,6.999999999999999387e-05,1.399999999999999877e-04,2.000000000000000164e-05,1.899999999999999834e-04,2.999999999999999737e-04,4.299999999999999894e-04,6.000000000000000000e+00,2.500000000000000000e+01
7.058100000000000000e+04,2.999999999999999737e-05,6.999999999999999387e-05,6.999999999999999387e-05,1.399999999999999877e-04,2.000000000000000164e-05,1.899999999999999834e-04,2.999999999999999737e-04,4.299999999999999894e-04,6.000000000000000000e+00,2.500000000000000000e+01
7.058200000000000000e+04,2.999999999999999737e-05,6.999999999999999387e-05,6.999999999999999387e-05,1.399999999999999877e-04,2.000000000000000164e-05,1.899999999999999834e-04,2.999999999999999737e-04,4.299999999999999894e-04,6.000000000000000000e+00,2.500000000000000000e+01
7.058300000000000000e+04,2.999999999999999737e-05,6.999999999999999387e-05,6.999999999999999387e-05,1.399999999999999877e-04,2.000000000000000164e-05,1.899999999999999834e-04,2.999999999999999737e-04,4.299999999999999894e-04,6.000000000000000000e+00,2.500000000000000000e+01
7.058400000000000000e+04,2.999999999999999737e-05,6.999999999999999387e-05,6.999999999999999387e-05,1.399999999999999877e-04,2.000000000000000164e-05,1.899999999999999834e-04,2.999999999999999737e-04,4.299999999999999894e-04,6.000000000000000000e+00,2.500000000000000000e+01
7.058500000000000000e+04,2.999999999999999737e-05,6.999999999999999387e-05,6.999999999999999387e-05,1.399999999999999877e-04,2.000000000000000164e-05,1.899999999999999834e-04,2.999999999999999737e-04,4.299999999999999894e-04,6.000000000000000000e+00,2.500000000000000000e+01
7.058600000000000000e+04,2.999999999999999737e-05,6.999999999999999387e-05,6.999999999999999387e-05,1.399999999999999877e-04,2.000000000000000164e-05,1.899999999999999834e-04,2.999999999999999737e-04,4.299999999999999894e-04,6.000000000000000000e+00,2.500000000000000000e+01
7.058800000000000000e+04,2.999999999999999737e-05,6.999999999999999387e-05,6.999999999999999387e-05,1.399999999999999877e-04,2.000000000000000164e-05,1.899999999999999834e-04,2.999999999999999737e-04,4.299999999999999894e-04,6.000000000000000000e+00,2.500000000000000000e+01
7.058900000000000000e+04,2.999999999999999737e-05,6.999999999999999387e-05,6.999999999999999387e-05,1.399999999999999877e-04,2.000000000000000164e-05,1.899999999999999834e-04,2.999999999999999737e-04,4.299999999999999894e-04,6.000000000000000000e+00,2.500000000000000000e+01
7.059000000000000000e+04,2.999999999999999737e-05,6.999999999999999387e-05,6.999999999999999387e-05,1.399999999999999877e-04,2.000000000000000164e-05,1.899999999999999834e-04,2.999999999999999737e-04,4.299999999999999894e-04,6.000000000000000000e+00,2.500000000000000000e+01
7.059100000000000000e+04,2.999999999999999737e-05,6.999999999999999387e-05,6.999999999999999387e-05,1.399999999999999877e-04,2.000000000000000164e-05,1.899999999999999834e-04,2.999999999999999737e-04,4.299999999999999894e-04,6.000000000000000000e+00,2.500000000000000000e+01
7.059200000000000000e+04,2.999999999999999737e-05,6.999999999999999387e-05,6.999999999999999387e-05,1.399999999999999877e-04,2.000000000000000164e-05,1.899999999999999834e-04,2.999999999999999737e-04,4.299999999999999894e-04,6.000000000000000000e+00,2.500000000000000000e+01
7.059300000000000000e+04,2.999999999999999737e-05,1.000000000000000082e-05,-2.999999999999999737e-05,-4.000000000000000327e-05,2.000000000000000164e-05,-2.799999999999999755e-04,-5.999999999999999474e-05,1.300000000000000157e-04,6.000000000000000000e+00,2.500000000000000000e+01
7.059400000000000000e+04,-1.300000000000000157e-04,-5.999999999999999474e-05,-2.000000000000000164e-05,5.999999999999999474e-05,5.000000000000000240e-05,1.699999999999999851e-04,1.100000000000000039e-04,-9.000000000000000567e-05,6.000000000000000000e+00,2.500000000000000000e+01
7.059500000000000000e+04,-1.300000000000000157e-04,-5.999999999999999474e-05,-2.000000000000000164e-05,5.999999999999999474e-05,5.000000000000000240e-05,1.699999999999999851e-04,1.100000000000000039e-04,-9.000000000000000567e-05,6.000000000000000000e+00,2.500000000000000000e+01
7.059600000000000000e+04,-1.300000000000000157e-04,-5.999999999999999474e-05,-2.000000000000000164e-05,5.999999999999999474e-05,5.000000000000000240e-05,1.699999999999999851e-04,1.100000000000000039e-04,-9.000000000000000567e-05,6.000000000000000000e+00,2.500000000000000000e+01
7.059700000000000000e+04,-1.300000000000000157e-04,-5.999999999999999474e-05,-2.000000000000000164e-05,5.999999999999999474e-05,5.000000000000000240e-05,1.699999999999999851e-04,1.100000000000000039e-04,-9.000000000000000567e-05,6.000000000000000000e+00,2.500000000000000000e+01
7.059800000000000000e+04,-1.300000000000000157e-04,-5.999999999999999474e-05,-2.000000000000000164e-05,5.999999999999999474e-05,5.000000000000000240e-05,1.699999999999999851e-04,1.100000000000000039e-04,-9.000000000000000567e-05,6.000000000000000000e+00,2.500000000000000000e+01
7.059900000000000000e+04,-1.300000000000000157e-04,-5.999999999999999474e-05,-2.000000000000000164e-05,5.999999999999999474e-05,5.000000000000000240e-05,1.699999999999999851e-04,1.100000000000000039e-04,-9.000000000000000567e-05,6.000000000000000000e+00,2.500000000000000000e+01
7.060000000000000000e+04,-1.300000000000000157e-04,-5.999999999999999474e-05,-2.000000000000000164e-05,5.999999999999999474e-05,5.000000000000000240e-05,1.699999999999999851e-04,1.100000000000000039e-04,-9.000000000000000567e-05,6.000000000000000000e+00,2.500000000000000000e+01
7.060100000000000000e+04,-1.300000000000000157e-04,-5.999999999999999474e-05,-2.000000000000000164e-05,5.999999999999999474e-05,5.000000000000000240e-05,1.699999999999999851e-04,1.100000000000000039e-04,-9.000000000000000567e-05,6.000000000000000000e+00,2.500000000000000000e+01
7.060200000000000000e+04,-1.300000000000000157e-04,-5.999999999999999474e-05,-2.000000000000000164e-05,5.999999999999999474e-05,5.000000000000000240e-05,1.699999999999999851e-04,1.100000000000000039e-04,-9.000000000000000567e-05,6.000000000000000000e+00,2.500000000000000000e+01
7.060300000000000000e+04,-1.300000000000000157e-04,-5.999999999999999474e-05,-2.000000000000000164e-05,5.999999999999999474e-05,5.000000000000000240e-05,1.699999999999999851e-04,1.100000000000000039e-04,-9.000000000000000567e-05,6.000000000000000000e+00,2.500000000000000000e+01
7.060400000000000000e+04,-1.300000000000000157e-04,-5.999999999999999474e-05,-2.000000000000000164e-05,5.999999999999999474e-05,5.000000000000000240e-05,1.699999999999999851e-04,1.100000000000000039e-04,-9.000000000000000567e-05,6.000000000000000000e+00,2.500000000000000000e+01
7.060500000000000000e+04,-1.300000000000000157e-04,-5.999999999999999474e-05,-2.000000000000000164e-05,5.999999999999999474e-05,5.000000000000000240e-05,1.699999999999999851e-04,1.100000000000000039e-04,-9.000000000000000567e-05,6.000000000000000000e+00,2.500000000000000000e+01
7.060600000000000000e+04,-1.300000000000000157e-04,-5.999999999999999474e-05,-2.000000000000000164e-05,5.999999999999999474e-05,5.000000000000000240e-05,1.699999999999999851e-04,1.100000000000000039e-04,-9.000000000000000567e-05,6.000000000000000000e+00,2.500000000000000000e+01
7.060700000000000000e+04,-1.300000000000000157e-04,-5.999999999999999474e-05,-2.000000000000000164e-05,5.999999999999999474e-05,5.000000000000000240e-05,1.699999999999999851e-04,1.100000000000000039e-04,-9.000000000000000567e-05,6.000000000000000000e+00,2.500000000000000000e+01
7.060800000000000000e+04,-1.300000000000000157e-04,-5.999999999999999474e-05,-2.000000000000000164e-05,5.999999999999999474e-05,5.000000000000000240e-05,1.699999999999999851e-04,1.100000000000000039e-04,-9.000000000000000567e-05,6.000000000000000000e+00,2.500000000000000000e+01
7.060900000000000000e+04,-1.300000000000000157e-04,-5.999999999999999474e-05,-2.000000000000000164e-05,5.999999999999999474e-05,5.000000000000000240e-05,1.699999999999999851e-04,1.100000000000000039e-04,-9.000000000000000567e-05,6.000000000000000000e+00,2.500000000000000000e+01
7.061000000000000000e+04,-1.300000000000000157e-04,-5.999999999999999474e-05,-2.000000000000000164e-05,5.999999999999999474e-05,5.000000000000000240e-05,1.699999999999999851e-04,1.100000000000000039e-04,-9.000000000000000567e-05,6.000000000000000000e+00,2.500000000000000000e+01
7.061100000000000000e+04,-1.300000000000000157e-04,-5.999999999999999474e-05,-2.000000000000000164e-05,5.999999999999999474e-05,5.000000000000000240e-05,1.699999999999999851e-04,1.100000000000000039e-04,-9.000000000000000567e-05,6.000000000000000000e+00,2.500000000000000000e+01
7.061200000000000000e+04,-1.300000000000000157e-04,-5.999999999999999474e-05,-2.000000000000000164e-05,5.999999999999999474e-05,5.000000000000000240e-05,1.699999999999999851e-04,1.100000000000000039e-04,-9.000000000000000567e-05,6.000000000000000000e+00,2.500000000000000000e+01
7.061300000000000000e+04,-1.300000000000000157e-04,-5.999999999999999474e-05,-2.000000000000000164e-05,5.999999999999999474e-05,5.000000000000000240e-05,1.699999999999999851e-04,1.100000000000000039e-04,-9.000000000000000567e-05,6.000000000000000000e+00,2.500000000000000000e+01
7.061400000000000000e+04,-1.300000000000000157e-04,-5.999999999999999474e-05,-2.000000000000000164e-05,5.999999999999999474e-05,5.000000000000000240e-05,1.699999999999999851e-04,1.100000000000000039e-04,-9.000000000000000567e-05,6.000000000000000000e+00,2.500000000000000000e+01
7.061500000000000000e+04,-2.000000000000000164e-05,-1.000000000000000082e-05,-2.000000000000000164e-05,-5.000000000000000240e-05,-2.500000000000000052e-04,-4.200000000000000174e-04,-1.300000000000000157e-04,-3.099999999999999999e-04,6.000000000000000000e+00,2.500000000000000000e+01
7.061600000000000000e+04,1.100000000000000039e-04,5.000000000000000240e-05,5.000000000000000240e-05,0.000000000000000000e+00,-3.600000000000000227e-04,-9.599999999999999159e-04,1.399999999999999877e-04,8.400000000000000348e-04,6.000000000000000000e+00,2.500000000000000000e+01
7.061700000000000000e+04,6.999999999999999387e-05,4.000000000000000327e-05,0.000000000000000000e+00,-1.000000000000000082e-05,2.600000000000000314e-04,5.599999999999999509e-04,2.999999999999999737e-05,-3.399999999999999702e-04,6.000000000000000000e+00,2.500000000000000000e+01
7.061800000000000000e+04,6.999999999999999387e-05,4.000000000000000327e-05,0.000000000000000000e+00,-1.000000000000000082e-05,2.600000000000000314e-04,5.599999999999999509e-04,2.999999999999999737e-05,-3.399999999999999702e-04,6.000000000000000000e+00,2.500000000000000000e+01
7.061900000000000000e+04,6.999999999999999387e-05,4.000000000000000327e-05,0.000000000000000000e+00,-1.000000000000000082e-05,2.600000000000000314e-04,5.599999999999999509e-04,2.999999999999999737e-05,-3.399999999999999702e-04,6.000000000000000000e+00,2.500000000000000000e+01
7.062000000000000000e+04,6.999999999999999387e-05,4.000000000000000327e-05,0.000000000000000000e+00,-1.000000000000000082e-05,2.600000000000000314e-04,5.599999999999999509e-04,2.999999999999999737e-05,-3.399999999999999702e-04,6.000000000000000000e+00,2.500000000000000000e+01
7.062100000000000000e+04,6.999999999999999387e-05,4.000000000000000327e-05,0.000000000000000000e+00,-1.000000000000000082e-05,2.600000000000000314e-04,5.599999999999999509e-04,2.999999999999999737e-05,-3.399999999999999702e-04,6.000000000000000000e+00,2.500000000000000000e+01
7.062200000000000000e+04,6.999999999999999387e-05,4.000000000000000327e-05,0.000000000000000000e+00,-1.000000000000000082e-05,2.600000000000000314e-04,5.599999999999999509e-04,2.999999999999999737e-05,-3.399999999999999702e-04,6.000000000000000000e+00,2.500000000000000000e+01
7.062300000000000000e+04,6.999999999999999387e-05,4.000000000000000327e-05,0.000000000000000000e+00,-1.000000000000000082e-05,2.600000000000000314e-04,5.599999999999999509e-04,2.999999999999999737e-05,-3.399999999999999702e-04,6.000000000000000000e+00,2.500000000000000000e+01
7.062400000000000000e+04,6.999999999999999387e-05,4.000000000000000327e-05,0.000000000000000000e+00,-1.000000000000000082e-05,2.600000000000000314e-04,5.599999999999999509e-04,2.999999999999999737e-05,-3.399999999999999702e-04,6.000000000000000000e+00,2.500000000000000000e+01
7.062500000000000000e+04,6.999999999999999387e-05,4.000000000000000327e-05,0.000000000000000000e+00,-1.000000000000000082e-05,2.600000000000000314e-04,5.599999999999999509e-04,2.999999999999999737e-05,-3.399999999999999702e-04,6.000000000000000000e+00,2.500000000000000000e+01
7.062600000000000000e+04,6.999999999999999387e-05,4.000000000000000327e-05,0.000000000000000000e+00,-1.000000000000000082e-05,2.600000000000000314e-04,5.599999999999999509e-04,2.999999999999999737e-05,-3.399999999999999702e-04,6.000000000000000000e+00,2.500000000000000000e+01
7.062700000000000000e+04,6.999999999999999387e-05,4.000000000000000327e-05,0.000000000000000000e+00,-1.000000000000000082e-05,2.600000000000000314e-04,5.599999999999999509e-04,2.999999999999999737e-05,-3.399999999999999702e-04,6.000000000000000000e+00,2.500000000000000000e+01
7.062800000000000000e+04,6.999999999999999387e-05,4.000000000000000327e-05,0.000000000000000000e+00,-1.000000000000000082e-05,2.600000000000000314e-04,5.599999999999999509e-04,2.999999999999999737e-05,-3.399999999999999702e-04,6.000000000000000000e+00,2.500000000000000000e+01
7.062900000000000000e+04,8.000000000000000654e-05,-2.999999999999999737e-05,-5.000000000000000240e-05,-1.699999999999999851e-04,-4.499999999999999877e-04,-2.799999999999999755e-04,-2.500000000000000052e-04,2.999999999999999737e-05,6.000000000000000000e+00,2.500000000000000000e+01
7.063000000000000000e+04,8.000000000000000654e-05,-2.999999999999999737e-05,-5.000000000000000240e-05,-1.699999999999999851e-04,-4.499999999999999877e-04,-2.799999999999999755e-04,-2.500000000000000052e-04,2.999999999999999737e-05,6.000000000000000000e+00,2.500000000000000000e+01
7.063100000000000000e+04,8.000000000000000654e-05,-2.999999999999999737e-05,-5.000000000000000240e-05,-1.699999999999999851e-04,-4.499999999999999877e-04,-2.799999999999999755e-04,-2.500000000000000052e-04,2.999999999999999737e-05,6.000000000000000000e+00,2.500000000000000000e+01
7.063200000000000000e+04,8.000000000000000654e-05,-2.999999999999999737e-05,-5.000000000000000240e-05,-1.699999999999999851e-04,-4.499999999999999877e-04,-2.799999999999999755e-04,-2.500000000000000052e-04,2.999999999999999737e-05,6.000000000000000000e+00,2.500000000000000000e+01
7.063300000000000000e+04,8.000000000000000654e-05,-2.999999999999999737e-05,-5.000000000000000240e-05,-1.699999999999999851e-04,-4.499999999999999877e-04,-2.799999999999999755e-04,-2.500000000000000052e-04,2.999999999999999737e-05,6.000000000000000000e+00,2.500000000000000000e+01
7.063400000000000000e+04,8.000000000000000654e-05,-2.999999999999999737e-05,-5.000000000000000240e-05,-1.699999999999999851e-04,-4.499999999999999877e-04,-2.799999999999999755e-04,-2.500000000000000052e-04,2.999999999999999737e-05,6.000000000000000000e+00,2.500000000000000000e+01
7.063500000000000000e+04,8.000000000000000654e-05,-2.999999999999999737e-05,-5.000000000000000240e-05,-1.699999999999999851e-04,-4.499999999999999877e-04,-2.799999999999999755e-04,-2.500000000000000052e-04,2.999999999999999737e-05,6.000000000000000000e+00,2.500000000000000000e+01
7.063600000000000000e+04,-1.000000000000000048e-04,-2.000000000000000164e-05,0.000000000000000000e+00,-6.999999999999999387e-05,-2.500000000000000052e-04,-4.400000000000000157e-04,2.000000000000000164e-05,-4.000000000000000327e-05,6.000000000000000000e+00,2.500000000000000000e+01
7.063800000000000000e+04,-1.000000000000000048e-04,-2.000000000000000164e-05,0.000000000000000000e+00,-6.999999999999999387e-05,-2.500000000000000052e-04,-4.400000000000000157e-04,2.000000000000000164e-05,-4.000000000000000327e-05,6.000000000000000000e+00,2.500000000000000000e+01
7.063900000000000000e+04,-1.000000000000000048e-04,-2.000000000000000164e-05,0.000000000000000000e+00,-6.999999999999999387e-05,-2.500000000000000052e-04,-4.400000000000000157e-04,2.000000000000000164e-05,-4.000000000000000327e-05,6.000000000000000000e+00,2.500000000000000000e+01
7.064000000000000000e+04,-1.000000000000000048e-04,-2.000000000000000164e-05,0.000000000000000000e+00,-6.999999999999999387e-05,-2.500000000000000052e-04,-4.400000000000000157e-04,2.000000000000000164e-05,-4.000000000000000327e-05,6.000000000000000000e+00,2.500000000000000000e+01
7.064100000000000000e+04,-1.000000000000000048e-04,-2.000000000000000164e-05,0.000000000000000000e+00,-6.999999999999999387e-05,-2.500000000000000052e-04,-4.400000000000000157e-04,2.000000000000000164e-05,-4.000000000000000327e-05,6.000000000000000000e+00,2.500000000000000000e+01
7.064200000000000000e+04,-1.000000000000000048e-04,-2.000000000000000164e-05,0.000000000000000000e+00,-6.999999999999999387e-05,-2.500000000000000052e-04,-4.400000000000000157e-04,2.000000000000000164e-05,-4.000000000000000327e-05,6.000000000000000000e+00,2.500000000000000000e+01
7.064300000000000000e+04,-1.000000000000000048e-04,-2.000000000000000164e-05,0.000000000000000000e+00,-6.999999999999999387e-05,-2.500000000000000052e-04,-4.400000000000000157e-04,2.000000000000000164e-05,-4.000000000000000327e-05,6.000000000000000000e+00,2.500000000000000000e+01
7.064400000000000000e+04,-1.000000000000000048e-04,-2.000000000000000164e-05,0.000000000000000000e+00,-6.999999999999999387e-05,-2.500000000000000052e-04,-4.400000000000000157e-04,2.000000000000000164e-05,-4.000000000000000327e-05,6.000000000000000000e+00,2.500000000000000000e+01
7.064500000000000000e+04,-1.000000000000000048e-04,-2.000000000000000164e-05,0.000000000000000000e+00,-6.999999999999999387e-05,-2.500000000000000052e-04,-4.400000000000000157e-04,2.000000000000000164e-05,-4.000000000000000327e-05,6.000000000000000000e+00,2.500000000000000000e+01
7.064600000000000000e+04,-1.000000000000000048e-04,-2.000000000000000164e-05,0.000000000000000000e+00,-6.999999999999999387e-05,-2.500000000000000052e-04,-4.400000000000000157e-04,2.000000000000000164e-05,-4.000000000000000327e-05,6.000000000000000000e+00,2.500000000000000000e+01
7.064700000000000000e+04,-1.000000000000000048e-04,-2.000000000000000164e-05,0.000000000000000000e+00,-6.999999999999999387e-05,-2.500000000000000052e-04,-4.400000000000000157e-04,2.000000000000000164e-05,-4.000000000000000327e-05,6.000000000000000000e+00,2.500000000000000000e+01
7.064800000000000000e+04,-1.000000000000000048e-04,-2.000000000000000164e-05,0.000000000000000000e+00,-6.999999999999999387e-05,-2.500000000000000052e-04,-4.400000000000000157e-04,2.000000000000000164e-05,-4.000000000000000327e-05,6.000000000000000000e+00,2.500000000000000000e+01
7.064900000000000000e+04,-1.000000000000000048e-04,-2.000000000000000164e-05,0.000000000000000000e+00,-6.999999999999999387e-05,-2.500000000000000052e-04,-4.400000000000000157e-04,2.000000000000000164e-05,-4.000000000000000327e-05,6.000000000000000000e+00,2.500000000000000000e+01
7.065000000000000000e+04,-1.000000000000000048e-04,-2.000000000000000164e-05,0.000000000000000000e+00,-6.999999999999999387e-05,-2.500000000000000052e-04,-4.400000000000000157e-04,2.000000000000000164e-05,-4.000000000000000327e-05,6.000000000000000000e+00,2.500000000000000000e+01
7.065100000000000000e+04,-1.000000000000000048e-04,-2.000000000000000164e-05,0.000000000000000000e+00,-6.999999999999999387e-05,-2.500000000000000052e-04,-4.400000000000000157e-04,2.000000000000000164e-05,-4.000000000000000327e-05,6.000000000000000000e+00,2.500000000000000000e+01
7.065200000000000000e+04,4.000000000000000327e-05,1.000000000000000082e-05,-2.999999999999999737e-05,-1.800000000000000113e-04,-2.299999999999999799e-04,2.000000000000000164e-05,-4.000000000000000327e-05,-3.799999999999999667e-04,6.000000000000000000e+00,2.500000000000000000e+01
7.065300000000000000e+04,2.999999999999999737e-05,2.000000000000000164e-05,2.999999999999999737e-05,5.000000000000000240e-05,-9.000000000000000567e-05,8.099999999999999561e-04,1.699999999999999851e-04,2.299999999999999799e-04,6.000000000000000000e+00,2.500000000000000000e+01
7.065400000000000000e+04,1.199999999999999895e-04,0.000000000000000000e+00,2.999999999999999737e-05,9.000000000000000567e-05,-1.000000000000000082e-05,7.299999999999999632e-04,-2.100000000000000087e-04,4.599999999999999597e-04,6.000000000000000000e+00,2.500000000000000000e+01
7.065500000000000000e+04,1.199999999999999895e-04,0.000000000000000000e+00,2.999999999999999737e-05,9.000000000000000567e-05,-1.000000000000000082e-05,7.299999999999999632e-04,-2.100000000000000087e-04,4.599999999999999597e-04,6.000000000000000000e+00,2.500000000000000000e+01
7.065600000000000000e+04,1.199999999999999895e-04,0.000000000000000000e+00,2.999999999999999737e-05,9.000000000000000567e-05,-1.000000000000000082e-05,7.299999999999999632e-04,-2.100000000000000087e-04,4.599999999999999597e-04,6.000000000000000000e+00,2.500000000000000000e+01
7.065700000000000000e+04,1.199999999999999895e-04,0.000000000000000000e+00,2.999999999999999737e-05,9.000000000000000567e-05,-1.000000000000000082e-05,7.299999999999999632e-04,-2.100000000000000087e-04,4.599999999999999597e-04,6.000000000000000000e+00,2.500000000000000000e+01
7.065800000000000000e+04,1.199999999999999895e-04,0.000000000000000000e+00,2.999999999999999737e-05,9.000000000000000567e-05,-1.000000000000000082e-05,7.299999999999999632e-04,-2.100000000000000087e-04,4.599999999999999597e-04,6.000000000000000000e+00,2.500000000000000000e+01
7.065900000000000000e+04,1.199999999999999895e-04,0.000000000000000000e+00,2.999999999999999737e-05,9.000000000000000567e-05,-1.000000000000000082e-05,7.299999999999999632e-04,-2.100000000000000087e-04,4.599999999999999597e-04,6.000000000000000000e+00,2.500000000000000000e+01
7.066000000000000000e+04,1.199999999999999895e-04,0.000000000000000000e+00,2.999999999999999737e-05,9.000000000000000567e-05,-1.000000000000000082e-05,7.299999999999999632e-04,-2.100000000000000087e-04,4.599999999999999597e-04,6.000000000000000000e+00,2.500000000000000000e+01
7.066100000000000000e+04,1.199999999999999895e-04,0.000000000000000000e+00,2.999999999999999737e-05,9.000000000000000567e-05,-1.000000000000000082e-05,7.299999999999999632e-04,-2.100000000000000087e-04,4.599999999999999597e-04,6.000000000000000000e+00,2.500000000000000000e+01
7.066200000000000000e+04,1.199999999999999895e-04,0.000000000000000000e+00,2.999999999999999737e-05,9.000000000000000567e-05,-1.000000000000000082e-05,7.299999999999999632e-04,-2.100000000000000087e-04,4.599999999999999597e-04,6.000000000000000000e+00,2.500000000000000000e+01
7.066300000000000000e+04,1.199999999999999895e-04,0.000000000000000000e+00,2.999999999999999737e-05,9.000000000000000567e-05,-1.000000000000000082e-05,7.299999999999999632e-04,-2.100000000000000087e-04,4.599999999999999597e-04,6.000000000000000000e+00,2.500000000000000000e+01
7.066400000000000000e+04,1.199999999999999895e-04,0.000000000000000000e+00,2.999999999999999737e-05,9.000000000000000567e-05,-1.000000000000000082e-05,7.299999999999999632e-04,-2.100000000000000087e-04,4.599999999999999597e-04,6.000000000000000000e+00,2.500000000000000000e+01
7.066500000000000000e+04,1.199999999999999895e-04,0.000000000000000000e+00,2.999999999999999737e-05,9.000000000000000567e-05,-1.000000000000000082e-05,7.299999999999999632e-04,-2.100000000000000087e-04,4.599999999999999597e-04,6.000000000000000000e+00,2.500000000000000000e+01
7.066600000000000000e+04,1.199999999999999895e-04,0.000000000000000000e+00,2.999999999999999737e-05,9.000000000000000567e-05,-1.000000000000000082e-05,7.299999999999999632e-04,-2.100000000000000087e-04,4.599999999999999597e-04,6.000000000000000000e+00,2.500000000000000000e+01
7.066700000000000000e+04,1.199999999999999895e-04,0.000000000000000000e+00,2.999999999999999737e-05,9.000000000000000567e-05,-1.000000000000000082e-05,7.299999999999999632e-04,-2.100000000000000087e-04,4.599999999999999597e-04,6.000000000000000000e+00,2.500000000000000000e+01
7.066800000000000000e+04,1.199999999999999895e-04,0.000000000000000000e+00,2.999999999999999737e-05,9.000000000000000567e-05,-1.000000000000000082e-05,7.299999999999999632e-04,-2.100000000000000087e-04,4.599999999999999597e-04,6.000000000000000000e+00,2.500000000000000000e+01
7.066900000000000000e+04,1.199999999999999895e-04,0.000000000000000000e+00,2.999999999999999737e-05,9.000000000000000567e-05,-1.000000000000000082e-05,7.299999999999999632e-04,-2.100000000000000087e-04,4.599999999999999597e-04,6.000000000000000000e+00,2.500000000000000000e+01
7.067000000000000000e+04,1.199999999999999895e-04,0.000000000000000000e+00,2.999999999999999737e-05,9.000000000000000567e-05,-1.000000000000000082e-05,7.299999999999999632e-04,-2.100000000000000087e-04,4.599999999999999597e-04,6.000000000000000000e+00,2.500000000000000000e+01
7.067100000000000000e+04,1.199999999999999895e-04,0.000000000000000000e+00,2.999999999999999737e-05,9.000000000000000567e-05,-1.000000000000000082e-05,7.299999999999999632e-04,-2.100000000000000087e-04,4.599999999999999597e-04,6.000000000000000000e+00,2.500000000000000000e+01
7.067200000000000000e+04,1.199999999999999895e-04,0.000000000000000000e+00,2.999999999999999737e-05,9.000000000000000567e-05,-1.000000000000000082e-05,7.299999999999999632e-04,-2.100000000000000087e-04,4.599999999999999597e-04,6.000000000000000000e+00,2.500000000000000000e+01
7.067300000000000000e+04,1.199999999999999895e-04,0.000000000000000000e+00,2.999999999999999737e-05,9.000000000000000567e-05,-1.000000000000000082e-05,7.299999999999999632e-04,-2.100000000000000087e-04,4.599999999999999597e-04,6.000000000000000000e+00,2.500000000000000000e+01
7.067400000000000000e+04,1.199999999999999895e-04,0.000000000000000000e+00,2.999999999999999737e-05,9.000000000000000567e-05,-1.000000000000000082e-05,7.299999999999999632e-04,-2.100000000000000087e-04,4.599999999999999597e-04,6.000000000000000000e+00,2.500000000000000000e+01
7.067500000000000000e+04,-2.999999999999999737e-05,2.000000000000000164e-05,2.000000000000000164e-05,6.999999999999999387e-05,6.099999999999999737e-04,4.000000000000000327e-05,-1.000000000000000048e-04,-5.599999999999999509e-04,6.000000000000000000e+00,2.500000000000000000e+01
7.067600000000000000e+04,-2.999999999999999737e-05,2.000000000000000164e-05,2.000000000000000164e-05,6.999999999999999387e-05,6.099999999999999737e-04,4.000000000000000327e-05,-1.000000000000000048e-04,-5.599999999999999509e-04,6.000000000000000000e+00,2.500000000000000000e+01
7.067700000000000000e+04,1.000000000000000082e-05,-1.000000000000000082e-05,-2.000000000000000164e-05,-9.000000000000000567e-05,1.000000000000000048e-04,-1.199999999999999895e-04,-1.000000000000000082e-05,-2.399999999999999790e-04,6.000000000000000000e+00,2.500000000000000000e+01
7.067800000000000000e+04,1.000000000000000082e-05,-1.000000000000000082e-05,-2.000000000000000164e-05,-9.000000000000000567e-05,1.000000000000000048e-04,-1.199999999999999895e-04,-1.000000000000000082e-05,-2.399999999999999790e-04,6.000000000000000000e+00,2.500000000000000000e+01
7.067900000000000000e+04,1.000000000000000082e-05,-1.000000000000000082e-05,-2.000000000000000164e-05,-9.000000000000000567e-05,1.000000000000000048e-04,-1.199999999999999895e-04,-1.000000000000000082e-05,-2.399999999999999790e-04,6.000000000000000000e+00,2.500000000000000000e+01
7.068000000000000000e+04,1.000000000000000082e-05,-1.000000000000000082e-05,-2.000000000000000164e-05,-9.000000000000000567e-05,1.000000000000000048e-04,-1.199999999999999895e-04,-1.000000000000000082e-05,-2.399999999999999790e-04,6.000000000000000000e+00,2.500000000000000000e+01
7.068100000000000000e+04,1.000000000000000082e-05,-1.000000000000000082e-05,-2.000000000000000164e-05,-9.000000000000000567e-05,1.000000000000000048e-04,-1.199999999999999895e-04,-1.000000000000000082e-05,-2.399999999999999790e-04,6.000000000000000000e+00,2.500000000000000000e+01
7.068200000000000000e+04,1.000000000000000082e-05,-1.000000000000000082e-05,-2.000000000000000164e-05,-9.000000000000000567e-05,1.000000000000000048e-04,-1.199999999999999895e-04,-1.000000000000000082e-05,-2.399999999999999790e-04,6.000000000000000000e+00,2.500000000000000000e+01
7.068300000000000000e+04,1.000000000000000082e-05,-1.000000000000000082e-05,-2.000000000000000164e-05,-9.000000000000000567e-05,1.000000000000000048e-04,-1.199999999999999895e-04,-1.000000000000000082e-05,-2.399999999999999790e-04,6.000000000000000000e+00,2.500000000000000000e+01
7.068400000000000000e+04,1.000000000000000082e-05,-1.000000000000000082e-05,-2.000000000000000164e-05,-9.000000000000000567e-05,1.000000000000000048e-04,-1.199999999999999895e-04,-1.000000000000000082e-05,-2.399999999999999790e-04,6.000000000000000000e+00,2.500000000000000000e+01
7.068500000000000000e+04,1.000000000000000082e-05,-1.000000000000000082e-05,-2.000000000000000164e-05,-9.000000000000000567e-05,1.000000000000000048e-04,-1.199999999999999895e-04,-1.000000000000000082e-05,-2.399999999999999790e-04,6.000000000000000000e+00,2.500000000000000000e+01
7.068600000000000000e+04,1.000000000000000082e-05,-1.000000000000000082e-05,-2.000000000000000164e-05,-9.000000000000000567e-05,1.000000000000000048e-04,-1.199999999999999895e-04,-1.000000000000000082e-05,-2.399999999999999790e-04,6.000000000000000000e+00,2.500000000000000000e+01
7.068800000000000000e+04,1.000000000000000082e-05,-1.000000000000000082e-05,-2.000000000000000164e-05,-9.000000000000000567e-05,1.000000000000000048e-04,-1.199999999999999895e-04,-1.000000000000000082e-05,-2.399999999999999790e-04,6.000000000000000000e+00,2.500000000000000000e+01
7.068900000000000000e+04,-9.000000000000000567e-05,-2.999999999999999737e-05,-2.999999999999999737e-05,-8.000000000000000654e-05,-2.600000000000000314e-04,-1.699999999999999851e-04,-1.100000000000000039e-04,-7.299999999999999632e-04,6.000000000000000000e+00,2.500000000000000000e+01
7.069000000000000000e+04,-9.000000000000000567e-05,-2.999999999999999737e-05,-2.999999999999999737e-05,-8.000000000000000654e-05,-2.600000000000000314e-04,-1.699999999999999851e-04,-1.100000000000000039e-04,-7.299999999999999632e-04,6.000000000000000000e+00,2.500000000000000000e+01
7.069100000000000000e+04,-9.000000000000000567e-05,-2.999999999999999737e-05,-2.999999999999999737e-05,-8.000000000000000654e-05,-2.600000000000000314e-04,-1.699999999999999851e-04,-1.100000000000000039e-04,-7.299999999999999632e-04,6.000000000000000000e+00,2.500000000000000000e+01
7.069200000000000000e+04,-9.000000000000000567e-05,-2.999999999999999737e-05,-2.999999999999999737e-05,-8.000000000000000654e-05,-2.600000000000000314e-04,-1.699999999999999851e-04,-1.100000000000000039e-04,-7.299999999999999632e-04,6.000000000000000000e+00,2.500000000000000000e+01
7.069300000000000000e+04,-9.000000000000000567e-05,-2.999999999999999737e-05,-2.999999999999999737e-05,-8.000000000000000654e-05,-2.600000000000000314e-04,-1.699999999999999851e-04,-1.100000000000000039e-04,-7.299999999999999632e-04,6.000000000000000000e+00,2.500000000000000000e+01
7.069400000000000000e+04,-9.000000000000000567e-05,-2.999999999999999737e-05,-2.999999999999999737e-05,-8.000000000000000654e-05,-2.600000000000000314e-04,-1.699999999999999851e-04,-1.100000000000000039e-04,-7.299999999999999632e-04,6.000000000000000000e+00,2.500000000000000000e+01
7.069500000000000000e+04,-9.000000000000000567e-05,-2.999999999999999737e-05,-2.999999999999999737e-05,-8.000000000000000654e-05,-2.600000000000000314e-04,-1.699999999999999851e-04,-1.100000000000000039e-04,-7.299999999999999632e-04,6.000000000000000000e+00,2.500000000000000000e+01
7.069600000000000000e+04,-2.000000000000000164e-05,-2.000000000000000164e-05,-2.999999999999999737e-05,0.000000000000000000e+00,-1.100000000000000039e-04,8.000000000000000654e-05,0.000000000000000000e+00,2.600000000000000314e-04,6.000000000000000000e+00,2.500000000000000000e+01
7.069700000000000000e+04,-2.000000000000000164e-05,-2.000000000000000164e-05,-2.999999999999999737e-05,0.000000000000000000e+00,-1.100000000000000039e-04,8.000000000000000654e-05,0.000000000000000000e+00,2.600000000000000314e-04,6.000000000000000000e+00,2.500000000000000000e+01
7.069800000000000000e+04,-2.000000000000000164e-05,-2.000000000000000164e-05,-2.999999999999999737e-05,0.000000000000000000e+00,-1.100000000000000039e-04,8.000000000000000654e-05,0.000000000000000000e+00,2.600000000000000314e-04,6.000000000000000000e+00,2.500000000000000000e+01
7.069900000000000000e+04,-2.000000000000000164e-05,-2.000000000000000164e-05,-2.999999999999999737e-05,0.000000000000000000e+00,-1.100000000000000039e-04,8.000000000000000654e-05,0.000000000000000000e+00,2.600000000000000314e-04,6.000000000000000000e+00,2.500000000000000000e+01
7.070000000000000000e+04,-2.000000000000000164e-05,-2.000000000000000164e-05,-2.999999999999999737e-05,0.000000000000000000e+00,-1.100000000000000039e-04,8.000000000000000654e-05,0.000000000000000000e+00,2.600000000000000314e-04,6.000000000000000000e+00,2.500000000000000000e+01
7.070100000000000000e+04,-2.000000000000000164e-05,-2.000000000000000164e-05,-2.999999999999999737e-05,0.000000000000000000e+00,-1.100000000000000039e-04,8.000000000000000654e-05,0.000000000000000000e+00,2.600000000000000314e-04,6.000000000000000000e+00,2.500000000000000000e+01
7.070200000000000000e+04,-2.000000000000000164e-05,-2.000000000000000164e-05,-2.999999999999999737e-05,0.000000000000000000e+00,-1.100000000000000039e-04,8.000000000000000654e-05,0.000000000000000000e+00,2.600000000000000314e-04,6.000000000000000000e+00,2.500000000000000000e+01
7.070300000000000000e+04,-2.000000000000000164e-05,-2.000000000000000164e-05,-2.999999999999999737e-05,0.000000000000000000e+00,-1.100000000000000039e-04,8.000000000000000654e-05,0.000000000000000000e+00,2.600000000000000314e-04,6.000000000000000000e+00,2.500000000000000000e+01
7.070400000000000000e+04,-2.000000000000000164e-05,-2.000000000000000164e-05,-2.999999999999999737e-05,0.000000000000000000e+00,-1.100000000000000039e-04,8.000000000000000654e-05,0.000000000000000000e+00,2.600000000000000314e-04,6.000000000000000000e+00,2.500000000000000000e+01
7.070500000000000000e+04,-2.000000000000000164e-05,-2.000000000000000164e-05,-2.999999999999999737e-05,0.000000000000000000e+00,-1.100000000000000039e-04,8.000000000000000654e-05,0.000000000000000000e+00,2.600000000000000314e-04,6.000000000000000000e+00,2.500000000000000000e+01
7.070600000000000000e+04,-2.000000000000000164e-05,-2.000000000000000164e-05,-2.999999999999999737e-05,0.000000000000000000e+00,-1.100000000000000039e-04,8.000000000000000654e-05,0.000000000000000000e+00,2.600000000000000314e-04,6.000000000000000000e+00,2.500000000000000000e+01
7.070700000000000000e+04,-2.000000000000000164e-05,-2.000000000000000164e-05,-2.999999999999999737e-05,0.000000000000000000e+00,-1.100000000000000039e-04,8.000000000000000654e-05,0.000000000000000000e+00,2.600000000000000314e-04,6.000000000000000000e+00,2.500000000000000000e+01
7.070800000000000000e+04,-2.000000000000000164e-05,-2.000000000000000164e-05,-2.999999999999999737e-05,0.000000000000000000e+00,-1.100000000000000039e-04,8.000000000000000654e-05,0.000000000000000000e+00,2.600000000000000314e-04,6.000000000000000000e+00,2.500000000000000000e+01
7.070900000000000000e+04,-2.000000000000000164e-05,-2.000000000000000164e-05,-2.999999999999999737e-05,0.000000000000000000e+00,-1.100000000000000039e-04,8.000000000000000654e-05,0.000000000000000000e+00,2.600000000000000314e-04,6.000000000000000000e+00,2.500000000000000000e+01
7.071000000000000000e+04,-2.000000000000000164e-05,-2.000000000000000164e-05,-2.999999999999999737e-05,0.000000000000000000e+00,-1.100000000000000039e-04,8.000000000000000654e-05,0.000000000000000000e+00,2.600000000000000314e-04,6.000000000000000000e+00,2.500000000000000000e+01
7.071100000000000000e+04,-2.000000000000000164e-05,-2.000000000000000164e-05,-2.999999999999999737e-05,0.000000000000000000e+00,-1.100000000000000039e-04,8.000000000000000654e-05,0.000000000000000000e+00,2.600000000000000314e-04,6.000000000000000000e+00,2.500000000000000000e+01
7.071200000000000000e+04,-2.000000000000000164e-05,-2.000000000000000164e-05,-2.999999999999999737e-05,0.000000000000000000e+00,-1.100000000000000039e-04,8.000000000000000654e-05,0.000000000000000000e+00,2.600000000000000314e-04,6.000000000000000000e+00,2.500000000000000000e+01
7.071300000000000000e+04,-1.899999999999999834e-04,-5.000000000000000240e-05,-2.000000000000000164e-05,2.999999999999999737e-05,1.100000000000000039e-04,-5.999999999999999474e-04,0.000000000000000000e+00,-7.399999999999999894e-04,6.000000000000000000e+00,2.500000000000000000e+01
7.071400000000000000e+04,-2.999999999999999737e-05,-2.000000000000000164e-05,-1.000000000000000082e-05,-2.000000000000000164e-05,-9.000000000000000567e-05,-1.000000000000000048e-04,-2.999999999999999737e-05,-1.699999999999999851e-04,6.000000000000000000e+00,2.500000000000000000e+01
7.071500000000000000e+04,-2.999999999999999737e-05,-2.000000000000000164e-05,-1.000000000000000082e-05,-2.000000000000000164e-05,-9.000000000000000567e-05,-1.000000000000000048e-04,-2.999999999999999737e-05,-1.699999999999999851e-04,6.000000000000000000e+00,2.500000000000000000e+01
7.071600000000000000e+04,-2.999999999999999737e-05,-2.000000000000000164e-05,-1.000000000000000082e-05,-2.000000000000000164e-05,-9.000000000000000567e-05,-1.000000000000000048e-04,-2.999999999999999737e-05,-1.699999999999999851e-04,6.000000000000000000e+00,2.500000000000000000e+01
7.071700000000000000e+04,-2.999999999999999737e-05,-2.000000000000000164e-05,-1.000000000000000082e-05,-2.000000000000000164e-05,-9.000000000000000567e-05,-1.000000000000000048e-04,-2.999999999999999737e-05,-1.699999999999999851e-04,6.000000000000000000e+00,2.500000000000000000e+01
7.071800000000000000e+04,-2.999999999999999737e-05,-2.000000000000000164e-05,-1.000000000000000082e-05,-2.000000000000000164e-05,-9.000000000000000567e-05,-1.000000000000000048e-04,-2.999999999999999737e-05,-1.699999999999999851e-04,6.000000000000000000e+00,2.500000000000000000e+01
7.071900000000000000e+04,-2.999999999999999737e-05,-2.000000000000000164e-05,-1.000000000000000082e-05,-2.000000000000000164e-05,-9.000000000000000567e-05,-1.000000000000000048e-04,-2.999999999999999737e-05,-1.699999999999999851e-04,6.000000000000000000e+00,2.500000000000000000e+01
7.072000000000000000e+04,-2.999999999999999737e-05,-2.000000000000000164e-05,-1.000000000000000082e-05,-2.000000000000000164e-05,-9.000000000000000567e-05,-1.000000000000000048e-04,-2.999999999999999737e-05,-1.699999999999999851e-04,6.000000000000000000e+00,2.500000000000000000e+01
7.072100000000000000e+04,-2.999999999999999737e-05,-2.000000000000000164e-05,-1.000000000000000082e-05,-2.000000000000000164e-05,-9.000000000000000567e-05,-1.000000000000000048e-04,-2.999999999999999737e-05,-1.699999999999999851e-04,6.000000000000000000e+00,2.500000000000000000e+01
7.072200000000000000e+04,-2.999999999999999737e-05,-2.000000000000000164e-05,-1.000000000000000082e-05,-2.000000000000000164e-05,-9.000000000000000567e-05,-1.000000000000000048e-04,-2.999999999999999737e-05,-1.699999999999999851e-04,6.000000000000000000e+00,2.500000000000000000e+01
7.072300000000000000e+04,-2.999999999999999737e-05,-2.000000000000000164e-05,-1.000000000000000082e-05,-2.000000000000000164e-05,-9.000000000000000567e-05,-1.000000000000000048e-04,-2.999999999999999737e-05,-1.699999999999999851e-04,6.000000000000000000e+00,2.500000000000000000e+01
7.072400000000000000e+04,-2.999999999999999737e-05,-2.000000000000000164e-05,-1.000000000000000082e-05,-2.000000000000000164e-05,-9.000000000000000567e-05,-1.000000000000000048e-04,-2.999999999999999737e-05,-1.699999999999999851e-04,6.000000000000000000e+00,2.500000000000000000e+01
7.072500000000000000e+04,-2.999999999999999737e-05,-2.000000000000000164e-05,-1.000000000000000082e-05,-2.000000000000000164e-05,-9.000000000000000567e-05,-1.000000000000000048e-04,-2.999999999999999737e-05,-1.699999999999999851e-04,6.000000000000000000e+00,2.500000000000000000e+01
7.072600000000000000e+04,-2.999999999999999737e-05,-2.000000000000000164e-05,-1.000000000000000082e-05,-2.000000000000000164e-05,-9.000000000000000567e-05,-1.000000000000000048e-04,-2.999999999999999737e-05,-1.699999999999999851e-04,6.000000000000000000e+00,2.500000000000000000e+01
7.072700000000000000e+04,-2.999999999999999737e-05,-2.000000000000000164e-05,-1.000000000000000082e-05,-2.000000000000000164e-05,-9.000000000000000567e-05,-1.000000000000000048e-04,-2.999999999999999737e-05,-1.699999999999999851e-04,6.000000000000000000e+00,2.500000000000000000e+01
7.072800000000000000e+04,-2.999999999999999737e-05,-2.000000000000000164e-05,-1.000000000000000082e-05,-2.000000000000000164e-05,-9.000000000000000567e-05,-1.000000000000000048e-04,-2.999999999999999737e-05,-1.699999999999999851e-04,6.000000000000000000e+00,2.500000000000000000e+01
7.072900000000000000e+04,-2.999999999999999737e-05,-2.000000000000000164e-05,-1.000000000000000082e-05,-2.000000000000000164e-05,-9.000000000000000567e-05,-1.000000000000000048e-04,-2.999999999999999737e-05,-1.699999999999999851e-04,6.000000000000000000e+00,2.500000000000000000e+01
7.073000000000000000e+04,-2.999999999999999737e-05,-2.000000000000000164e-05,-1.000000000000000082e-05,-2.000000000000000164e-05,-9.000000000000000567e-05,-1.000000000000000048e-04,-2.999999999999999737e-05,-1.699999999999999851e-04,6.000000000000000000e+00,2.500000000000000000e+01
7.073100000000000000e+04,-2.999999999999999737e-05,-2.000000000000000164e-05,-1.000000000000000082e-05,-2.000000000000000164e-05,-9.000000000000000567e-05,-1.000000000000000048e-04,-2.999999999999999737e-05,-1.699999999999999851e-04,6.000000000000000000e+00,2.500000000000000000e+01
7.073200000000000000e+04,-2.999999999999999737e-05,-2.000000000000000164e-05,-1.000000000000000082e-05,-2.000000000000000164e-05,-9.000000000000000567e-05,-1.000000000000000048e-04,-2.999999999999999737e-05,-1.699999999999999851e-04,6.000000000000000000e+00,2.500000000000000000e+01
7.073300000000000000e+04,-2.999999999999999737e-05,-2.000000000000000164e-05,-1.000000000000000082e-05,-2.000000000000000164e-05,-9.000000000000000567e-05,-1.000000000000000048e-04,-2.999999999999999737e-05,-1.699999999999999851e-04,6.000000000000000000e+00,2.500000000000000000e+01
7.073400000000000000e+04,-2.999999999999999737e-05,-2.000000000000000164e-05,-1.000000000000000082e-05,-2.000000000000000164e-05,-9.000000000000000567e-05,-1.000000000000000048e-04,-2.999999999999999737e-05,-1.699999999999999851e-04,6.000000000000000000e+00,2.500000000000000000e+01
7.073500000000000000e+04,2.000000000000000164e-05,-5.999999999999999474e-05,-5.000000000000000240e-05,-2.999999999999999737e-05,3.600000000000000227e-04,-2.999999999999999737e-04,9.000000000000000567e-05,2.700000000000000035e-04,6.000000000000000000e+00,2.500000000000000000e+01
7.073600000000000000e+04,-2.200000000000000078e-04,-5.999999999999999474e-05,-2.000000000000000164e-05,4.000000000000000327e-05,4.200000000000000174e-04,-8.199999999999999824e-04,2.700000000000000035e-04,4.200000000000000174e-04,6.000000000000000000e+00,2.500000000000000000e+01
7.073800000000000000e+04,6.999999999999999387e-05,1.000000000000000082e-05,0.000000000000000000e+00,-5.000000000000000240e-05,-1.899999999999999834e-04,-3.399999999999999702e-04,-2.999999999999999737e-05,3.299999999999999982e-04,6.000000000000000000e+00,2.500000000000000000e+01
7.073900000000000000e+04,6.999999999999999387e-05,1.000000000000000082e-05,0.000000000000000000e+00,-5.000000000000000240e-05,-1.899999999999999834e-04,-3.399999999999999702e-04,-2.999999999999999737e-05,3.299999999999999982e-04,6.000000000000000000e+00,2.500000000000000000e+01
7.074000000000000000e+04,6.999999999999999387e-05,1.000000000000000082e-05,0.000000000000000000e+00,-5.000000000000000240e-05,-1.899999999999999834e-04,-3.399999999999999702e-04,-2.999999999999999737e-05,3.299999999999999982e-04,6.000000000000000000e+00,2.500000000000000000e+01
7.074100000000000000e+04,6.999999999999999387e-05,1.000000000000000082e-05,0.000000000000000000e+00,-5.000000000000000240e-05,-1.899999999999999834e-04,-3.399999999999999702e-04,-2.999999999999999737e-05,3.299999999999999982e-04,6.000000000000000000e+00,2.500000000000000000e+01
7.074200000000000000e+04,6.999999999999999387e-05,1.000000000000000082e-05,0.000000000000000000e+00,-5.000000000000000240e-05,-1.899999999999999834e-04,-3.399999999999999702e-04,-2.999999999999999737e-05,3.299999999999999982e-04,6.000000000000000000e+00,2.500000000000000000e+01
7.074300000000000000e+04,6.999999999999999387e-05,1.000000000000000082e-05,0.000000000000000000e+00,-5.000000000000000240e-05,-1.899999999999999834e-04,-3.399999999999999702e-04,-2.999999999999999737e-05,3.299999999999999982e-04,6.000000000000000000e+00,2.500000000000000000e+01
7.074400000000000000e+04,6.999999999999999387e-05,1.000000000000000082e-05,0.000000000000000000e+00,-5.000000000000000240e-05,-1.899999999999999834e-04,-3.399999999999999702e-04,-2.999999999999999737e-05,3.299999999999999982e-04,6.000000000000000000e+00,2.500000000000000000e+01
7.074500000000000000e+04,6.999999999999999387e-05,1.000000000000000082e-05,0.000000000000000000e+00,-5.000000000000000240e-05,-1.899999999999999834e-04,-3.399999999999999702e-04,-2.999999999999999737e-05,3.299999999999999982e-04,6.000000000000000000e+00,2.500000000000000000e+01
7.074600000000000000e+04,6.999999999999999387e-05,1.000000000000000082e-05,0.000000000000000000e+00,-5.000000000000000240e-05,-1.899999999999999834e-04,-3.399999999999999702e-04,-2.999999999999999737e-05,3.299999999999999982e-04,6.000000000000000000e+00,2.500000000000000000e+01
7.074700000000000000e+04,6.999999999999999387e-05,1.000000000000000082e-05,0.000000000000000000e+00,-5.000000000000000240e-05,-1.899999999999999834e-04,-3.399999999999999702e-04,-2.999999999999999737e-05,3.299999999999999982e-04,6.000000000000000000e+00,2.500000000000000000e+01
7.074800000000000000e+04,6.999999999999999387e-05,1.000000000000000082e-05,0.000000000000000000e+00,-5.000000000000000240e-05,-1.899999999999999834e-04,-3.399999999999999702e-04,-2.999999999999999737e-05,3.299999999999999982e-04,6.000000000000000000e+00,2.500000000000000000e+01
7.074900000000000000e+04,1.300000000000000157e-04,5.999999999999999474e-05,9.000000000000000567e-05,5.999999999999999474e-05,-1.300000000000000157e-04,5.999999999999999474e-05,1.499999999999999869e-04,2.600000000000000314e-04,6.000000000000000000e+00,2.500000000000000000e+01
7.075000000000000000e+04,1.300000000000000157e-04,5.999999999999999474e-05,9.000000000000000567e-05,5.999999999999999474e-05,-1.300000000000000157e-04,5.999999999999999474e-05,1.499999999999999869e-04,2.600000000000000314e-04,6.000000000000000000e+00,2.500000000000000000e+01
7.075100000000000000e+04,1.300000000000000157e-04,5.999999999999999474e-05,9.000000000000000567e-05,5.999999999999999474e-05,-1.300000000000000157e-04,5.999999999999999474e-05,1.499999999999999869e-04,2.600000000000000314e-04,6.000000000000000000e+00,2.500000000000000000e+01
7.075200000000000000e+04,1.300000000000000157e-04,5.999999999999999474e-05,9.000000000000000567e-05,5.999999999999999474e-05,-1.300000000000000157e-04,5.999999999999999474e-05,1.499999999999999869e-04,2.600000000000000314e-04,6.000000000000000000e+00,2.500000000000000000e+01
7.075300000000000000e+04,1.300000000000000157e-04,5.999999999999999474e-05,9.000000000000000567e-05,5.999999999999999474e-05,-1.300000000000000157e-04,5.999999999999999474e-05,1.499999999999999869e-04,2.600000000000000314e-04,6.000000000000000000e+00,2.500000000000000000e+01
7.075400000000000000e+04,1.300000000000000157e-04,5.999999999999999474e-05,9.000000000000000567e-05,5.999999999999999474e-05,-1.300000000000000157e-04,5.999999999999999474e-05,1.499999999999999869e-04,2.600000000000000314e-04,6.000000000000000000e+00,2.500000000000000000e+01
7.075500000000000000e+04,1.300000000000000157e-04,5.999999999999999474e-05,9.000000000000000567e-05,5.999999999999999474e-05,-1.300000000000000157e-04,5.999999999999999474e-05,1.499999999999999869e-04,2.600000000000000314e-04,6.000000000000000000e+00,2.500000000000000000e+01
7.075600000000000000e+04,1.100000000000000039e-04,2.000000000000000164e-05,-1.000000000000000082e-05,2.000000000000000164e-05,2.799999999999999755e-04,-2.100000000000000087e-04,2.600000000000000314e-04,3.099999999999999999e-04,6.000000000000000000e+00,2.500000000000000000e+01
7.075700000000000000e+04,1.100000000000000039e-04,2.000000000000000164e-05,-1.000000000000000082e-05,2.000000000000000164e-05,2.799999999999999755e-04,-2.100000000000000087e-04,2.600000000000000314e-04,3.099999999999999999e-04,6.000000000000000000e+00,2.500000000000000000e+01
7.075800000000000000e+04,1.100000000000000039e-04,2.000000000000000164e-05,-1.000000000000000082e-05,2.000000000000000164e-05,2.799999999999999755e-04,-2.100000000000000087e-04,2.600000000000000314e-04,3.099999999999999999e-04,6.000000000000000000e+00,2.500000000000000000e+01
7.075900000000000000e+04,1.100000000000000039e-04,2.000000000000000164e-05,-1.000000000000000082e-05,2.000000000000000164e-05,2.799999999999999755e-04,-2.100000000000000087e-04,2.600000000000000314e-04,3.099999999999999999e-04,6.000000000000000000e+00,2.500000000000000000e+01
7.076000000000000000e+04,1.100000000000000039e-04,2.000000000000000164e-05,-1.000000000000000082e-05,2.000000000000000164e-05,2.799999999999999755e-04,-2.100000000000000087e-04,2.600000000000000314e-04,3.099999999999999999e-04,6.000000000000000000e+00,2.500000000000000000e+01
7.076100000000000000e+04,1.100000000000000039e-04,2.000000000000000164e-05,-1.000000000000000082e-05,2.000000000000000164e-05,2.799999999999999755e-04,-2.100000000000000087e-04,2.600000000000000314e-04,3.099999999999999999e-04,6.000000000000000000e+00,2.500000000000000000e+01
7.076200000000000000e+04,1.100000000000000039e-04,2.000000000000000164e-05,-1.000000000000000082e-05,2.000000000000000164e-05,2.799999999999999755e-04,-2.100000000000000087e-04,2.600000000000000314e-04,3.099999999999999999e-04,6.000000000000000000e+00,2.500000000000000000e+01
7.076300000000000000e+04,1.100000000000000039e-04,2.000000000000000164e-05,-1.000000000000000082e-05,2.000000000000000164e-05,2.799999999999999755e-04,-2.100000000000000087e-04,2.600000000000000314e-04,3.099999999999999999e-04,6.000000000000000000e+00,2.500000000000000000e+01
7.076400000000000000e+04,1.100000000000000039e-04,2.000000000000000164e-05,-1.000000000000000082e-05,2.000000000000000164e-05,2.799999999999999755e-04,-2.100000000000000087e-04,2.600000000000000314e-04,3.099999999999999999e-04,6.000000000000000000e+00,2.500000000000000000e+01
7.076500000000000000e+04,1.100000000000000039e-04,2.000000000000000164e-05,-1.000000000000000082e-05,2.000000000000000164e-05,2.799999999999999755e-04,-2.100000000000000087e-04,2.600000000000000314e-04,3.099999999999999999e-04,6.000000000000000000e+00,2.500000000000000000e+01
7.076600000000000000e+04,1.100000000000000039e-04,2.000000000000000164e-05,-1.000000000000000082e-05,2.000000000000000164e-05,2.799999999999999755e-04,-2.100000000000000087e-04,2.600000000000000314e-04,3.099999999999999999e-04,6.000000000000000000e+00,2.500000000000000000e+01
7.076700000000000000e+04,1.100000000000000039e-04,2.000000000000000164e-05,-1.000000000000000082e-05,2.000000000000000164e-05,2.799999999999999755e-04,-2.100000000000000087e-04,2.600000000000000314e-04,3.099999999999999999e-04,6.000000000000000000e+00,2.500000000000000000e+01
7.076800000000000000e+04,1.100000000000000039e-04,2.000000000000000164e-05,-1.000000000000000082e-05,2.000000000000000164e-05,2.799999999999999755e-04,-2.100000000000000087e-04,2.600000000000000314e-04,3.099999999999999999e-04,6.000000000000000000e+00,2.500000000000000000e+01
7.076900000000000000e+04,1.100000000000000039e-04,2.000000000000000164e-05,-1.000000000000000082e-05,2.000000000000000164e-05,2.799999999999999755e-04,-2.100000000000000087e-04,2.600000000000000314e-04,3.099999999999999999e-04,6.000000000000000000e+00,2.500000000000000000e+01
7.077000000000000000e+04,1.100000000000000039e-04,2.000000000000000164e-05,-1.000000000000000082e-05,2.000000000000000164e-05,2.799999999999999755e-04,-2.100000000000000087e-04,2.600000000000000314e-04,3.099999999999999999e-04,6.000000000000000000e+00,2.500000000000000000e+01
7.077100000000000000e+04,1.100000000000000039e-04,2.000000000000000164e-05,-1.000000000000000082e-05,2.000000000000000164e-05,2.799999999999999755e-04,-2.100000000000000087e-04,2.600000000000000314e-04,3.099999999999999999e-04,6.000000000000000000e+00,2.500000000000000000e+01
7.077200000000000000e+04,-5.999999999999999474e-05,0.000000000000000000e+00,0.000000000000000000e+00,1.000000000000000082e-05,-5.999999999999999474e-05,2.000000000000000164e-05,-1.199999999999999895e-04,-2.200000000000000078e-04,6.000000000000000000e+00,2.500000000000000000e+01
7.077300000000000000e+04,2.000000000000000164e-05,-1.000000000000000082e-05,0.000000000000000000e+00,-1.000000000000000082e-05,-1.000000000000000048e-04,3.399999999999999702e-04,-2.000000000000000164e-05,3.799999999999999667e-04,6.000000000000000000e+00,2.500000000000000000e+01
7.077400000000000000e+04,-1.100000000000000039e-04,-4.000000000000000327e-05,-2.999999999999999737e-05,2.000000000000000096e-04,4.799999999999999580e-04,8.000000000000000654e-05,8.000000000000000654e-05,-2.200000000000000078e-04,6.000000000000000000e+00,2.500000000000000000e+01
7.077500000000000000e+04,-1.100000000000000039e-04,-4.000000000000000327e-05,-2.999999999999999737e-05,2.000000000000000096e-04,4.799999999999999580e-04,8.000000000000000654e-05,8.000000000000000654e-05,-2.200000000000000078e-04,6.000000000000000000e+00,2.500000000000000000e+01
7.077600000000000000e+04,-1.100000000000000039e-04,-4.000000000000000327e-05,-2.999999999999999737e-05,2.000000000000000096e-04,4.799999999999999580e-04,8.000000000000000654e-05,8.000000000000000654e-05,-2.200000000000000078e-04,6.000000000000000000e+00,2.500000000000000000e+01
7.077700000000000000e+04,-1.100000000000000039e-04,-4.000000000000000327e-05,-2.999999999999999737e-05,2.000000000000000096e-04,4.799999999999999580e-04,8.000000000000000654e-05,8.000000000000000654e-05,-2.200000000000000078e-04,6.000000000000000000e+00,2.500000000000000000e+01
7.077800000000000000e+04,-1.100000000000000039e-04,-4.000000000000000327e-05,-2.999999999999999737e-05,2.000000000000000096e-04,4.799999999999999580e-04,8.000000000000000654e-05,8.000000000000000654e-05,-2.200000000000000078e-04,6.000000000000000000e+00,2.500000000000000000e+01
7.077900000000000000e+04,-1.100000000000000039e-04,-4.000000000000000327e-05,-2.999999999999999737e-05,2.000000000000000096e-04,4.799999999999999580e-04,8.000000000000000654e-05,8.000000000000000654e-05,-2.200000000000000078e-04,6.000000000000000000e+00,2.500000000000000000e+01
7.078000000000000000e+04,-1.100000000000000039e-04,-4.000000000000000327e-05,-2.999999999999999737e-05,2.000000000000000096e-04,4.799999999999999580e-04,8.000000000000000654e-05,8.000000000000000654e-05,-2.200000000000000078e-04,6.000000000000000000e+00,2.500000000000000000e+01
7.078100000000000000e+04,-1.100000000000000039e-04,-4.000000000000000327e-05,-2.999999999999999737e-05,2.000000000000000096e-04,4.799999999999999580e-04,8.000000000000000654e-05,8.000000000000000654e-05,-2.200000000000000078e-04,6.000000000000000000e+00,2.500000000000000000e+01
7.078200000000000000e+04,-1.100000000000000039e-04,-4.000000000000000327e-05,-2.999999999999999737e-05,2.000000000000000096e-04,4.799999999999999580e-04,8.000000000000000654e-05,8.000000000000000654e-05,-2.200000000000000078e-04,6.000000000000000000e+00,2.500000000000000000e+01
7.078300000000000000e+04,-1.100000000000000039e-04,-4.000000000000000327e-05,-2.999999999999999737e-05,2.000000000000000096e-04,4.799999999999999580e-04,8.000000000000000654e-05,8.000000000000000654e-05,-2.200000000000000078e-04,6.000000000000000000e+00,2.500000000000000000e+01
7.078400000000000000e+04,-1.100000000000000039e-04,-4.000000000000000327e-05,-2.999999999999999737e-05,2.000000000000000096e-04,4.799999999999999580e-04,8.000000000000000654e-05,8.000000000000000654e-05,-2.200000000000000078e-04,6.000000000000000000e+00,2.500000000000000000e+01
7.078500000000000000e+04,-1.100000000000000039e-04,-4.000000000000000327e-05,-2.999999999999999737e-05,2.000000000000000096e-04,4.799999999999999580e-04,8.000000000000000654e-05,8.000000000000000654e-05,-2.200000000000000078e-04,6.000000000000000000e+00,2.500000000000000000e+01
7.078600000000000000e+04,-1.100000000000000039e-04,-4.000000000000000327e-05,-2.999999999999999737e-05,2.000000000000000096e-04,4.799999999999999580e-04,8.000000000000000654e-05,8.000000000000000654e-05,-2.200000000000000078e-04,6.000000000000000000e+00,2.500000000000000000e+01
7.078800000000000000e+04,-1.100000000000000039e-04,-4.000000000000000327e-05,-2.999999999999999737e-05,2.000000000000000096e-04,4.799999999999999580e-04,8.000000000000000654e-05,8.000000000000000654e-05,-2.200000000000000078e-04,6.000000000000000000e+00,2.500000000000000000e+01
7.078900000000000000e+04,-1.100000000000000039e-04,-4.000000000000000327e-05,-2.999999999999999737e-05,2.000000000000000096e-04,4.799999999999999580e-04,8.000000000000000654e-05,8.000000000000000654e-05,-2.200000000000000078e-04,6.000000000000000000e+00,2.500000000000000000e+01
7.079000000000000000e+04,-1.100000000000000039e-04,-4.000000000000000327e-05,-2.999999999999999737e-05,2.000000000000000096e-04,4.799999999999999580e-04,8.000000000000000654e-05,8.000000000000000654e-05,-2.200000000000000078e-04,6.000000000000000000e+00,2.500000000000000000e+01
7.079100000000000000e+04,-1.100000000000000039e-04,-4.000000000000000327e-05,-2.999999999999999737e-05,2.000000000000000096e-04,4.799999999999999580e-04,8.000000000000000654e-05,8.000000000000000654e-05,-2.200000000000000078e-04,6.000000000000000000e+00,2.500000000000000000e+01
7.079200000000000000e+04,-1.100000000000000039e-04,-4.000000000000000327e-05,-2.999999999999999737e-05,2.000000000000000096e-04,4.799999999999999580e-04,8.000000000000000654e-05,8.000000000000000654e-05,-2.200000000000000078e-04,6.000000000000000000e+00,2.500000000000000000e+01
7.079300000000000000e+04,-1.100000000000000039e-04,-4.000000000000000327e-05,-2.999999999999999737e-05,2.000000000000000096e-04,4.799999999999999580e-04,8.000000000000000654e-05,8.000000000000000654e-05,-2.200000000000000078e-04,6.000000000000000000e+00,2.500000000000000000e+01
7.079400000000000000e+04,-1.100000000000000039e-04,-4.000000000000000327e-05,-2.999999999999999737e-05,2.000000000000000096e-04,4.799999999999999580e-04,8.000000000000000654e-05,8.000000000000000654e-05,-2.200000000000000078e-04,6.000000000000000000e+00,2.500000000000000000e+01
7.079500000000000000e+04,5.000000000000000240e-05,2.999999999999999737e-05,5.000000000000000240e-05,1.199999999999999895e-04,4.000000000000000192e-04,2.900000000000000017e-04,8.000000000000000654e-05,5.200000000000000629e-04,6.000000000000000000e+00,2.500000000000000000e+01
7.079600000000000000e+04,5.000000000000000240e-05,2.999999999999999737e-05,5.000000000000000240e-05,1.199999999999999895e-04,4.000000000000000192e-04,2.900000000000000017e-04,8.000000000000000654e-05,5.200000000000000629e-04,6.000000000000000000e+00,2.500000000000000000e+01
7.079700000000000000e+04,-9.000000000000000567e-05,-1.000000000000000082e-05,-1.000000000000000082e-05,-2.999999999999999737e-05,-2.100000000000000087e-04,-2.000000000000000164e-05,1.600000000000000131e-04,-5.500000000000000331e-04,6.000000000000000000e+00,2.500000000000000000e+01
7.079800000000000000e+04,-9.000000000000000567e-05,-1.000000000000000082e-05,-1.000000000000000082e-05,-2.999999999999999737e-05,-2.100000000000000087e-04,-2.000000000000000164e-05,1.600000000000000131e-04,-5.500000000000000331e-04,6.000000000000000000e+00,2.500000000000000000e+01
7.079900000000000000e+04,-9.000000000000000567e-05,-1.000000000000000082e-05,-1.000000000000000082e-05,-2.999999999999999737e-05,-2.100000000000000087e-04,-2.000000000000000164e-05,1.600000000000000131e-04,-5.500000000000000331e-04,6.000000000000000000e+00,2.500000000000000000e+01
7.080000000000000000e+04,-9.000000000000000567e-05,-1.000000000000000082e-05,-1.000000000000000082e-05,-2.999999999999999737e-05,-2.100000000000000087e-04,-2.000000000000000164e-05,1.600000000000000131e-04,-5.500000000000000331e-04,6.000000000000000000e+00,2.500000000000000000e+01
7.080100000000000000e+04,-9.000000000000000567e-05,-1.000000000000000082e-05,-1.000000000000000082e-05,-2.999999999999999737e-05,-2.100000000000000087e-04,-2.000000000000000164e-05,1.600000000000000131e-04,-5.500000000000000331e-04,6.000000000000000000e+00,2.500000000000000000e+01
7.080200000000000000e+04,-9.000000000000000567e-05,-1.000000000000000082e-05,-1.000000000000000082e-05,-2.999999999999999737e-05,-2.100000000000000087e-04,-2.000000000000000164e-05,1.600000000000000131e-04,-5.500000000000000331e-04,6.000000000000000000e+00,2.500000000000000000e+01
7.080300000000000000e+04,-9.000000000000000567e-05,-1.000000000000000082e-05,-1.000000000000000082e-05,-2.999999999999999737e-05,-2.100000000000000087e-04,-2.000000000000000164e-05,1.600000000000000131e-04,-5.500000000000000331e-04,6.000000000000000000e+00,2.500000000000000000e+01
7.080400000000000000e+04,-9.000000000000000567e-05,-1.000000000000000082e-05,-1.000000000000000082e-05,-2.999999999999999737e-05,-2.100000000000000087e-04,-2.000000000000000164e-05,1.600000000000000131e-04,-5.500000000000000331e-04,6.000000000000000000e+00,2.500000000000000000e+01
7.080500000000000000e+04,-9.000000000000000567e-05,-1.000000000000000082e-05,-1.000000000000000082e-05,-2.999999999999999737e-05,-2.100000000000000087e-04,-2.000000000000000164e-05,1.600000000000000131e-04,-5.500000000000000331e-04,6.000000000000000000e+00,2.500000000000000000e+01
7.080600000000000000e+04,-9.000000000000000567e-05,-1.000000000000000082e-05,-1.000000000000000082e-05,-2.999999999999999737e-05,-2.100000000000000087e-04,-2.000000000000000164e-05,1.600000000000000131e-04,-5.500000000000000331e-04,6.000000000000000000e+00,2.500000000000000000e+01
7.080700000000000000e+04,-9.000000000000000567e-05,-1.000000000000000082e-05,-1.000000000000000082e-05,-2.999999999999999737e-05,-2.100000000000000087e-04,-2.000000000000000164e-05,1.600000000000000131e-04,-5.500000000000000331e-04,6.000000000000000000e+00,2.500000000000000000e+01
7.080800000000000000e+04,-9.000000000000000567e-05,-1.000000000000000082e-05,-1.000000000000000082e-05,-2.999999999999999737e-05,-2.100000000000000087e-04,-2.000000000000000164e-05,1.600000000000000131e-04,-5.500000000000000331e-04,6.000000000000000000e+00,2.500000000000000000e+01
7.080900000000000000e+04,-2.000000000000000164e-05,-2.999999999999999737e-05,-2.000000000000000164e-05,-9.000000000000000567e-05,-1.600000000000000131e-04,2.000000000000000096e-04,-2.999999999999999737e-05,-3.499999999999999964e-04,6.000000000000000000e+00,2.500000000000000000e+01
7.081000000000000000e+04,-2.000000000000000164e-05,-2.999999999999999737e-05,-2.000000000000000164e-05,-9.000000000000000567e-05,-1.600000000000000131e-04,2.000000000000000096e-04,-2.999999999999999737e-05,-3.499999999999999964e-04,6.000000000000000000e+00,2.500000000000000000e+01
7.081200000000000000e+04,-2.000000000000000164e-05,-2.999999999999999737e-05,-2.000000000000000164e-05,-9.000000000000000567e-05,-1.600000000000000131e-04,2.000000000000000096e-04,-2.999999999999999737e-05,-3.499999999999999964e-04,6.000000000000000000e+00,2.500000000000000000e+01
7.081300000000000000e+04,-2.000000000000000164e-05,-2.999999999999999737e-05,-2.000000000000000164e-05,-9.000000000000000567e-05,-1.600000000000000131e-04,2.000000000000000096e-04,-2.999999999999999737e-05,-3.499999999999999964e-04,6.000000000000000000e+00,2.500000000000000000e+01
7.081400000000000000e+04,-2.000000000000000164e-05,-2.999999999999999737e-05,-2.000000000000000164e-05,-9.000000000000000567e-05,-1.600000000000000131e-04,2.000000000000000096e-04,-2.999999999999999737e-05,-3.499999999999999964e-04,6.000000000000000000e+00,2.500000000000000000e+01
7.081500000000000000e+04,-2.000000000000000164e-05,-2.999999999999999737e-05,-2.000000000000000164e-05,-9.000000000000000567e-05,-1.600000000000000131e-04,2.000000000000000096e-04,-2.999999999999999737e-05,-3.499999999999999964e-04,6.000000000000000000e+00,2.500000000000000000e+01
7.081600000000000000e+04,2.000000000000000164e-05,-2.999999999999999737e-05,-2.000000000000000164e-05,-6.999999999999999387e-05,-9.000000000000000567e-05,2.399999999999999790e-04,-8.000000000000000654e-05,3.399999999999999702e-04,6.000000000000000000e+00,2.500000000000000000e+01
7.081700000000000000e+04,2.000000000000000164e-05,-2.999999999999999737e-05,-2.000000000000000164e-05,-6.999999999999999387e-05,-9.000000000000000567e-05,2.399999999999999790e-04,-8.000000000000000654e-05,3.399999999999999702e-04,6.000000000000000000e+00,2.500000000000000000e+01
7.081800000000000000e+04,2.000000000000000164e-05,-2.999999999999999737e-05,-2.000000000000000164e-05,-6.999999999999999387e-05,-9.000000000000000567e-05,2.399999999999999790e-04,-8.000000000000000654e-05,3.399999999999999702e-04,6.000000000000000000e+00,2.500000000000000000e+01
7.081900000000000000e+04,2.000000000000000164e-05,-2.999999999999999737e-05,-2.000000000000000164e-05,-6.999999999999999387e-05,-9.000000000000000567e-05,2.399999999999999790e-04,-8.000000000000000654e-05,3.399999999999999702e-04,6.000000000000000000e+00,2.500000000000000000e+01
7.082000000000000000e+04,2.000000000000000164e-05,-2.999999999999999737e-05,-2.000000000000000164e-05,-6.999999999999999387e-05,-9.000000000000000567e-05,2.399999999999999790e-04,-8.000000000000000654e-05,3.399999999999999702e-04,6.000000000000000000e+00,2.500000000000000000e+01
7.082100000000000000e+04,2.000000000000000164e-05,-2.999999999999999737e-05,-2.000000000000000164e-05,-6.999999999999999387e-05,-9.000000000000000567e-05,2.399999999999999790e-04,-8.000000000000000654e-05,3.399999999999999702e-04,6.000000000000000000e+00,2.500000000000000000e+01
7.082200000000000000e+04,2.000000000000000164e-05,-2.999999999999999737e-05,-2.000000000000000164e-05,-6.999999999999999387e-05,-9.000000000000000567e-05,2.399999999999999790e-04,-8.000000000000000654e-05,3.399999999999999702e-04,6.000000000000000000e+00,2.500000000000000000e+01
7.082300000000000000e+04,2.000000000000000164e-05,-2.999999999999999737e-05,-2.000000000000000164e-05,-6.999999999999999387e-05,-9.000000000000000567e-05,2.399999999999999790e-04,-8.000000000000000654e-05,3.399999999999999702e-04,6.000000000000000000e+00,2.500000000000000000e+01
7.082400000000000000e+04,2.000000000000000164e-05,-2.999999999999999737e-05,-2.000000000000000164e-05,-6.999999999999999387e-05,-9.000000000000000567e-05,2.399999999999999790e-04,-8.000000000000000654e-05,3.399999999999999702e-04,6.000000000000000000e+00,2.500000000000000000e+01
7.082500000000000000e+04,2.000000000000000164e-05,-2.999999999999999737e-05,-2.000000000000000164e-05,-6.999999999999999387e-05,-9.000000000000000567e-05,2.399999999999999790e-04,-8.000000000000000654e-05,3.399999999999999702e-04,6.000000000000000000e+00,2.500000000000000000e+01
7.082600000000000000e+04,2.000000000000000164e-05,-2.999999999999999737e-05,-2.000000000000000164e-05,-6.999999999999999387e-05,-9.000000000000000567e-05,2.399999999999999790e-04,-8.000000000000000654e-05,3.399999999999999702e-04,6.000000000000000000e+00,2.500000000000000000e+01
7.082700000000000000e+04,2.000000000000000164e-05,-2.999999999999999737e-05,-2.000000000000000164e-05,-6.999999999999999387e-05,-9.000000000000000567e-05,2.399999999999999790e-04,-8.000000000000000654e-05,3.399999999999999702e-04,6.000000000000000000e+00,2.500000000000000000e+01
7.082800000000000000e+04,2.000000000000000164e-05,-2.999999999999999737e-05,-2.000000000000000164e-05,-6.999999999999999387e-05,-9.000000000000000567e-05,2.399999999999999790e-04,-8.000000000000000654e-05,3.399999999999999702e-04,6.000000000000000000e+00,2.500000000000000000e+01
7.082900000000000000e+04,2.000000000000000164e-05,-2.999999999999999737e-05,-2.000000000000000164e-05,-6.999999999999999387e-05,-9.000000000000000567e-05,2.399999999999999790e-04,-8.000000000000000654e-05,3.399999999999999702e-04,6.000000000000000000e+00,2.500000000000000000e+01
7.083000000000000000e+04,2.000000000000000164e-05,-2.999999999999999737e-05,-2.000000000000000164e-05,-6.999999999999999387e-05,-9.000000000000000567e-05,2.399999999999999790e-04,-8.000000000000000654e-05,3.399999999999999702e-04,6.000000000000000000e+00,2.500000000000000000e+01
7.083100000000000000e+04,2.000000000000000164e-05,-2.999999999999999737e-05,-2.000000000000000164e-05,-6.999999999999999387e-05,-9.000000000000000567e-05,2.399999999999999790e-04,-8.000000000000000654e-05,3.399999999999999702e-04,6.000000000000000000e+00,2.500000000000000000e+01
7.083200000000000000e+04,-5.000000000000000240e-05,-2.000000000000000164e-05,-5.000000000000000240e-05,-2.999999999999999737e-05,2.000000000000000096e-04,3.600000000000000227e-04,-2.000000000000000164e-05,-5.099999999999999282e-04,6.000000000000000000e+00,2.500000000000000000e+01
7.083300000000000000e+04,2.999999999999999737e-05,-2.999999999999999737e-05,-4.000000000000000327e-05,-1.100000000000000039e-04,-3.600000000000000227e-04,2.000000000000000164e-05,2.999999999999999737e-05,4.799999999999999580e-04,6.000000000000000000e+00,2.500000000000000000e+01
7.083400000000000000e+04,0.000000000000000000e+00,2.999999999999999737e-05,0.000000000000000000e+00,-5.999999999999999474e-05,-3.600000000000000227e-04,0.000000000000000000e+00,4.000000000000000327e-05,-2.399999999999999790e-04,6.000000000000000000e+00,2.500000000000000000e+01
7.083500000000000000e+04,0.000000000000000000e+00,2.999999999999999737e-05,0.000000000000000000e+00,-5.999999999999999474e-05,-3.600000000000000227e-04,0.000000000000000000e+00,4.000000000000000327e-05,-2.399999999999999790e-04,6.000000000000000000e+00,2.500000000000000000e+01
7.083600000000000000e+04,0.000000000000000000e+00,2.999999999999999737e-05,0.000000000000000000e+00,-5.999999999999999474e-05,-3.600000000000000227e-04,0.000000000000000000e+00,4.000000000000000327e-05,-2.399999999999999790e-04,6.000000000000000000e+00,2.500000000000000000e+01
7.083800000000000000e+04,0.000000000000000000e+00,2.999999999999999737e-05,0.000000000000000000e+00,-5.999999999999999474e-05,-3.600000000000000227e-04,0.000000000000000000e+00,4.000000000000000327e-05,-2.399999999999999790e-04,6.000000000000000000e+00,2.500000000000000000e+01
7.083900000000000000e+04,0.000000000000000000e+00,2.999999999999999737e-05,0.000000000000000000e+00,-5.999999999999999474e-05,-3.600000000000000227e-04,0.000000000000000000e+00,4.000000000000000327e-05,-2.399999999999999790e-04,6.000000000000000000e+00,2.500000000000000000e+01
7.084000000000000000e+04,0.000000000000000000e+00,2.999999999999999737e-05,0.000000000000000000e+00,-5.999999999999999474e-05,-3.600000000000000227e-04,0.000000000000000000e+00,4.000000000000000327e-05,-2.399999999999999790e-04,6.000000000000000000e+00,2.500000000000000000e+01
7.084100000000000000e+04,0.000000000000000000e+00,2.999999999999999737e-05,0.000000000000000000e+00,-5.999999999999999474e-05,-3.600000000000000227e-04,0.000000000000000000e+00,4.000000000000000327e-05,-2.399999999999999790e-04,6.000000000000000000e+00,2.500000000000000000e+01
7.084200000000000000e+04,0.000000000000000000e+00,2.999999999999999737e-05,0.000000000000000000e+00,-5.999999999999999474e-05,-3.600000000000000227e-04,0.000000000000000000e+00,4.000000000000000327e-05,-2.399999999999999790e-04,6.000000000000000000e+00,2.500000000000000000e+01
7.084300000000000000e+04,0.000000000000000000e+00,2.999999999999999737e-05,0.000000000000000000e+00,-5.999999999999999474e-05,-3.600000000000000227e-04,0.000000000000000000e+00,4.000000000000000327e-05,-2.399999999999999790e-04,6.000000000000000000e+00,2.500000000000000000e+01
7.084400000000000000e+04,0.000000000000000000e+00,2.999999999999999737e-05,0.000000000000000000e+00,-5.999999999999999474e-05,-3.600000000000000227e-04,0.000000000000000000e+00,4.000000000000000327e-05,-2.399999999999999790e-04,6.000000000000000000e+00,2.500000000000000000e+01
7.084500000000000000e+04,0.000000000000000000e+00,2.999999999999999737e-05,0.000000000000000000e+00,-5.999999999999999474e-05,-3.600000000000000227e-04,0.000000000000000000e+00,4.000000000000000327e-05,-2.399999999999999790e-04,6.000000000000000000e+00,2.500000000000000000e+01
7.084600000000000000e+04,0.000000000000000000e+00,2.999999999999999737e-05,0.000000000000000000e+00,-5.999999999999999474e-05,-3.600000000000000227e-04,0.000000000000000000e+00,4.000000000000000327e-05,-2.399999999999999790e-04,6.000000000000000000e+00,2.500000000000000000e+01
7.084700000000000000e+04,0.000000000000000000e+00,2.999999999999999737e-05,0.000000000000000000e+00,-5.999999999999999474e-05,-3.600000000000000227e-04,0.000000000000000000e+00,4.000000000000000327e-05,-2.399999999999999790e-04,6.000000000000000000e+00,2.500000000000000000e+01
7.084800000000000000e+04,0.000000000000000000e+00,2.999999999999999737e-05,0.000000000000000000e+00,-5.999999999999999474e-05,-3.600000000000000227e-04,0.000000000000000000e+00,4.000000000000000327e-05,-2.399999999999999790e-04,6.000000000000000000e+00,2.500000000000000000e+01
7.084900000000000000e+04,0.000000000000000000e+00,2.999999999999999737e-05,0.000000000000000000e+00,-5.999999999999999474e-05,-3.600000000000000227e-04,0.000000000000000000e+00,4.000000000000000327e-05,-2.399999999999999790e-04,6.000000000000000000e+00,2.500000000000000000e+01
7.085000000000000000e+04,0.000000000000000000e+00,2.999999999999999737e-05,0.000000000000000000e+00,-5.999999999999999474e-05,-3.600000000000000227e-04,0.000000000000000000e+00,4.000000000000000327e-05,-2.399999999999999790e-04,6.000000000000000000e+00,2.500000000000000000e+01
7.085100000000000000e+04,0.000000000000000000e+00,2.999999999999999737e-05,0.000000000000000000e+00,-5.999999999999999474e-05,-3.600000000000000227e-04,0.000000000000000000e+00,4.000000000000000327e-05,-2.399999999999999790e-04,6.000000000000000000e+00,2.500000000000000000e+01
7.085200000000000000e+04,0.000000000000000000e+00,2.999999999999999737e-05,0.000000000000000000e+00,-5.999999999999999474e-05,-3.600000000000000227e-04,0.000000000000000000e+00,4.000000000000000327e-05,-2.399999999999999790e-04,6.000000000000000000e+00,2.500000000000000000e+01
7.085300000000000000e+04,0.000000000000000000e+00,2.999999999999999737e-05,0.000000000000000000e+00,-5.999999999999999474e-05,-3.600000000000000227e-04,0.000000000000000000e+00,4.000000000000000327e-05,-2.399999999999999790e-04,6.000000000000000000e+00,2.500000000000000000e+01
7.085400000000000000e+04,0.000000000000000000e+00,2.999999999999999737e-05,0.000000000000000000e+00,-5.999999999999999474e-05,-3.600000000000000227e-04,0.000000000000000000e+00,4.000000000000000327e-05,-2.399999999999999790e-04,6.000000000000000000e+00,2.500000000000000000e+01
7.085500000000000000e+04,-8.000000000000000654e-05,-6.999999999999999387e-05,-4.000000000000000327e-05,2.000000000000000164e-05,5.000000000000000240e-05,9.000000000000000567e-05,0.000000000000000000e+00,4.000000000000000327e-05,6.000000000000000000e+00,2.500000000000000000e+01
7.085600000000000000e+04,-8.000000000000000654e-05,-6.999999999999999387e-05,-4.000000000000000327e-05,2.000000000000000164e-05,5.000000000000000240e-05,9.000000000000000567e-05,0.000000000000000000e+00,4.000000000000000327e-05,6.000000000000000000e+00,2.500000000000000000e+01
7.085700000000000000e+04,-4.000000000000000327e-05,0.000000000000000000e+00,2.999999999999999737e-05,-6.999999999999999387e-05,-5.999999999999999474e-05,-1.399999999999999877e-04,6.999999999999999387e-05,2.799999999999999755e-04,6.000000000000000000e+00,2.500000000000000000e+01
7.085800000000000000e+04,-4.000000000000000327e-05,0.000000000000000000e+00,2.999999999999999737e-05,-6.999999999999999387e-05,-5.999999999999999474e-05,-1.399999999999999877e-04,6.999999999999999387e-05,2.799999999999999755e-04,6.000000000000000000e+00,2.500000000000000000e+01
7.085900000000000000e+04,-4.000000000000000327e-05,0.000000000000000000e+00,2.999999999999999737e-05,-6.999999999999999387e-05,-5.999999999999999474e-05,-1.399999999999999877e-04,6.999999999999999387e-05,2.799999999999999755e-04,6.000000000000000000e+00,2.500000000000000000e+01
7.086000000000000000e+04,-4.000000000000000327e-05,0.000000000000000000e+00,2.999999999999999737e-05,-6.999999999999999387e-05,-5.999999999999999474e-05,-1.399999999999999877e-04,6.999999999999999387e-05,2.799999999999999755e-04,6.000000000000000000e+00,2.500000000000000000e+01
7.086100000000000000e+04,-4.000000000000000327e-05,0.000000000000000000e+00,2.999999999999999737e-05,-6.999999999999999387e-05,-5.999999999999999474e-05,-1.399999999999999877e-04,6.999999999999999387e-05,2.799999999999999755e-04,6.000000000000000000e+00,2.500000000000000000e+01
7.086200000000000000e+04,-4.000000000000000327e-05,0.000000000000000000e+00,2.999999999999999737e-05,-6.999999999999999387e-05,-5.999999999999999474e-05,-1.399999999999999877e-04,6.999999999999999387e-05,2.799999999999999755e-04,6.000000000000000000e+00,2.500000000000000000e+01
7.086300000000000000e+04,-4.000000000000000327e-05,0.000000000000000000e+00,2.999999999999999737e-05,-6.999999999999999387e-05,-5.999999999999999474e-05,-1.399999999999999877e-04,6.999999999999999387e-05,2.799999999999999755e-04,6.000000000000000000e+00,2.500000000000000000e+01
7.086400000000000000e+04,-4.000000000000000327e-05,0.000000000000000000e+00,2.999999999999999737e-05,-6.999999999999999387e-05,-5.999999999999999474e-05,-1.399999999999999877e-04,6.999999999999999387e-05,2.799999999999999755e-04,6.000000000000000000e+00,2.500000000000000000e+01
7.086500000000000000e+04,-4.000000000000000327e-05,0.000000000000000000e+00,2.999999999999999737e-05,-6.999999999999999387e-05,-5.999999999999999474e-05,-1.399999999999999877e-04,6.999999999999999387e-05,2.799999999999999755e-04,6.000000000000000000e+00,2.500000000000000000e+01
7.086600000000000000e+04,-4.000000000000000327e-05,0.000000000000000000e+00,2.999999999999999737e-05,-6.999999999999999387e-05,-5.999999999999999474e-05,-1.399999999999999877e-04,6.999999999999999387e-05,2.799999999999999755e-04,6.000000000000000000e+00,2.500000000000000000e+01
7.086700000000000000e+04,-4.000000000000000327e-05,0.000000000000000000e+00,2.999999999999999737e-05,-6.999999999999999387e-05,-5.999999999999999474e-05,-1.399999999999999877e-04,6.999999999999999387e-05,2.799999999999999755e-04,6.000000000000000000e+00,2.500000000000000000e+01
7.086800000000000000e+04,8.000000000000000654e-05,4.000000000000000327e-05,5.000000000000000240e-05,9.000000000000000567e-05,-2.299999999999999799e-04,-1.499999999999999869e-04,-1.600000000000000131e-04,2.200000000000000078e-04,6.000000000000000000e+00,2.500000000000000000e+01
7.086900000000000000e+04,-2.999999999999999737e-05,1.000000000000000082e-05,1.000000000000000082e-05,5.000000000000000240e-05,2.399999999999999790e-04,-3.899999999999999929e-04,1.399999999999999877e-04,1.000000000000000048e-04,6.000000000000000000e+00,2.500000000000000000e+01
7.087000000000000000e+04,-2.999999999999999737e-05,1.000000000000000082e-05,1.000000000000000082e-05,5.000000000000000240e-05,2.399999999999999790e-04,-3.899999999999999929e-04,1.399999999999999877e-04,1.000000000000000048e-04,6.000000000000000000e+00,2.500000000000000000e+01
7.087100000000000000e+04,-2.999999999999999737e-05,1.000000000000000082e-05,1.000000000000000082e-05,5.000000000000000240e-05,2.399999999999999790e-04,-3.899999999999999929e-04,1.399999999999999877e-04,1.000000000000000048e-04,6.000000000000000000e+00,2.500000000000000000e+01
7.087200000000000000e+04,-2.999999999999999737e-05,1.000000000000000082e-05,1.000000000000000082e-05,5.000000000000000240e-05,2.399999999999999790e-04,-3.899999999999999929e-04,1.399999999999999877e-04,1.000000000000000048e-04,6.000000000000000000e+00,2.500000000000000000e+01
7.087300000000000000e+04,-2.999999999999999737e-05,1.000000000000000082e-05,1.000000000000000082e-05,5.000000000000000240e-05,2.399999999999999790e-04,-3.899999999999999929e-04,1.399999999999999877e-04,1.000000000000000048e-04,6.000000000000000000e+00,2.500000000000000000e+01
7.087400000000000000e+04,-2.999999999999999737e-05,1.000000000000000082e-05,1.000000000000000082e-05,5.000000000000000240e-05,2.399999999999999790e-04,-3.899999999999999929e-04,1.399999999999999877e-04,1.000000000000000048e-04,6.000000000000000000e+00,2.500000000000000000e+01
7.087500000000000000e+04,-2.999999999999999737e-05,1.000000000000000082e-05,1.000000000000000082e-05,5.000000000000000240e-05,2.399999999999999790e-04,-3.899999999999999929e-04,1.399999999999999877e-04,1.000000000000000048e-04,6.000000000000000000e+00,2.500000000000000000e+01
7.087600000000000000e+04,-2.999999999999999737e-05,1.000000000000000082e-05,1.000000000000000082e-05,5.000000000000000240e-05,2.399999999999999790e-04,-3.899999999999999929e-04,1.399999999999999877e-04,1.000000000000000048e-04,6.000000000000000000e+00,2.500000000000000000e+01
7.087700000000000000e+04,-2.999999999999999737e-05,1.000000000000000082e-05,1.000000000000000082e-05,5.000000000000000240e-05,2.399999999999999790e-04,-3.899999999999999929e-04,1.399999999999999877e-04,1.000000000000000048e-04,6.000000000000000000e+00,2.500000000000000000e+01
7.087800000000000000e+04,1.600000000000000131e-04,4.000000000000000327e-05,2.000000000000000164e-05,-9.000000000000000567e-05,-8.000000000000000654e-05,-1.000000000000000082e-05,1.000000000000000082e-05,2.500000000000000052e-04,6.000000000000000000e+00,2.500000000000000000e+01
7.087900000000000000e+04,1.600000000000000131e-04,4.000000000000000327e-05,2.000000000000000164e-05,-9.000000000000000567e-05,-8.000000000000000654e-05,-1.000000000000000082e-05,1.000000000000000082e-05,2.500000000000000052e-04,6.000000000000000000e+00,2.500000000000000000e+01
7.088000000000000000e+04,1.600000000000000131e-04,4.000000000000000327e-05,2.000000000000000164e-05,-9.000000000000000567e-05,-8.000000000000000654e-05,-1.000000000000000082e-05,1.000000000000000082e-05,2.500000000000000052e-04,6.000000000000000000e+00,2.500000000000000000e+01
7.088100000000000000e+04,1.600000000000000131e-04,4.000000000000000327e-05,2.000000000000000164e-05,-9.000000000000000567e-05,-8.000000000000000654e-05,-1.000000000000000082e-05,1.000000000000000082e-05,2.500000000000000052e-04,6.000000000000000000e+00,2.500000000000000000e+01
7.088200000000000000e+04,1.600000000000000131e-04,4.000000000000000327e-05,2.000000000000000164e-05,-9.000000000000000567e-05,-8.000000000000000654e-05,-1.000000000000000082e-05,1.000000000000000082e-05,2.500000000000000052e-04,6.000000000000000000e+00,2.500000000000000000e+01
7.088300000000000000e+04,1.600000000000000131e-04,4.000000000000000327e-05,2.000000000000000164e-05,-9.000000000000000567e-05,-8.000000000000000654e-05,-1.000000000000000082e-05,1.000000000000000082e-05,2.500000000000000052e-04,6.000000000000000000e+00,2.500000000000000000e+01
7.088400000000000000e+04,1.600000000000000131e-04,4.000000000000000327e-05,2.000000000000000164e-05,-9.000000000000000567e-05,-8.000000000000000654e-05,-1.000000000000000082e-05,1.000000000000000082e-05,2.500000000000000052e-04,6.000000000000000000e+00,2.500000000000000000e+01
