5.705400000000000000e+04,-1.399999999999999877e-04,-1.199999999999999895e-04,-2.200000000000000078e-04,-1.800000000000000113e-04,-5.999999999999999474e-05,-6.999999999999999387e-05,-4.000000000000000327e-05,-1.300000000000000157e-04,6.000000000000000000e+00,2.300000000000000000e+01
5.705500000000000000e+04,-1.399999999999999877e-04,-1.199999999999999895e-04,-2.200000000000000078e-04,-1.800000000000000113e-04,-5.999999999999999474e-05,-6.999999999999999387e-05,-4.000000000000000327e-05,-1.300000000000000157e-04,6.000000000000000000e+00,2.300000000000000000e+01
5.705600000000000000e+04,-8.000000000000000654e-05,8.000000000000000654e-05,-2.900000000000000017e-04,-1.499999999999999869e-04,-5.999999999999999474e-05,-5.999999999999999474e-05,-1.199999999999999895e-04,-1.899999999999999834e-04,6.000000000000000000e+00,2.300000000000000000e+01
5.705700000000000000e+04,-8.000000000000000654e-05,8.000000000000000654e-05,-2.900000000000000017e-04,-1.499999999999999869e-04,-5.999999999999999474e-05,-5.999999999999999474e-05,-1.199999999999999895e-04,-1.899999999999999834e-04,6.000000000000000000e+00,2.300000000000000000e+01
5.705800000000000000e+04,-8.000000000000000654e-05,8.000000000000000654e-05,-2.900000000000000017e-04,-1.499999999999999869e-04,-5.999999999999999474e-05,-5.999999999999999474e-05,-1.199999999999999895e-04,-1.899999999999999834e-04,6.000000000000000000e+00,2.300000000000000000e+01
5.705900000000000000e+04,-8.000000000000000654e-05,8.000000000000000654e-05,-2.900000000000000017e-04,-1.499999999999999869e-04,-5.999999999999999474e-05,-5.999999999999999474e-05,-1.199999999999999895e-04,-1.899999999999999834e-04,6.000000000000000000e+00,2.300000000000000000e+01
5.706000000000000000e+04,-8.000000000000000654e-05,8.000000000000000654e-05,-2.900000000000000017e-04,-1.499999999999999869e-04,-5.999999999999999474e-05,-5.999999999999999474e-05,-1.199999999999999895e-04,-1.899999999999999834e-04,6.000000000000000000e+00,2.300000000000000000e+01
5.706100000000000000e+04,-8.000000000000000654e-05,8.000000000000000654e-05,-2.900000000000000017e-04,-1.499999999999999869e-04,-5.999999999999999474e-05,-5.999999999999999474e-05,-1.199999999999999895e-04,-1.899999999999999834e-04,6.000000000000000000e+00,2.300000000000000000e+01
5.706200000000000000e+04,-8.000000000000000654e-05,8.000000000000000654e-05,-2.900000000000000017e-04,-1.499999999999999869e-04,-5.999999999999999474e-05,-5.999999999999999474e-05,-1.199999999999999895e-04,-1.899999999999999834e-04,6.000000000000000000e+00,2.300000000000000000e+01
5.706300000000000000e+04,-8.000000000000000654e-05,8.000000000000000654e-05,-2.900000000000000017e-04,-1.499999999999999869e-04,-5.999999999999999474e-05,-5.999999999999999474e-05,-1.199999999999999895e-04,-1.899999999999999834e-04,6.000000000000000000e+00,2.300000000000000000e+01
5.706400000000000000e+04,-8.000000000000000654e-05,8.000000000000000654e-05,-2.900000000000000017e-04,-1.499999999999999869e-04,-5.999999999999999474e-05,-5.999999999999999474e-05,-1.199999999999999895e-04,-1.899999999999999834e-04,6.000000000000000000e+00,2.300000000000000000e+01
5.706500000000000000e+04,-8.000000000000000654e-05,8.000000000000000654e-05,-2.900000000000000017e-04,-1.499999999999999869e-04,-5.999999999999999474e-05,-5.999999999999999474e-05,-1.199999999999999895e-04,-1.899999999999999834e-04,6.000000000000000000e+00,2.300000000000000000e+01
5.706600000000000000e+04,-8.000000000000000654e-05,8.000000000000000654e-05,-2.900000000000000017e-04,-1.499999999999999869e-04,-5.999999999999999474e-05,-5.999999999999999474e-05,-1.199999999999999895e-04,-1.899999999999999834e-04,6.000000000000000000e+00,2.300000000000000000e+01
5.706700000000000000e+04,-8.000000000000000654e-05,8.000000000000000654e-05,-2.900000000000000017e-04,-1.499999999999999869e-04,-5.999999999999999474e-05,-5.999999999999999474e-05,-1.199999999999999895e-04,-1.899999999999999834e-04,6.000000000000000000e+00,2.300000000000000000e+01
5.706800000000000000e+04,-8.000000000000000654e-05,8.000000000000000654e-05,-2.900000000000000017e-04,-1.499999999999999869e-04,-5.999999999999999474e-05,-5.999999999999999474e-05,-1.199999999999999895e-04,-1.899999999999999834e-04,6.000000000000000000e+00,2.300000000000000000e+01
5.706900000000000000e+04,-8.000000000000000654e-05,8.000000000000000654e-05,-2.900000000000000017e-04,-1.499999999999999869e-04,-5.999999999999999474e-05,-5.999999999999999474e-05,-1.199999999999999895e-04,-1.899999999999999834e-04,6.000000000000000000e+00,2.300000000000000000e+01
5.707000000000000000e+04,-8.000000000000000654e-05,8.000000000000000654e-05,-2.900000000000000017e-04,-1.499999999999999869e-04,-5.999999999999999474e-05,-5.999999999999999474e-05,-1.199999999999999895e-04,-1.899999999999999834e-04,6.000000000000000000e+00,2.300000000000000000e+01
5.707100000000000000e+04,-1.499999999999999869e-04,-2.999999999999999737e-05,8.000000000000000654e-05,2.000000000000000164e-05,-1.000000000000000082e-05,-2.000000000000000164e-05,2.000000000000000164e-05,-4.700000000000000401e-04,6.000000000000000000e+00,2.300000000000000000e+01
5.707200000000000000e+04,3.699999999999999947e-04,2.000000000000000164e-05,0.000000000000000000e+00,2.000000000000000164e-05,4.000000000000000327e-05,4.000000000000000327e-05,2.999999999999999737e-05,4.499999999999999877e-04,6.000000000000000000e+00,2.300000000000000000e+01
5.707300000000000000e+04,3.699999999999999947e-04,2.000000000000000164e-05,0.000000000000000000e+00,2.000000000000000164e-05,4.000000000000000327e-05,4.000000000000000327e-05,2.999999999999999737e-05,4.499999999999999877e-04,6.000000000000000000e+00,2.300000000000000000e+01
5.707400000000000000e+04,3.699999999999999947e-04,2.000000000000000164e-05,0.000000000000000000e+00,2.000000000000000164e-05,4.000000000000000327e-05,4.000000000000000327e-05,2.999999999999999737e-05,4.499999999999999877e-04,6.000000000000000000e+00,2.300000000000000000e+01
5.707500000000000000e+04,3.699999999999999947e-04,2.000000000000000164e-05,0.000000000000000000e+00,2.000000000000000164e-05,4.000000000000000327e-05,4.000000000000000327e-05,2.999999999999999737e-05,4.499999999999999877e-04,6.000000000000000000e+00,2.300000000000000000e+01
5.707600000000000000e+04,3.699999999999999947e-04,2.000000000000000164e-05,0.000000000000000000e+00,2.000000000000000164e-05,4.000000000000000327e-05,4.000000000000000327e-05,2.999999999999999737e-05,4.499999999999999877e-04,6.000000000000000000e+00,2.300000000000000000e+01
5.707700000000000000e+04,3.699999999999999947e-04,2.000000000000000164e-05,0.000000000000000000e+00,2.000000000000000164e-05,4.000000000000000327e-05,4.000000000000000327e-05,2.999999999999999737e-05,4.499999999999999877e-04,6.000000000000000000e+00,2.300000000000000000e+01
5.707800000000000000e+04,3.699999999999999947e-04,2.000000000000000164e-05,0.000000000000000000e+00,2.000000000000000164e-05,4.000000000000000327e-05,4.000000000000000327e-05,2.999999999999999737e-05,4.499999999999999877e-04,6.000000000000000000e+00,2.300000000000000000e+01
5.707900000000000000e+04,3.699999999999999947e-04,2.000000000000000164e-05,0.000000000000000000e+00,2.000000000000000164e-05,4.000000000000000327e-05,4.000000000000000327e-05,2.999999999999999737e-05,4.499999999999999877e-04,6.000000000000000000e+00,2.300000000000000000e+01
5.708000000000000000e+04,3.699999999999999947e-04,2.000000000000000164e-05,0.000000000000000000e+00,2.000000000000000164e-05,4.000000000000000327e-05,4.000000000000000327e-05,2.999999999999999737e-05,4.499999999999999877e-04,6.000000000000000000e+00,2.300000000000000000e+01
5.708100000000000000e+04,3.699999999999999947e-04,2.000000000000000164e-05,0.000000000000000000e+00,2.000000000000000164e-05,4.000000000000000327e-05,4.000000000000000327e-05,2.999999999999999737e-05,4.499999999999999877e-04,6.000000000000000000e+00,2.300000000000000000e+01
5.708200000000000000e+04,3.699999999999999947e-04,2.000000000000000164e-05,0.000000000000000000e+00,2.000000000000000164e-05,4.000000000000000327e-05,4.000000000000000327e-05,2.999999999999999737e-05,4.499999999999999877e-04,6.000000000000000000e+00,2.300000000000000000e+01
5.708300000000000000e+04,3.699999999999999947e-04,2.000000000000000164e-05,0.000000000000000000e+00,2.000000000000000164e-05,4.000000000000000327e-05,4.000000000000000327e-05,2.999999999999999737e-05,4.499999999999999877e-04,6.000000000000000000e+00,2.300000000000000000e+01
5.708400000000000000e+04,3.699999999999999947e-04,2.000000000000000164e-05,0.000000000000000000e+00,2.000000000000000164e-05,4.000000000000000327e-05,4.000000000000000327e-05,2.999999999999999737e-05,4.499999999999999877e-04,6.000000000000000000e+00,2.300000000000000000e+01
5.708500000000000000e+04,1.199999999999999895e-04,1.399999999999999877e-04,4.899999999999999842e-04,4.799999999999999580e-04,1.300000000000000157e-04,9.000000000000000567e-05,1.499999999999999869e-04,-5.999999999999999474e-05,6.000000000000000000e+00,2.300000000000000000e+01
5.708700000000000000e+04,3.799999999999999667e-04,8.000000000000000654e-05,-5.200000000000000629e-04,-4.400000000000000157e-04,-5.000000000000000240e-05,-1.000000000000000082e-05,0.000000000000000000e+00,1.000000000000000082e-05,6.000000000000000000e+00,2.300000000000000000e+01
5.708900000000000000e+04,3.799999999999999667e-04,8.000000000000000654e-05,-5.200000000000000629e-04,-4.400000000000000157e-04,-5.000000000000000240e-05,-1.000000000000000082e-05,0.000000000000000000e+00,1.000000000000000082e-05,6.000000000000000000e+00,2.300000000000000000e+01
5.709000000000000000e+04,3.799999999999999667e-04,8.000000000000000654e-05,-5.200000000000000629e-04,-4.400000000000000157e-04,-5.000000000000000240e-05,-1.000000000000000082e-05,0.000000000000000000e+00,1.000000000000000082e-05,6.000000000000000000e+00,2.300000000000000000e+01
5.709100000000000000e+04,3.799999999999999667e-04,8.000000000000000654e-05,-5.200000000000000629e-04,-4.400000000000000157e-04,-5.000000000000000240e-05,-1.000000000000000082e-05,0.000000000000000000e+00,1.000000000000000082e-05,6.000000000000000000e+00,2.300000000000000000e+01
5.709200000000000000e+04,3.799999999999999667e-04,8.000000000000000654e-05,-5.200000000000000629e-04,-4.400000000000000157e-04,-5.000000000000000240e-05,-1.000000000000000082e-05,0.000000000000000000e+00,1.000000000000000082e-05,6.000000000000000000e+00,2.300000000000000000e+01
5.709300000000000000e+04,2.999999999999999737e-05,-6.999999999999999387e-05,-3.200000000000000262e-04,-5.000000000000000240e-05,1.000000000000000082e-05,-1.000000000000000082e-05,2.999999999999999737e-05,-2.999999999999999737e-05,6.000000000000000000e+00,2.300000000000000000e+01
5.709400000000000000e+04,2.999999999999999737e-05,-6.999999999999999387e-05,-3.200000000000000262e-04,-5.000000000000000240e-05,1.000000000000000082e-05,-1.000000000000000082e-05,2.999999999999999737e-05,-2.999999999999999737e-05,6.000000000000000000e+00,2.300000000000000000e+01
5.709500000000000000e+04,2.999999999999999737e-05,-6.999999999999999387e-05,-3.200000000000000262e-04,-5.000000000000000240e-05,1.000000000000000082e-05,-1.000000000000000082e-05,2.999999999999999737e-05,-2.999999999999999737e-05,6.000000000000000000e+00,2.300000000000000000e+01
5.709600000000000000e+04,2.999999999999999737e-05,-6.999999999999999387e-05,-3.200000000000000262e-04,-5.000000000000000240e-05,1.000000000000000082e-05,-1.000000000000000082e-05,2.999999999999999737e-05,-2.999999999999999737e-05,6.000000000000000000e+00,2.300000000000000000e+01
5.709700000000000000e+04,2.999999999999999737e-05,-6.999999999999999387e-05,-3.200000000000000262e-04,-5.000000000000000240e-05,1.000000000000000082e-05,-1.000000000000000082e-05,2.999999999999999737e-05,-2.999999999999999737e-05,6.000000000000000000e+00,2.300000000000000000e+01
5.709800000000000000e+04,2.999999999999999737e-05,-6.999999999999999387e-05,-3.200000000000000262e-04,-5.000000000000000240e-05,1.000000000000000082e-05,-1.000000000000000082e-05,2.999999999999999737e-05,-2.999999999999999737e-05,6.000000000000000000e+00,2.300000000000000000e+01
5.709900000000000000e+04,2.999999999999999737e-05,-6.999999999999999387e-05,-3.200000000000000262e-04,-5.000000000000000240e-05,1.000000000000000082e-05,-1.000000000000000082e-05,2.999999999999999737e-05,-2.999999999999999737e-05,6.000000000000000000e+00,2.300000000000000000e+01
5.710000000000000000e+04,2.999999999999999737e-05,-6.999999999999999387e-05,-3.200000000000000262e-04,-5.000000000000000240e-05,1.000000000000000082e-05,-1.000000000000000082e-05,2.999999999999999737e-05,-2.999999999999999737e-05,6.000000000000000000e+00,2.300000000000000000e+01
5.710100000000000000e+04,2.999999999999999737e-05,-6.999999999999999387e-05,-3.200000000000000262e-04,-5.000000000000000240e-05,1.000000000000000082e-05,-1.000000000000000082e-05,2.999999999999999737e-05,-2.999999999999999737e-05,6.000000000000000000e+00,2.300000000000000000e+01
5.710200000000000000e+04,2.999999999999999737e-05,-6.999999999999999387e-05,-3.200000000000000262e-04,-5.000000000000000240e-05,1.000000000000000082e-05,-1.000000000000000082e-05,2.999999999999999737e-05,-2.999999999999999737e-05,6.000000000000000000e+00,2.300000000000000000e+01
5.710300000000000000e+04,2.999999999999999737e-05,-6.999999999999999387e-05,-3.200000000000000262e-04,-5.000000000000000240e-05,1.000000000000000082e-05,-1.000000000000000082e-05,2.999999999999999737e-05,-2.999999999999999737e-05,6.000000000000000000e+00,2.300000000000000000e+01
5.710400000000000000e+04,2.999999999999999737e-05,-6.999999999999999387e-05,-3.200000000000000262e-04,-5.000000000000000240e-05,1.000000000000000082e-05,-1.000000000000000082e-05,2.999999999999999737e-05,-2.999999999999999737e-05,6.000000000000000000e+00,2.300000000000000000e+01
5.710500000000000000e+04,2.999999999999999737e-05,-6.999999999999999387e-05,-3.200000000000000262e-04,-5.000000000000000240e-05,1.000000000000000082e-05,-1.000000000000000082e-05,2.999999999999999737e-05,-2.999999999999999737e-05,6.000000000000000000e+00,2.300000000000000000e+01
5.710600000000000000e+04,2.999999999999999737e-05,-6.999999999999999387e-05,-3.200000000000000262e-04,-5.000000000000000240e-05,1.000000000000000082e-05,-1.000000000000000082e-05,2.999999999999999737e-05,-2.999999999999999737e-05,6.000000000000000000e+00,2.300000000000000000e+01
5.710700000000000000e+04,2.999999999999999737e-05,-6.999999999999999387e-05,-3.200000000000000262e-04,-5.000000000000000240e-05,1.000000000000000082e-05,-1.000000000000000082e-05,2.999999999999999737e-05,-2.999999999999999737e-05,6.000000000000000000e+00,2.300000000000000000e+01
5.710800000000000000e+04,-1.399999999999999877e-04,-1.300000000000000157e-04,2.299999999999999799e-04,1.899999999999999834e-04,-1.000000000000000082e-05,-4.000000000000000327e-05,4.000000000000000327e-05,-2.000000000000000164e-05,6.000000000000000000e+00,2.300000000000000000e+01
5.710900000000000000e+04,-1.399999999999999877e-04,-1.300000000000000157e-04,2.299999999999999799e-04,1.899999999999999834e-04,-1.000000000000000082e-05,-4.000000000000000327e-05,4.000000000000000327e-05,-2.000000000000000164e-05,6.000000000000000000e+00,2.300000000000000000e+01
5.711000000000000000e+04,-6.999999999999999387e-05,-5.000000000000000240e-05,-9.000000000000000567e-05,-2.999999999999999737e-05,0.000000000000000000e+00,2.000000000000000164e-05,1.399999999999999877e-04,1.899999999999999834e-04,6.000000000000000000e+00,2.300000000000000000e+01
5.711100000000000000e+04,-6.999999999999999387e-05,-5.000000000000000240e-05,-9.000000000000000567e-05,-2.999999999999999737e-05,0.000000000000000000e+00,2.000000000000000164e-05,1.399999999999999877e-04,1.899999999999999834e-04,6.000000000000000000e+00,2.300000000000000000e+01
5.711200000000000000e+04,-6.999999999999999387e-05,-5.000000000000000240e-05,-9.000000000000000567e-05,-2.999999999999999737e-05,0.000000000000000000e+00,2.000000000000000164e-05,1.399999999999999877e-04,1.899999999999999834e-04,6.000000000000000000e+00,2.300000000000000000e+01
5.711300000000000000e+04,-6.999999999999999387e-05,-5.000000000000000240e-05,-9.000000000000000567e-05,-2.999999999999999737e-05,0.000000000000000000e+00,2.000000000000000164e-05,1.399999999999999877e-04,1.899999999999999834e-04,6.000000000000000000e+00,2.300000000000000000e+01
5.711400000000000000e+04,-6.999999999999999387e-05,-5.000000000000000240e-05,-9.000000000000000567e-05,-2.999999999999999737e-05,0.000000000000000000e+00,2.000000000000000164e-05,1.399999999999999877e-04,1.899999999999999834e-04,6.000000000000000000e+00,2.300000000000000000e+01
5.711500000000000000e+04,-6.999999999999999387e-05,-5.000000000000000240e-05,-9.000000000000000567e-05,-2.999999999999999737e-05,0.000000000000000000e+00,2.000000000000000164e-05,1.399999999999999877e-04,1.899999999999999834e-04,6.000000000000000000e+00,2.300000000000000000e+01
5.711600000000000000e+04,-6.999999999999999387e-05,-5.000000000000000240e-05,-9.000000000000000567e-05,-2.999999999999999737e-05,0.000000000000000000e+00,2.000000000000000164e-05,1.399999999999999877e-04,1.899999999999999834e-04,6.000000000000000000e+00,2.300000000000000000e+01
5.711700000000000000e+04,-6.999999999999999387e-05,-5.000000000000000240e-05,-9.000000000000000567e-05,-2.999999999999999737e-05,0.000000000000000000e+00,2.000000000000000164e-05,1.399999999999999877e-04,1.899999999999999834e-04,6.000000000000000000e+00,2.300000000000000000e+01
5.711800000000000000e+04,-6.999999999999999387e-05,-5.000000000000000240e-05,-9.000000000000000567e-05,-2.999999999999999737e-05,0.000000000000000000e+00,2.000000000000000164e-05,1.399999999999999877e-04,1.899999999999999834e-04,6.000000000000000000e+00,2.300000000000000000e+01
5.711900000000000000e+04,-6.999999999999999387e-05,-5.000000000000000240e-05,-9.000000000000000567e-05,-2.999999999999999737e-05,0.000000000000000000e+00,2.000000000000000164e-05,1.399999999999999877e-04,1.899999999999999834e-04,6.000000000000000000e+00,2.300000000000000000e+01
5.712000000000000000e+04,-6.999999999999999387e-05,-5.000000000000000240e-05,-9.000000000000000567e-05,-2.999999999999999737e-05,0.000000000000000000e+00,2.000000000000000164e-05,1.399999999999999877e-04,1.899999999999999834e-04,6.000000000000000000e+00,2.300000000000000000e+01
5.712100000000000000e+04,-6.999999999999999387e-05,-5.000000000000000240e-05,-9.000000000000000567e-05,-2.999999999999999737e-05,0.000000000000000000e+00,2.000000000000000164e-05,1.399999999999999877e-04,1.899999999999999834e-04,6.000000000000000000e+00,2.300000000000000000e+01
5.712200000000000000e+04,-6.999999999999999387e-05,-5.000000000000000240e-05,-9.000000000000000567e-05,-2.999999999999999737e-05,0.000000000000000000e+00,2.000000000000000164e-05,1.399999999999999877e-04,1.899999999999999834e-04,6.000000000000000000e+00,2.300000000000000000e+01
5.712300000000000000e+04,-6.999999999999999387e-05,-5.000000000000000240e-05,-9.000000000000000567e-05,-2.999999999999999737e-05,0.000000000000000000e+00,2.000000000000000164e-05,1.399999999999999877e-04,1.899999999999999834e-04,6.000000000000000000e+00,2.300000000000000000e+01
5.712400000000000000e+04,-6.999999999999999387e-05,-5.000000000000000240e-05,-9.000000000000000567e-05,-2.999999999999999737e-05,0.000000000000000000e+00,2.000000000000000164e-05,1.399999999999999877e-04,1.899999999999999834e-04,6.000000000000000000e+00,2.300000000000000000e+01
5.712500000000000000e+04,-6.999999999999999387e-05,-5.000000000000000240e-05,-9.000000000000000567e-05,-2.999999999999999737e-05,0.000000000000000000e+00,2.000000000000000164e-05,1.399999999999999877e-04,1.899999999999999834e-04,6.000000000000000000e+00,2.300000000000000000e+01
5.712600000000000000e+04,-6.999999999999999387e-05,-5.000000000000000240e-05,-9.000000000000000567e-05,-2.999999999999999737e-05,0.000000000000000000e+00,2.000000000000000164e-05,1.399999999999999877e-04,1.899999999999999834e-04,6.000000000000000000e+00,2.300000000000000000e+01
5.712700000000000000e+04,-6.999999999999999387e-05,-5.000000000000000240e-05,-9.000000000000000567e-05,-2.999999999999999737e-05,0.000000000000000000e+00,2.000000000000000164e-05,1.399999999999999877e-04,1.899999999999999834e-04,6.000000000000000000e+00,2.300000000000000000e+01
5.712800000000000000e+04,-6.999999999999999387e-05,-5.000000000000000240e-05,-9.000000000000000567e-05,-2.999999999999999737e-05,0.000000000000000000e+00,2.000000000000000164e-05,1.399999999999999877e-04,1.899999999999999834e-04,6.000000000000000000e+00,2.300000000000000000e+01
5.712900000000000000e+04,-6.999999999999999387e-05,-5.000000000000000240e-05,-9.000000000000000567e-05,-2.999999999999999737e-05,0.000000000000000000e+00,2.000000000000000164e-05,1.399999999999999877e-04,1.899999999999999834e-04,6.000000000000000000e+00,2.300000000000000000e+01
5.713000000000000000e+04,-6.999999999999999387e-05,-5.000000000000000240e-05,-9.000000000000000567e-05,-2.999999999999999737e-05,0.000000000000000000e+00,2.000000000000000164e-05,1.399999999999999877e-04,1.899999999999999834e-04,6.000000000000000000e+00,2.300000000000000000e+01
5.713100000000000000e+04,-2.000000000000000096e-04,-1.000000000000000048e-04,-1.000000000000000082e-05,0.000000000000000000e+00,-5.000000000000000240e-05,-5.000000000000000240e-05,-2.700000000000000035e-04,-3.299999999999999982e-04,6.000000000000000000e+00,2.300000000000000000e+01
5.713200000000000000e+04,-1.100000000000000039e-04,-2.999999999999999737e-05,2.999999999999999737e-04,2.999999999999999737e-05,-1.000000000000000082e-05,1.000000000000000082e-05,-1.000000000000000082e-05,-5.000000000000000240e-05,6.000000000000000000e+00,2.300000000000000000e+01
5.713300000000000000e+04,-1.100000000000000039e-04,-2.999999999999999737e-05,2.999999999999999737e-04,2.999999999999999737e-05,-1.000000000000000082e-05,1.000000000000000082e-05,-1.000000000000000082e-05,-5.000000000000000240e-05,6.000000000000000000e+00,2.300000000000000000e+01
5.713400000000000000e+04,-1.100000000000000039e-04,-2.999999999999999737e-05,2.999999999999999737e-04,2.999999999999999737e-05,-1.000000000000000082e-05,1.000000000000000082e-05,-1.000000000000000082e-05,-5.000000000000000240e-05,6.000000000000000000e+00,2.300000000000000000e+01
5.713500000000000000e+04,-1.100000000000000039e-04,-2.999999999999999737e-05,2.999999999999999737e-04,2.999999999999999737e-05,-1.000000000000000082e-05,1.000000000000000082e-05,-1.000000000000000082e-05,-5.000000000000000240e-05,6.000000000000000000e+00,2.300000000000000000e+01
5.713600000000000000e+04,-1.100000000000000039e-04,-2.999999999999999737e-05,2.999999999999999737e-04,2.999999999999999737e-05,-1.000000000000000082e-05,1.000000000000000082e-05,-1.000000000000000082e-05,-5.000000000000000240e-05,6.000000000000000000e+00,2.300000000000000000e+01
5.713800000000000000e+04,-1.100000000000000039e-04,-2.999999999999999737e-05,2.999999999999999737e-04,2.999999999999999737e-05,-1.000000000000000082e-05,1.000000000000000082e-05,-1.000000000000000082e-05,-5.000000000000000240e-05,6.000000000000000000e+00,2.300000000000000000e+01
5.713900000000000000e+04,-1.100000000000000039e-04,-2.999999999999999737e-05,2.999999999999999737e-04,2.999999999999999737e-05,-1.000000000000000082e-05,1.000000000000000082e-05,-1.000000000000000082e-05,-5.000000000000000240e-05,6.000000000000000000e+00,2.300000000000000000e+01
5.714000000000000000e+04,-1.100000000000000039e-04,-2.999999999999999737e-05,2.999999999999999737e-04,2.999999999999999737e-05,-1.000000000000000082e-05,1.000000000000000082e-05,-1.000000000000000082e-05,-5.000000000000000240e-05,6.000000000000000000e+00,2.300000000000000000e+01
5.714100000000000000e+04,-1.100000000000000039e-04,-2.999999999999999737e-05,2.999999999999999737e-04,2.999999999999999737e-05,-1.000000000000000082e-05,1.000000000000000082e-05,-1.000000000000000082e-05,-5.000000000000000240e-05,6.000000000000000000e+00,2.300000000000000000e+01
5.714200000000000000e+04,-1.100000000000000039e-04,-2.999999999999999737e-05,2.999999999999999737e-04,2.999999999999999737e-05,-1.000000000000000082e-05,1.000000000000000082e-05,-1.000000000000000082e-05,-5.000000000000000240e-05,6.000000000000000000e+00,2.300000000000000000e+01
5.714300000000000000e+04,-1.100000000000000039e-04,-2.999999999999999737e-05,2.999999999999999737e-04,2.999999999999999737e-05,-1.000000000000000082e-05,1.000000000000000082e-05,-1.000000000000000082e-05,-5.000000000000000240e-05,6.000000000000000000e+00,2.300000000000000000e+01
5.714400000000000000e+04,-1.000000000000000048e-04,1.199999999999999895e-04,2.500000000000000052e-04,1.600000000000000131e-04,2.999999999999999737e-05,0.000000000000000000e+00,-5.999999999999999474e-05,-1.000000000000000082e-05,6.000000000000000000e+00,2.300000000000000000e+01
5.714500000000000000e+04,-5.999999999999999474e-05,-2.999999999999999737e-05,1.300000000000000157e-04,9.000000000000000567e-05,0.000000000000000000e+00,-1.000000000000000082e-05,6.999999999999999387e-05,5.999999999999999474e-05,6.000000000000000000e+00,2.300000000000000000e+01
5.714600000000000000e+04,-5.999999999999999474e-05,-2.999999999999999737e-05,1.300000000000000157e-04,9.000000000000000567e-05,0.000000000000000000e+00,-1.000000000000000082e-05,6.999999999999999387e-05,5.999999999999999474e-05,6.000000000000000000e+00,2.300000000000000000e+01
5.714700000000000000e+04,-5.999999999999999474e-05,-2.999999999999999737e-05,1.300000000000000157e-04,9.000000000000000567e-05,0.000000000000000000e+00,-1.000000000000000082e-05,6.999999999999999387e-05,5.999999999999999474e-05,6.000000000000000000e+00,2.300000000000000000e+01
5.714800000000000000e+04,-5.999999999999999474e-05,-2.999999999999999737e-05,1.300000000000000157e-04,9.000000000000000567e-05,0.000000000000000000e+00,-1.000000000000000082e-05,6.999999999999999387e-05,5.999999999999999474e-05,6.000000000000000000e+00,2.300000000000000000e+01
5.714900000000000000e+04,-5.999999999999999474e-05,-2.999999999999999737e-05,1.300000000000000157e-04,9.000000000000000567e-05,0.000000000000000000e+00,-1.000000000000000082e-05,6.999999999999999387e-05,5.999999999999999474e-05,6.000000000000000000e+00,2.300000000000000000e+01
5.715000000000000000e+04,-5.999999999999999474e-05,-2.999999999999999737e-05,1.300000000000000157e-04,9.000000000000000567e-05,0.000000000000000000e+00,-1.000000000000000082e-05,6.999999999999999387e-05,5.999999999999999474e-05,6.000000000000000000e+00,2.300000000000000000e+01
5.715100000000000000e+04,-5.999999999999999474e-05,-2.999999999999999737e-05,1.300000000000000157e-04,9.000000000000000567e-05,0.000000000000000000e+00,-1.000000000000000082e-05,6.999999999999999387e-05,5.999999999999999474e-05,6.000000000000000000e+00,2.300000000000000000e+01
5.715200000000000000e+04,-5.999999999999999474e-05,-2.999999999999999737e-05,1.300000000000000157e-04,9.000000000000000567e-05,0.000000000000000000e+00,-1.000000000000000082e-05,6.999999999999999387e-05,5.999999999999999474e-05,6.000000000000000000e+00,2.300000000000000000e+01
5.715300000000000000e+04,3.799999999999999667e-04,-1.699999999999999851e-04,5.999999999999999474e-05,-1.800000000000000113e-04,-8.000000000000000654e-05,-4.000000000000000327e-05,-8.000000000000000654e-05,-1.300000000000000157e-04,6.000000000000000000e+00,2.300000000000000000e+01
5.715500000000000000e+04,3.799999999999999667e-04,-1.699999999999999851e-04,5.999999999999999474e-05,-1.800000000000000113e-04,-8.000000000000000654e-05,-4.000000000000000327e-05,-8.000000000000000654e-05,-1.300000000000000157e-04,6.000000000000000000e+00,2.300000000000000000e+01
5.715600000000000000e+04,3.799999999999999667e-04,-1.699999999999999851e-04,5.999999999999999474e-05,-1.800000000000000113e-04,-8.000000000000000654e-05,-4.000000000000000327e-05,-8.000000000000000654e-05,-1.300000000000000157e-04,6.000000000000000000e+00,2.300000000000000000e+01
5.715700000000000000e+04,3.799999999999999667e-04,-1.699999999999999851e-04,5.999999999999999474e-05,-1.800000000000000113e-04,-8.000000000000000654e-05,-4.000000000000000327e-05,-8.000000000000000654e-05,-1.300000000000000157e-04,6.000000000000000000e+00,2.300000000000000000e+01
5.715800000000000000e+04,3.799999999999999667e-04,-1.699999999999999851e-04,5.999999999999999474e-05,-1.800000000000000113e-04,-8.000000000000000654e-05,-4.000000000000000327e-05,-8.000000000000000654e-05,-1.300000000000000157e-04,6.000000000000000000e+00,2.300000000000000000e+01
5.715900000000000000e+04,3.799999999999999667e-04,-1.699999999999999851e-04,5.999999999999999474e-05,-1.800000000000000113e-04,-8.000000000000000654e-05,-4.000000000000000327e-05,-8.000000000000000654e-05,-1.300000000000000157e-04,6.000000000000000000e+00,2.300000000000000000e+01
5.716000000000000000e+04,3.799999999999999667e-04,-1.699999999999999851e-04,5.999999999999999474e-05,-1.800000000000000113e-04,-8.000000000000000654e-05,-4.000000000000000327e-05,-8.000000000000000654e-05,-1.300000000000000157e-04,6.000000000000000000e+00,2.300000000000000000e+01
5.716100000000000000e+04,3.799999999999999667e-04,-1.699999999999999851e-04,5.999999999999999474e-05,-1.800000000000000113e-04,-8.000000000000000654e-05,-4.000000000000000327e-05,-8.000000000000000654e-05,-1.300000000000000157e-04,6.000000000000000000e+00,2.300000000000000000e+01
5.716200000000000000e+04,3.799999999999999667e-04,-1.699999999999999851e-04,5.999999999999999474e-05,-1.800000000000000113e-04,-8.000000000000000654e-05,-4.000000000000000327e-05,-8.000000000000000654e-05,-1.300000000000000157e-04,6.000000000000000000e+00,2.300000000000000000e+01
5.716300000000000000e+04,3.799999999999999667e-04,-1.699999999999999851e-04,5.999999999999999474e-05,-1.800000000000000113e-04,-8.000000000000000654e-05,-4.000000000000000327e-05,-8.000000000000000654e-05,-1.300000000000000157e-04,6.000000000000000000e+00,2.300000000000000000e+01
5.716400000000000000e+04,3.799999999999999667e-04,-1.699999999999999851e-04,5.999999999999999474e-05,-1.800000000000000113e-04,-8.000000000000000654e-05,-4.000000000000000327e-05,-8.000000000000000654e-05,-1.300000000000000157e-04,6.000000000000000000e+00,2.300000000000000000e+01
5.716500000000000000e+04,3.799999999999999667e-04,-1.699999999999999851e-04,5.999999999999999474e-05,-1.800000000000000113e-04,-8.000000000000000654e-05,-4.000000000000000327e-05,-8.000000000000000654e-05,-1.300000000000000157e-04,6.000000000000000000e+00,2.300000000000000000e+01
5.716600000000000000e+04,3.799999999999999667e-04,-1.699999999999999851e-04,5.999999999999999474e-05,-1.800000000000000113e-04,-8.000000000000000654e-05,-4.000000000000000327e-05,-8.000000000000000654e-05,-1.300000000000000157e-04,6.000000000000000000e+00,2.300000000000000000e+01
5.716700000000000000e+04,3.799999999999999667e-04,-1.699999999999999851e-04,5.999999999999999474e-05,-1.800000000000000113e-04,-8.000000000000000654e-05,-4.000000000000000327e-05,-8.000000000000000654e-05,-1.300000000000000157e-04,6.000000000000000000e+00,2.300000000000000000e+01
5.716800000000000000e+04,5.999999999999999474e-05,-9.000000000000000567e-05,1.000000000000000082e-05,-6.999999999999999387e-05,-2.000000000000000164e-05,2.000000000000000164e-05,2.100000000000000087e-04,4.499999999999999877e-04,6.000000000000000000e+00,2.300000000000000000e+01
5.716900000000000000e+04,5.999999999999999474e-05,-9.000000000000000567e-05,1.000000000000000082e-05,-6.999999999999999387e-05,-2.000000000000000164e-05,2.000000000000000164e-05,2.100000000000000087e-04,4.499999999999999877e-04,6.000000000000000000e+00,2.300000000000000000e+01
5.717000000000000000e+04,-1.300000000000000157e-04,-6.999999999999999387e-05,4.499999999999999877e-04,3.399999999999999702e-04,6.999999999999999387e-05,-1.000000000000000082e-05,-1.499999999999999869e-04,-5.299999999999999807e-04,6.000000000000000000e+00,2.300000000000000000e+01
5.717100000000000000e+04,-2.600000000000000314e-04,-9.000000000000000567e-05,-4.299999999999999894e-04,-2.299999999999999799e-04,-5.000000000000000240e-05,-2.999999999999999737e-05,-6.999999999999999387e-05,-6.999999999999999387e-05,6.000000000000000000e+00,2.300000000000000000e+01
5.717200000000000000e+04,-2.600000000000000314e-04,-9.000000000000000567e-05,-4.299999999999999894e-04,-2.299999999999999799e-04,-5.000000000000000240e-05,-2.999999999999999737e-05,-6.999999999999999387e-05,-6.999999999999999387e-05,6.000000000000000000e+00,2.300000000000000000e+01
5.717300000000000000e+04,-2.600000000000000314e-04,-9.000000000000000567e-05,-4.299999999999999894e-04,-2.299999999999999799e-04,-5.000000000000000240e-05,-2.999999999999999737e-05,-6.999999999999999387e-05,-6.999999999999999387e-05,6.000000000000000000e+00,2.300000000000000000e+01
5.717400000000000000e+04,-2.600000000000000314e-04,-9.000000000000000567e-05,-4.299999999999999894e-04,-2.299999999999999799e-04,-5.000000000000000240e-05,-2.999999999999999737e-05,-6.999999999999999387e-05,-6.999999999999999387e-05,6.000000000000000000e+00,2.300000000000000000e+01
5.717500000000000000e+04,-2.600000000000000314e-04,-9.000000000000000567e-05,-4.299999999999999894e-04,-2.299999999999999799e-04,-5.000000000000000240e-05,-2.999999999999999737e-05,-6.999999999999999387e-05,-6.999999999999999387e-05,6.000000000000000000e+00,2.300000000000000000e+01
5.717600000000000000e+04,-2.600000000000000314e-04,-9.000000000000000567e-05,-4.299999999999999894e-04,-2.299999999999999799e-04,-5.000000000000000240e-05,-2.999999999999999737e-05,-6.999999999999999387e-05,-6.999999999999999387e-05,6.000000000000000000e+00,2.300000000000000000e+01
5.717700000000000000e+04,-2.600000000000000314e-04,-9.000000000000000567e-05,-4.299999999999999894e-04,-2.299999999999999799e-04,-5.000000000000000240e-05,-2.999999999999999737e-05,-6.999999999999999387e-05,-6.999999999999999387e-05,6.000000000000000000e+00,2.300000000000000000e+01
5.717800000000000000e+04,-2.600000000000000314e-04,-9.000000000000000567e-05,-4.299999999999999894e-04,-2.299999999999999799e-04,-5.000000000000000240e-05,-2.999999999999999737e-05,-6.999999999999999387e-05,-6.999999999999999387e-05,6.000000000000000000e+00,2.300000000000000000e+01
5.717900000000000000e+04,-2.600000000000000314e-04,-9.000000000000000567e-05,-4.299999999999999894e-04,-2.299999999999999799e-04,-5.000000000000000240e-05,-2.999999999999999737e-05,-6.999999999999999387e-05,-6.999999999999999387e-05,6.000000000000000000e+00,2.300000000000000000e+01
5.718000000000000000e+04,-2.600000000000000314e-04,-9.000000000000000567e-05,-4.299999999999999894e-04,-2.299999999999999799e-04,-5.000000000000000240e-05,-2.999999999999999737e-05,-6.999999999999999387e-05,-6.999999999999999387e-05,6.000000000000000000e+00,2.300000000000000000e+01
5.718100000000000000e+04,-2.600000000000000314e-04,-9.000000000000000567e-05,-4.299999999999999894e-04,-2.299999999999999799e-04,-5.000000000000000240e-05,-2.999999999999999737e-05,-6.999999999999999387e-05,-6.999999999999999387e-05,6.000000000000000000e+00,2.300000000000000000e+01
5.718200000000000000e+04,-2.600000000000000314e-04,-9.000000000000000567e-05,-4.299999999999999894e-04,-2.299999999999999799e-04,-5.000000000000000240e-05,-2.999999999999999737e-05,-6.999999999999999387e-05,-6.999999999999999387e-05,6.000000000000000000e+00,2.300000000000000000e+01
5.718300000000000000e+04,-2.600000000000000314e-04,-9.000000000000000567e-05,-4.299999999999999894e-04,-2.299999999999999799e-04,-5.000000000000000240e-05,-2.999999999999999737e-05,-6.999999999999999387e-05,-6.999999999999999387e-05,6.000000000000000000e+00,2.300000000000000000e+01
5.718400000000000000e+04,-2.600000000000000314e-04,-9.000000000000000567e-05,-4.299999999999999894e-04,-2.299999999999999799e-04,-5.000000000000000240e-05,-2.999999999999999737e-05,-6.999999999999999387e-05,-6.999999999999999387e-05,6.000000000000000000e+00,2.300000000000000000e+01
5.718500000000000000e+04,-2.600000000000000314e-04,-9.000000000000000567e-05,-4.299999999999999894e-04,-2.299999999999999799e-04,-5.000000000000000240e-05,-2.999999999999999737e-05,-6.999999999999999387e-05,-6.999999999999999387e-05,6.000000000000000000e+00,2.300000000000000000e+01
5.718600000000000000e+04,-2.600000000000000314e-04,-9.000000000000000567e-05,-4.299999999999999894e-04,-2.299999999999999799e-04,-5.000000000000000240e-05,-2.999999999999999737e-05,-6.999999999999999387e-05,-6.999999999999999387e-05,6.000000000000000000e+00,2.300000000000000000e+01
5.718800000000000000e+04,-2.600000000000000314e-04,-9.000000000000000567e-05,-4.299999999999999894e-04,-2.299999999999999799e-04,-5.000000000000000240e-05,-2.999999999999999737e-05,-6.999999999999999387e-05,-6.999999999999999387e-05,6.000000000000000000e+00,2.300000000000000000e+01
5.718900000000000000e+04,-2.600000000000000314e-04,-9.000000000000000567e-05,-4.299999999999999894e-04,-2.299999999999999799e-04,-5.000000000000000240e-05,-2.999999999999999737e-05,-6.999999999999999387e-05,-6.999999999999999387e-05,6.000000000000000000e+00,2.300000000000000000e+01
5.719000000000000000e+04,-2.600000000000000314e-04,-9.000000000000000567e-05,-4.299999999999999894e-04,-2.299999999999999799e-04,-5.000000000000000240e-05,-2.999999999999999737e-05,-6.999999999999999387e-05,-6.999999999999999387e-05,6.000000000000000000e+00,2.300000000000000000e+01
5.719100000000000000e+04,2.500000000000000052e-04,-1.600000000000000131e-04,-1.899999999999999834e-04,9.000000000000000567e-05,4.000000000000000327e-05,1.000000000000000082e-05,0.000000000000000000e+00,2.999999999999999737e-04,6.000000000000000000e+00,2.300000000000000000e+01
5.719200000000000000e+04,-2.999999999999999737e-05,5.999999999999999474e-05,1.000000000000000082e-05,5.999999999999999474e-05,5.999999999999999474e-05,2.000000000000000164e-05,1.000000000000000082e-05,1.300000000000000157e-04,6.000000000000000000e+00,2.300000000000000000e+01
5.719300000000000000e+04,-2.999999999999999737e-05,5.999999999999999474e-05,1.000000000000000082e-05,5.999999999999999474e-05,5.999999999999999474e-05,2.000000000000000164e-05,1.000000000000000082e-05,1.300000000000000157e-04,6.000000000000000000e+00,2.300000000000000000e+01
5.719400000000000000e+04,-2.999999999999999737e-05,5.999999999999999474e-05,1.000000000000000082e-05,5.999999999999999474e-05,5.999999999999999474e-05,2.000000000000000164e-05,1.000000000000000082e-05,1.300000000000000157e-04,6.000000000000000000e+00,2.300000000000000000e+01
5.719500000000000000e+04,-2.999999999999999737e-05,5.999999999999999474e-05,1.000000000000000082e-05,5.999999999999999474e-05,5.999999999999999474e-05,2.000000000000000164e-05,1.000000000000000082e-05,1.300000000000000157e-04,6.000000000000000000e+00,2.300000000000000000e+01
5.719600000000000000e+04,-2.999999999999999737e-05,5.999999999999999474e-05,1.000000000000000082e-05,5.999999999999999474e-05,5.999999999999999474e-05,2.000000000000000164e-05,1.000000000000000082e-05,1.300000000000000157e-04,6.000000000000000000e+00,2.300000000000000000e+01
5.719700000000000000e+04,-2.999999999999999737e-05,5.999999999999999474e-05,1.000000000000000082e-05,5.999999999999999474e-05,5.999999999999999474e-05,2.000000000000000164e-05,1.000000000000000082e-05,1.300000000000000157e-04,6.000000000000000000e+00,2.300000000000000000e+01
5.719800000000000000e+04,-2.999999999999999737e-05,5.999999999999999474e-05,1.000000000000000082e-05,5.999999999999999474e-05,5.999999999999999474e-05,2.000000000000000164e-05,1.000000000000000082e-05,1.300000000000000157e-04,6.000000000000000000e+00,2.300000000000000000e+01
5.719900000000000000e+04,-2.999999999999999737e-05,5.999999999999999474e-05,1.000000000000000082e-05,5.999999999999999474e-05,5.999999999999999474e-05,2.000000000000000164e-05,1.000000000000000082e-05,1.300000000000000157e-04,6.000000000000000000e+00,2.300000000000000000e+01
5.720000000000000000e+04,-2.999999999999999737e-05,5.999999999999999474e-05,1.000000000000000082e-05,5.999999999999999474e-05,5.999999999999999474e-05,2.000000000000000164e-05,1.000000000000000082e-05,1.300000000000000157e-04,6.000000000000000000e+00,2.300000000000000000e+01
5.720100000000000000e+04,-2.999999999999999737e-05,5.999999999999999474e-05,1.000000000000000082e-05,5.999999999999999474e-05,5.999999999999999474e-05,2.000000000000000164e-05,1.000000000000000082e-05,1.300000000000000157e-04,6.000000000000000000e+00,2.300000000000000000e+01
5.720200000000000000e+04,-2.999999999999999737e-05,5.999999999999999474e-05,1.000000000000000082e-05,5.999999999999999474e-05,5.999999999999999474e-05,2.000000000000000164e-05,1.000000000000000082e-05,1.300000000000000157e-04,6.000000000000000000e+00,2.300000000000000000e+01
5.720300000000000000e+04,-2.999999999999999737e-05,5.999999999999999474e-05,1.000000000000000082e-05,5.999999999999999474e-05,5.999999999999999474e-05,2.000000000000000164e-05,1.000000000000000082e-05,1.300000000000000157e-04,6.000000000000000000e+00,2.300000000000000000e+01
5.720400000000000000e+04,-8.000000000000000654e-05,-2.000000000000000096e-04,9.000000000000000567e-05,2.999999999999999737e-05,-1.000000000000000082e-05,1.000000000000000082e-05,1.000000000000000082e-05,1.899999999999999834e-04,6.000000000000000000e+00,2.300000000000000000e+01
5.720500000000000000e+04,-4.000000000000000327e-05,1.499999999999999869e-04,0.000000000000000000e+00,3.799999999999999667e-04,2.999999999999999737e-05,1.000000000000000082e-05,2.999999999999999737e-05,-5.000000000000000240e-05,6.000000000000000000e+00,2.300000000000000000e+01
5.720600000000000000e+04,-4.000000000000000327e-05,1.499999999999999869e-04,0.000000000000000000e+00,3.799999999999999667e-04,2.999999999999999737e-05,1.000000000000000082e-05,2.999999999999999737e-05,-5.000000000000000240e-05,6.000000000000000000e+00,2.300000000000000000e+01
5.720700000000000000e+04,-4.000000000000000327e-05,1.499999999999999869e-04,0.000000000000000000e+00,3.799999999999999667e-04,2.999999999999999737e-05,1.000000000000000082e-05,2.999999999999999737e-05,-5.000000000000000240e-05,6.000000000000000000e+00,2.300000000000000000e+01
5.720800000000000000e+04,-4.000000000000000327e-05,1.499999999999999869e-04,0.000000000000000000e+00,3.799999999999999667e-04,2.999999999999999737e-05,1.000000000000000082e-05,2.999999999999999737e-05,-5.000000000000000240e-05,6.000000000000000000e+00,2.300000000000000000e+01
5.720900000000000000e+04,-4.000000000000000327e-05,1.499999999999999869e-04,0.000000000000000000e+00,3.799999999999999667e-04,2.999999999999999737e-05,1.000000000000000082e-05,2.999999999999999737e-05,-5.000000000000000240e-05,6.000000000000000000e+00,2.300000000000000000e+01
5.721000000000000000e+04,-4.000000000000000327e-05,1.499999999999999869e-04,0.000000000000000000e+00,3.799999999999999667e-04,2.999999999999999737e-05,1.000000000000000082e-05,2.999999999999999737e-05,-5.000000000000000240e-05,6.000000000000000000e+00,2.300000000000000000e+01
5.721100000000000000e+04,-4.000000000000000327e-05,1.499999999999999869e-04,0.000000000000000000e+00,3.799999999999999667e-04,2.999999999999999737e-05,1.000000000000000082e-05,2.999999999999999737e-05,-5.000000000000000240e-05,6.000000000000000000e+00,2.300000000000000000e+01
5.721200000000000000e+04,-4.000000000000000327e-05,1.499999999999999869e-04,0.000000000000000000e+00,3.799999999999999667e-04,2.999999999999999737e-05,1.000000000000000082e-05,2.999999999999999737e-05,-5.000000000000000240e-05,6.000000000000000000e+00,2.300000000000000000e+01
5.721300000000000000e+04,-4.700000000000000401e-04,-2.500000000000000052e-04,-2.500000000000000052e-04,-4.499999999999999877e-04,-1.399999999999999877e-04,-6.999999999999999387e-05,-1.499999999999999869e-04,-3.499999999999999964e-04,6.000000000000000000e+00,2.300000000000000000e+01
5.721400000000000000e+04,-4.700000000000000401e-04,-2.500000000000000052e-04,-2.500000000000000052e-04,-4.499999999999999877e-04,-1.399999999999999877e-04,-6.999999999999999387e-05,-1.499999999999999869e-04,-3.499999999999999964e-04,6.000000000000000000e+00,2.300000000000000000e+01
5.721500000000000000e+04,-4.700000000000000401e-04,-2.500000000000000052e-04,-2.500000000000000052e-04,-4.499999999999999877e-04,-1.399999999999999877e-04,-6.999999999999999387e-05,-1.499999999999999869e-04,-3.499999999999999964e-04,6.000000000000000000e+00,2.300000000000000000e+01
5.721600000000000000e+04,-4.700000000000000401e-04,-2.500000000000000052e-04,-2.500000000000000052e-04,-4.499999999999999877e-04,-1.399999999999999877e-04,-6.999999999999999387e-05,-1.499999999999999869e-04,-3.499999999999999964e-04,6.000000000000000000e+00,2.300000000000000000e+01
5.721700000000000000e+04,-4.700000000000000401e-04,-2.500000000000000052e-04,-2.500000000000000052e-04,-4.499999999999999877e-04,-1.399999999999999877e-04,-6.999999999999999387e-05,-1.499999999999999869e-04,-3.499999999999999964e-04,6.000000000000000000e+00,2.300000000000000000e+01
5.721800000000000000e+04,-4.700000000000000401e-04,-2.500000000000000052e-04,-2.500000000000000052e-04,-4.499999999999999877e-04,-1.399999999999999877e-04,-6.999999999999999387e-05,-1.499999999999999869e-04,-3.499999999999999964e-04,6.000000000000000000e+00,2.300000000000000000e+01
5.721900000000000000e+04,-4.700000000000000401e-04,-2.500000000000000052e-04,-2.500000000000000052e-04,-4.499999999999999877e-04,-1.399999999999999877e-04,-6.999999999999999387e-05,-1.499999999999999869e-04,-3.499999999999999964e-04,6.000000000000000000e+00,2.300000000000000000e+01
5.722000000000000000e+04,-4.700000000000000401e-04,-2.500000000000000052e-04,-2.500000000000000052e-04,-4.499999999999999877e-04,-1.399999999999999877e-04,-6.999999999999999387e-05,-1.499999999999999869e-04,-3.499999999999999964e-04,6.000000000000000000e+00,2.300000000000000000e+01
5.722100000000000000e+04,-4.700000000000000401e-04,-2.500000000000000052e-04,-2.500000000000000052e-04,-4.499999999999999877e-04,-1.399999999999999877e-04,-6.999999999999999387e-05,-1.499999999999999869e-04,-3.499999999999999964e-04,6.000000000000000000e+00,2.300000000000000000e+01
5.722200000000000000e+04,-4.700000000000000401e-04,-2.500000000000000052e-04,-2.500000000000000052e-04,-4.499999999999999877e-04,-1.399999999999999877e-04,-6.999999999999999387e-05,-1.499999999999999869e-04,-3.499999999999999964e-04,6.000000000000000000e+00,2.300000000000000000e+01
5.722300000000000000e+04,-4.700000000000000401e-04,-2.500000000000000052e-04,-2.500000000000000052e-04,-4.499999999999999877e-04,-1.399999999999999877e-04,-6.999999999999999387e-05,-1.499999999999999869e-04,-3.499999999999999964e-04,6.000000000000000000e+00,2.300000000000000000e+01
5.722400000000000000e+04,-4.700000000000000401e-04,-2.500000000000000052e-04,-2.500000000000000052e-04,-4.499999999999999877e-04,-1.399999999999999877e-04,-6.999999999999999387e-05,-1.499999999999999869e-04,-3.499999999999999964e-04,6.000000000000000000e+00,2.300000000000000000e+01
5.722500000000000000e+04,-4.700000000000000401e-04,-2.500000000000000052e-04,-2.500000000000000052e-04,-4.499999999999999877e-04,-1.399999999999999877e-04,-6.999999999999999387e-05,-1.499999999999999869e-04,-3.499999999999999964e-04,6.000000000000000000e+00,2.300000000000000000e+01
5.722600000000000000e+04,-4.700000000000000401e-04,-2.500000000000000052e-04,-2.500000000000000052e-04,-4.499999999999999877e-04,-1.399999999999999877e-04,-6.999999999999999387e-05,-1.499999999999999869e-04,-3.499999999999999964e-04,6.000000000000000000e+00,2.300000000000000000e+01
5.722700000000000000e+04,-4.700000000000000401e-04,-2.500000000000000052e-04,-2.500000000000000052e-04,-4.499999999999999877e-04,-1.399999999999999877e-04,-6.999999999999999387e-05,-1.499999999999999869e-04,-3.499999999999999964e-04,6.000000000000000000e+00,2.300000000000000000e+01
5.722800000000000000e+04,-5.000000000000000240e-05,1.000000000000000048e-04,4.099999999999999912e-04,1.199999999999999895e-04,-1.000000000000000082e-05,-2.000000000000000164e-05,-1.000000000000000082e-05,-1.000000000000000048e-04,6.000000000000000000e+00,2.300000000000000000e+01
5.722900000000000000e+04,-5.000000000000000240e-05,1.000000000000000048e-04,4.099999999999999912e-04,1.199999999999999895e-04,-1.000000000000000082e-05,-2.000000000000000164e-05,-1.000000000000000082e-05,-1.000000000000000048e-04,6.000000000000000000e+00,2.300000000000000000e+01
5.723000000000000000e+04,5.000000000000000240e-05,2.500000000000000052e-04,1.699999999999999851e-04,2.399999999999999790e-04,1.000000000000000048e-04,5.000000000000000240e-05,4.000000000000000327e-05,2.000000000000000096e-04,6.000000000000000000e+00,2.300000000000000000e+01
5.723100000000000000e+04,5.000000000000000240e-05,2.500000000000000052e-04,1.699999999999999851e-04,2.399999999999999790e-04,1.000000000000000048e-04,5.000000000000000240e-05,4.000000000000000327e-05,2.000000000000000096e-04,6.000000000000000000e+00,2.300000000000000000e+01
5.723200000000000000e+04,5.000000000000000240e-05,2.500000000000000052e-04,1.699999999999999851e-04,2.399999999999999790e-04,1.000000000000000048e-04,5.000000000000000240e-05,4.000000000000000327e-05,2.000000000000000096e-04,6.000000000000000000e+00,2.300000000000000000e+01
5.723300000000000000e+04,5.000000000000000240e-05,2.500000000000000052e-04,1.699999999999999851e-04,2.399999999999999790e-04,1.000000000000000048e-04,5.000000000000000240e-05,4.000000000000000327e-05,2.000000000000000096e-04,6.000000000000000000e+00,2.300000000000000000e+01
5.723400000000000000e+04,5.000000000000000240e-05,2.500000000000000052e-04,1.699999999999999851e-04,2.399999999999999790e-04,1.000000000000000048e-04,5.000000000000000240e-05,4.000000000000000327e-05,2.000000000000000096e-04,6.000000000000000000e+00,2.300000000000000000e+01
5.723500000000000000e+04,5.000000000000000240e-05,2.500000000000000052e-04,1.699999999999999851e-04,2.399999999999999790e-04,1.000000000000000048e-04,5.000000000000000240e-05,4.000000000000000327e-05,2.000000000000000096e-04,6.000000000000000000e+00,2.300000000000000000e+01
5.723600000000000000e+04,5.000000000000000240e-05,2.500000000000000052e-04,1.699999999999999851e-04,2.399999999999999790e-04,1.000000000000000048e-04,5.000000000000000240e-05,4.000000000000000327e-05,2.000000000000000096e-04,6.000000000000000000e+00,2.300000000000000000e+01
5.723800000000000000e+04,5.000000000000000240e-05,2.500000000000000052e-04,1.699999999999999851e-04,2.399999999999999790e-04,1.000000000000000048e-04,5.000000000000000240e-05,4.000000000000000327e-05,2.000000000000000096e-04,6.000000000000000000e+00,2.300000000000000000e+01
5.723900000000000000e+04,5.000000000000000240e-05,2.500000000000000052e-04,1.699999999999999851e-04,2.399999999999999790e-04,1.000000000000000048e-04,5.000000000000000240e-05,4.000000000000000327e-05,2.000000000000000096e-04,6.000000000000000000e+00,2.300000000000000000e+01
5.724000000000000000e+04,5.000000000000000240e-05,2.500000000000000052e-04,1.699999999999999851e-04,2.399999999999999790e-04,1.000000000000000048e-04,5.000000000000000240e-05,4.000000000000000327e-05,2.000000000000000096e-04,6.000000000000000000e+00,2.300000000000000000e+01
5.724100000000000000e+04,5.000000000000000240e-05,2.500000000000000052e-04,1.699999999999999851e-04,2.399999999999999790e-04,1.000000000000000048e-04,5.000000000000000240e-05,4.000000000000000327e-05,2.000000000000000096e-04,6.000000000000000000e+00,2.300000000000000000e+01
5.724200000000000000e+04,5.000000000000000240e-05,2.500000000000000052e-04,1.699999999999999851e-04,2.399999999999999790e-04,1.000000000000000048e-04,5.000000000000000240e-05,4.000000000000000327e-05,2.000000000000000096e-04,6.000000000000000000e+00,2.300000000000000000e+01
5.724300000000000000e+04,5.000000000000000240e-05,2.500000000000000052e-04,1.699999999999999851e-04,2.399999999999999790e-04,1.000000000000000048e-04,5.000000000000000240e-05,4.000000000000000327e-05,2.000000000000000096e-04,6.000000000000000000e+00,2.300000000000000000e+01
5.724400000000000000e+04,5.000000000000000240e-05,2.500000000000000052e-04,1.699999999999999851e-04,2.399999999999999790e-04,1.000000000000000048e-04,5.000000000000000240e-05,4.000000000000000327e-05,2.000000000000000096e-04,6.000000000000000000e+00,2.300000000000000000e+01
5.724500000000000000e+04,5.000000000000000240e-05,2.500000000000000052e-04,1.699999999999999851e-04,2.399999999999999790e-04,1.000000000000000048e-04,5.000000000000000240e-05,4.000000000000000327e-05,2.000000000000000096e-04,6.000000000000000000e+00,2.300000000000000000e+01
5.724600000000000000e+04,5.000000000000000240e-05,2.500000000000000052e-04,1.699999999999999851e-04,2.399999999999999790e-04,1.000000000000000048e-04,5.000000000000000240e-05,4.000000000000000327e-05,2.000000000000000096e-04,6.000000000000000000e+00,2.300000000000000000e+01
5.724700000000000000e+04,5.000000000000000240e-05,2.500000000000000052e-04,1.699999999999999851e-04,2.399999999999999790e-04,1.000000000000000048e-04,5.000000000000000240e-05,4.000000000000000327e-05,2.000000000000000096e-04,6.000000000000000000e+00,2.300000000000000000e+01
5.724800000000000000e+04,5.000000000000000240e-05,2.500000000000000052e-04,1.699999999999999851e-04,2.399999999999999790e-04,1.000000000000000048e-04,5.000000000000000240e-05,4.000000000000000327e-05,2.000000000000000096e-04,6.000000000000000000e+00,2.300000000000000000e+01
5.724900000000000000e+04,5.000000000000000240e-05,2.500000000000000052e-04,1.699999999999999851e-04,2.399999999999999790e-04,1.000000000000000048e-04,5.000000000000000240e-05,4.000000000000000327e-05,2.000000000000000096e-04,6.000000000000000000e+00,2.300000000000000000e+01
5.725000000000000000e+04,5.000000000000000240e-05,2.500000000000000052e-04,1.699999999999999851e-04,2.399999999999999790e-04,1.000000000000000048e-04,5.000000000000000240e-05,4.000000000000000327e-05,2.000000000000000096e-04,6.000000000000000000e+00,2.300000000000000000e+01
5.725100000000000000e+04,5.000000000000000240e-05,2.500000000000000052e-04,1.699999999999999851e-04,2.399999999999999790e-04,1.000000000000000048e-04,5.000000000000000240e-05,4.000000000000000327e-05,2.000000000000000096e-04,6.000000000000000000e+00,2.300000000000000000e+01
5.725200000000000000e+04,5.000000000000000240e-05,2.500000000000000052e-04,1.699999999999999851e-04,2.399999999999999790e-04,1.000000000000000048e-04,5.000000000000000240e-05,4.000000000000000327e-05,2.000000000000000096e-04,6.000000000000000000e+00,2.300000000000000000e+01
5.725300000000000000e+04,5.000000000000000240e-05,2.500000000000000052e-04,1.699999999999999851e-04,2.399999999999999790e-04,1.000000000000000048e-04,5.000000000000000240e-05,4.000000000000000327e-05,2.000000000000000096e-04,6.000000000000000000e+00,2.300000000000000000e+01
5.725400000000000000e+04,5.000000000000000240e-05,2.500000000000000052e-04,1.699999999999999851e-04,2.399999999999999790e-04,1.000000000000000048e-04,5.000000000000000240e-05,4.000000000000000327e-05,2.000000000000000096e-04,6.000000000000000000e+00,2.300000000000000000e+01
5.725500000000000000e+04,5.000000000000000240e-05,2.500000000000000052e-04,1.699999999999999851e-04,2.399999999999999790e-04,1.000000000000000048e-04,5.000000000000000240e-05,4.000000000000000327e-05,2.000000000000000096e-04,6.000000000000000000e+00,2.300000000000000000e+01
5.725600000000000000e+04,5.000000000000000240e-05,2.500000000000000052e-04,1.699999999999999851e-04,2.399999999999999790e-04,1.000000000000000048e-04,5.000000000000000240e-05,4.000000000000000327e-05,2.000000000000000096e-04,6.000000000000000000e+00,2.300000000000000000e+01
5.725700000000000000e+04,5.000000000000000240e-05,2.500000000000000052e-04,1.699999999999999851e-04,2.399999999999999790e-04,1.000000000000000048e-04,5.000000000000000240e-05,4.000000000000000327e-05,2.000000000000000096e-04,6.000000000000000000e+00,2.300000000000000000e+01
5.725800000000000000e+04,5.000000000000000240e-05,9.000000000000000567e-05,-4.000000000000000327e-05,-1.399999999999999877e-04,-5.000000000000000240e-05,-2.999999999999999737e-05,4.000000000000000327e-05,6.999999999999999387e-05,6.000000000000000000e+00,2.300000000000000000e+01
5.725900000000000000e+04,5.000000000000000240e-05,9.000000000000000567e-05,-4.000000000000000327e-05,-1.399999999999999877e-04,-5.000000000000000240e-05,-2.999999999999999737e-05,4.000000000000000327e-05,6.999999999999999387e-05,6.000000000000000000e+00,2.300000000000000000e+01
5.726000000000000000e+04,6.999999999999999387e-05,-2.999999999999999737e-05,1.000000000000000048e-04,8.000000000000000654e-05,0.000000000000000000e+00,-1.000000000000000082e-05,-2.200000000000000078e-04,-6.700000000000000226e-04,6.000000000000000000e+00,2.300000000000000000e+01
5.726100000000000000e+04,6.999999999999999387e-05,-2.999999999999999737e-05,1.000000000000000048e-04,8.000000000000000654e-05,0.000000000000000000e+00,-1.000000000000000082e-05,-2.200000000000000078e-04,-6.700000000000000226e-04,6.000000000000000000e+00,2.300000000000000000e+01
5.726200000000000000e+04,6.999999999999999387e-05,-2.999999999999999737e-05,1.000000000000000048e-04,8.000000000000000654e-05,0.000000000000000000e+00,-1.000000000000000082e-05,-2.200000000000000078e-04,-6.700000000000000226e-04,6.000000000000000000e+00,2.300000000000000000e+01
5.726300000000000000e+04,6.999999999999999387e-05,-2.999999999999999737e-05,1.000000000000000048e-04,8.000000000000000654e-05,0.000000000000000000e+00,-1.000000000000000082e-05,-2.200000000000000078e-04,-6.700000000000000226e-04,6.000000000000000000e+00,2.300000000000000000e+01
5.726400000000000000e+04,-1.199999999999999895e-04,5.000000000000000240e-05,-2.200000000000000078e-04,-2.500000000000000052e-04,-2.999999999999999737e-05,-2.999999999999999737e-05,0.000000000000000000e+00,4.000000000000000327e-05,6.000000000000000000e+00,2.300000000000000000e+01
5.726500000000000000e+04,-1.199999999999999895e-04,5.000000000000000240e-05,-2.200000000000000078e-04,-2.500000000000000052e-04,-2.999999999999999737e-05,-2.999999999999999737e-05,0.000000000000000000e+00,4.000000000000000327e-05,6.000000000000000000e+00,2.300000000000000000e+01
5.726600000000000000e+04,-1.199999999999999895e-04,5.000000000000000240e-05,-2.200000000000000078e-04,-2.500000000000000052e-04,-2.999999999999999737e-05,-2.999999999999999737e-05,0.000000000000000000e+00,4.000000000000000327e-05,6.000000000000000000e+00,2.300000000000000000e+01
5.726700000000000000e+04,-1.199999999999999895e-04,5.000000000000000240e-05,-2.200000000000000078e-04,-2.500000000000000052e-04,-2.999999999999999737e-05,-2.999999999999999737e-05,0.000000000000000000e+00,4.000000000000000327e-05,6.000000000000000000e+00,2.300000000000000000e+01
5.726800000000000000e+04,-1.199999999999999895e-04,5.000000000000000240e-05,-2.200000000000000078e-04,-2.500000000000000052e-04,-2.999999999999999737e-05,-2.999999999999999737e-05,0.000000000000000000e+00,4.000000000000000327e-05,6.000000000000000000e+00,2.300000000000000000e+01
5.726900000000000000e+04,-1.199999999999999895e-04,5.000000000000000240e-05,-2.200000000000000078e-04,-2.500000000000000052e-04,-2.999999999999999737e-05,-2.999999999999999737e-05,0.000000000000000000e+00,4.000000000000000327e-05,6.000000000000000000e+00,2.300000000000000000e+01
5.727000000000000000e+04,-1.199999999999999895e-04,5.000000000000000240e-05,-2.200000000000000078e-04,-2.500000000000000052e-04,-2.999999999999999737e-05,-2.999999999999999737e-05,0.000000000000000000e+00,4.000000000000000327e-05,6.000000000000000000e+00,2.300000000000000000e+01
5.727100000000000000e+04,-1.199999999999999895e-04,5.000000000000000240e-05,-2.200000000000000078e-04,-2.500000000000000052e-04,-2.999999999999999737e-05,-2.999999999999999737e-05,0.000000000000000000e+00,4.000000000000000327e-05,6.000000000000000000e+00,2.300000000000000000e+01
5.727200000000000000e+04,-1.199999999999999895e-04,5.000000000000000240e-05,-2.200000000000000078e-04,-2.500000000000000052e-04,-2.999999999999999737e-05,-2.999999999999999737e-05,0.000000000000000000e+00,4.000000000000000327e-05,6.000000000000000000e+00,2.300000000000000000e+01
5.727300000000000000e+04,5.000000000000000240e-05,-5.000000000000000240e-05,2.100000000000000087e-04,1.300000000000000157e-04,-2.999999999999999737e-05,-2.000000000000000164e-05,-2.000000000000000164e-05,-2.999999999999999737e-05,6.000000000000000000e+00,2.300000000000000000e+01
5.727400000000000000e+04,2.100000000000000087e-04,1.600000000000000131e-04,8.000000000000000654e-05,2.000000000000000096e-04,2.999999999999999737e-05,2.000000000000000164e-05,9.000000000000000567e-05,2.799999999999999755e-04,6.000000000000000000e+00,2.300000000000000000e+01
5.727500000000000000e+04,2.100000000000000087e-04,1.600000000000000131e-04,8.000000000000000654e-05,2.000000000000000096e-04,2.999999999999999737e-05,2.000000000000000164e-05,9.000000000000000567e-05,2.799999999999999755e-04,6.000000000000000000e+00,2.300000000000000000e+01
5.727600000000000000e+04,2.100000000000000087e-04,1.600000000000000131e-04,8.000000000000000654e-05,2.000000000000000096e-04,2.999999999999999737e-05,2.000000000000000164e-05,9.000000000000000567e-05,2.799999999999999755e-04,6.000000000000000000e+00,2.300000000000000000e+01
5.727700000000000000e+04,2.100000000000000087e-04,1.600000000000000131e-04,8.000000000000000654e-05,2.000000000000000096e-04,2.999999999999999737e-05,2.000000000000000164e-05,9.000000000000000567e-05,2.799999999999999755e-04,6.000000000000000000e+00,2.300000000000000000e+01
5.727800000000000000e+04,2.100000000000000087e-04,1.600000000000000131e-04,8.000000000000000654e-05,2.000000000000000096e-04,2.999999999999999737e-05,2.000000000000000164e-05,9.000000000000000567e-05,2.799999999999999755e-04,6.000000000000000000e+00,2.300000000000000000e+01
5.727900000000000000e+04,2.100000000000000087e-04,1.600000000000000131e-04,8.000000000000000654e-05,2.000000000000000096e-04,2.999999999999999737e-05,2.000000000000000164e-05,9.000000000000000567e-05,2.799999999999999755e-04,6.000000000000000000e+00,2.300000000000000000e+01
5.728000000000000000e+04,2.100000000000000087e-04,1.600000000000000131e-04,8.000000000000000654e-05,2.000000000000000096e-04,2.999999999999999737e-05,2.000000000000000164e-05,9.000000000000000567e-05,2.799999999999999755e-04,6.000000000000000000e+00,2.300000000000000000e+01
5.728100000000000000e+04,2.100000000000000087e-04,1.600000000000000131e-04,8.000000000000000654e-05,2.000000000000000096e-04,2.999999999999999737e-05,2.000000000000000164e-05,9.000000000000000567e-05,2.799999999999999755e-04,6.000000000000000000e+00,2.300000000000000000e+01
5.728200000000000000e+04,2.100000000000000087e-04,1.600000000000000131e-04,8.000000000000000654e-05,2.000000000000000096e-04,2.999999999999999737e-05,2.000000000000000164e-05,9.000000000000000567e-05,2.799999999999999755e-04,6.000000000000000000e+00,2.300000000000000000e+01
5.728300000000000000e+04,2.100000000000000087e-04,1.600000000000000131e-04,8.000000000000000654e-05,2.000000000000000096e-04,2.999999999999999737e-05,2.000000000000000164e-05,9.000000000000000567e-05,2.799999999999999755e-04,6.000000000000000000e+00,2.300000000000000000e+01
5.728400000000000000e+04,2.100000000000000087e-04,1.600000000000000131e-04,8.000000000000000654e-05,2.000000000000000096e-04,2.999999999999999737e-05,2.000000000000000164e-05,9.000000000000000567e-05,2.799999999999999755e-04,6.000000000000000000e+00,2.300000000000000000e+01
5.728500000000000000e+04,2.100000000000000087e-04,1.600000000000000131e-04,8.000000000000000654e-05,2.000000000000000096e-04,2.999999999999999737e-05,2.000000000000000164e-05,9.000000000000000567e-05,2.799999999999999755e-04,6.000000000000000000e+00,2.300000000000000000e+01
5.728600000000000000e+04,2.100000000000000087e-04,1.600000000000000131e-04,8.000000000000000654e-05,2.000000000000000096e-04,2.999999999999999737e-05,2.000000000000000164e-05,9.000000000000000567e-05,2.799999999999999755e-04,6.000000000000000000e+00,2.300000000000000000e+01
5.728800000000000000e+04,2.100000000000000087e-04,1.600000000000000131e-04,8.000000000000000654e-05,2.000000000000000096e-04,2.999999999999999737e-05,2.000000000000000164e-05,9.000000000000000567e-05,2.799999999999999755e-04,6.000000000000000000e+00,2.300000000000000000e+01
5.728900000000000000e+04,-1.300000000000000157e-04,-2.999999999999999737e-04,-2.200000000000000078e-04,-3.399999999999999702e-04,-4.000000000000000327e-05,-2.999999999999999737e-05,-2.999999999999999737e-05,-2.100000000000000087e-04,6.000000000000000000e+00,2.300000000000000000e+01
5.729000000000000000e+04,0.000000000000000000e+00,-2.000000000000000096e-04,1.000000000000000082e-05,3.699999999999999947e-04,2.999999999999999737e-05,0.000000000000000000e+00,-1.000000000000000082e-05,1.399999999999999877e-04,6.000000000000000000e+00,2.300000000000000000e+01
5.729100000000000000e+04,0.000000000000000000e+00,-2.000000000000000096e-04,1.000000000000000082e-05,3.699999999999999947e-04,2.999999999999999737e-05,0.000000000000000000e+00,-1.000000000000000082e-05,1.399999999999999877e-04,6.000000000000000000e+00,2.300000000000000000e+01
5.729200000000000000e+04,0.000000000000000000e+00,-2.000000000000000096e-04,1.000000000000000082e-05,3.699999999999999947e-04,2.999999999999999737e-05,0.000000000000000000e+00,-1.000000000000000082e-05,1.399999999999999877e-04,6.000000000000000000e+00,2.300000000000000000e+01
5.729300000000000000e+04,0.000000000000000000e+00,-2.000000000000000096e-04,1.000000000000000082e-05,3.699999999999999947e-04,2.999999999999999737e-05,0.000000000000000000e+00,-1.000000000000000082e-05,1.399999999999999877e-04,6.000000000000000000e+00,2.300000000000000000e+01
5.729400000000000000e+04,0.000000000000000000e+00,-2.000000000000000096e-04,1.000000000000000082e-05,3.699999999999999947e-04,2.999999999999999737e-05,0.000000000000000000e+00,-1.000000000000000082e-05,1.399999999999999877e-04,6.000000000000000000e+00,2.300000000000000000e+01
5.729500000000000000e+04,0.000000000000000000e+00,-2.000000000000000096e-04,1.000000000000000082e-05,3.699999999999999947e-04,2.999999999999999737e-05,0.000000000000000000e+00,-1.000000000000000082e-05,1.399999999999999877e-04,6.000000000000000000e+00,2.300000000000000000e+01
5.729600000000000000e+04,0.000000000000000000e+00,-2.000000000000000096e-04,1.000000000000000082e-05,3.699999999999999947e-04,2.999999999999999737e-05,0.000000000000000000e+00,-1.000000000000000082e-05,1.399999999999999877e-04,6.000000000000000000e+00,2.300000000000000000e+01
5.729700000000000000e+04,0.000000000000000000e+00,-2.000000000000000096e-04,1.000000000000000082e-05,3.699999999999999947e-04,2.999999999999999737e-05,0.000000000000000000e+00,-1.000000000000000082e-05,1.399999999999999877e-04,6.000000000000000000e+00,2.300000000000000000e+01
5.729800000000000000e+04,0.000000000000000000e+00,-2.000000000000000096e-04,1.000000000000000082e-05,3.699999999999999947e-04,2.999999999999999737e-05,0.000000000000000000e+00,-1.000000000000000082e-05,1.399999999999999877e-04,6.000000000000000000e+00,2.300000000000000000e+01
5.729900000000000000e+04,0.000000000000000000e+00,-2.000000000000000096e-04,1.000000000000000082e-05,3.699999999999999947e-04,2.999999999999999737e-05,0.000000000000000000e+00,-1.000000000000000082e-05,1.399999999999999877e-04,6.000000000000000000e+00,2.300000000000000000e+01
5.730000000000000000e+04,0.000000000000000000e+00,-2.000000000000000096e-04,1.000000000000000082e-05,3.699999999999999947e-04,2.999999999999999737e-05,0.000000000000000000e+00,-1.000000000000000082e-05,1.399999999999999877e-04,6.000000000000000000e+00,2.300000000000000000e+01
5.730100000000000000e+04,0.000000000000000000e+00,-2.000000000000000096e-04,1.000000000000000082e-05,3.699999999999999947e-04,2.999999999999999737e-05,0.000000000000000000e+00,-1.000000000000000082e-05,1.399999999999999877e-04,6.000000000000000000e+00,2.300000000000000000e+01
5.730200000000000000e+04,0.000000000000000000e+00,-2.000000000000000096e-04,1.000000000000000082e-05,3.699999999999999947e-04,2.999999999999999737e-05,0.000000000000000000e+00,-1.000000000000000082e-05,1.399999999999999877e-04,6.000000000000000000e+00,2.300000000000000000e+01
5.730300000000000000e+04,0.000000000000000000e+00,-2.000000000000000096e-04,1.000000000000000082e-05,3.699999999999999947e-04,2.999999999999999737e-05,0.000000000000000000e+00,-1.000000000000000082e-05,1.399999999999999877e-04,6.000000000000000000e+00,2.300000000000000000e+01
5.730400000000000000e+04,0.000000000000000000e+00,-2.000000000000000096e-04,1.000000000000000082e-05,3.699999999999999947e-04,2.999999999999999737e-05,0.000000000000000000e+00,-1.000000000000000082e-05,1.399999999999999877e-04,6.000000000000000000e+00,2.300000000000000000e+01
5.730500000000000000e+04,0.000000000000000000e+00,-2.000000000000000096e-04,1.000000000000000082e-05,3.699999999999999947e-04,2.999999999999999737e-05,0.000000000000000000e+00,-1.000000000000000082e-05,1.399999999999999877e-04,6.000000000000000000e+00,2.300000000000000000e+01
5.730600000000000000e+04,0.000000000000000000e+00,-2.000000000000000096e-04,1.000000000000000082e-05,3.699999999999999947e-04,2.999999999999999737e-05,0.000000000000000000e+00,-1.000000000000000082e-05,1.399999999999999877e-04,6.000000000000000000e+00,2.300000000000000000e+01
5.730700000000000000e+04,0.000000000000000000e+00,-2.000000000000000096e-04,1.000000000000000082e-05,3.699999999999999947e-04,2.999999999999999737e-05,0.000000000000000000e+00,-1.000000000000000082e-05,1.399999999999999877e-04,6.000000000000000000e+00,2.300000000000000000e+01
5.730800000000000000e+04,0.000000000000000000e+00,-2.000000000000000096e-04,1.000000000000000082e-05,3.699999999999999947e-04,2.999999999999999737e-05,0.000000000000000000e+00,-1.000000000000000082e-05,1.399999999999999877e-04,6.000000000000000000e+00,2.300000000000000000e+01
5.730900000000000000e+04,0.000000000000000000e+00,-2.000000000000000096e-04,1.000000000000000082e-05,3.699999999999999947e-04,2.999999999999999737e-05,0.000000000000000000e+00,-1.000000000000000082e-05,1.399999999999999877e-04,6.000000000000000000e+00,2.300000000000000000e+01
5.731000000000000000e+04,0.000000000000000000e+00,-2.000000000000000096e-04,1.000000000000000082e-05,3.699999999999999947e-04,2.999999999999999737e-05,0.000000000000000000e+00,-1.000000000000000082e-05,1.399999999999999877e-04,6.000000000000000000e+00,2.300000000000000000e+01
5.731100000000000000e+04,-2.000000000000000164e-05,1.000000000000000082e-05,-2.600000000000000314e-04,-5.999999999999999474e-05,0.000000000000000000e+00,2.000000000000000164e-05,1.000000000000000082e-05,-1.000000000000000082e-05,6.000000000000000000e+00,2.300000000000000000e+01
5.731200000000000000e+04,5.999999999999999474e-05,8.000000000000000654e-05,3.899999999999999929e-04,2.000000000000000096e-04,2.999999999999999737e-05,0.000000000000000000e+00,-2.999999999999999737e-05,-1.600000000000000131e-04,6.000000000000000000e+00,2.300000000000000000e+01
5.731300000000000000e+04,5.999999999999999474e-05,8.000000000000000654e-05,3.899999999999999929e-04,2.000000000000000096e-04,2.999999999999999737e-05,0.000000000000000000e+00,-2.999999999999999737e-05,-1.600000000000000131e-04,6.000000000000000000e+00,2.300000000000000000e+01
5.731400000000000000e+04,5.999999999999999474e-05,8.000000000000000654e-05,3.899999999999999929e-04,2.000000000000000096e-04,2.999999999999999737e-05,0.000000000000000000e+00,-2.999999999999999737e-05,-1.600000000000000131e-04,6.000000000000000000e+00,2.300000000000000000e+01
5.731500000000000000e+04,5.999999999999999474e-05,8.000000000000000654e-05,3.899999999999999929e-04,2.000000000000000096e-04,2.999999999999999737e-05,0.000000000000000000e+00,-2.999999999999999737e-05,-1.600000000000000131e-04,6.000000000000000000e+00,2.300000000000000000e+01
5.731600000000000000e+04,5.999999999999999474e-05,8.000000000000000654e-05,3.899999999999999929e-04,2.000000000000000096e-04,2.999999999999999737e-05,0.000000000000000000e+00,-2.999999999999999737e-05,-1.600000000000000131e-04,6.000000000000000000e+00,2.300000000000000000e+01
5.731700000000000000e+04,5.999999999999999474e-05,8.000000000000000654e-05,3.899999999999999929e-04,2.000000000000000096e-04,2.999999999999999737e-05,0.000000000000000000e+00,-2.999999999999999737e-05,-1.600000000000000131e-04,6.000000000000000000e+00,2.300000000000000000e+01
5.731800000000000000e+04,5.999999999999999474e-05,8.000000000000000654e-05,3.899999999999999929e-04,2.000000000000000096e-04,2.999999999999999737e-05,0.000000000000000000e+00,-2.999999999999999737e-05,-1.600000000000000131e-04,6.000000000000000000e+00,2.300000000000000000e+01
5.731900000000000000e+04,5.999999999999999474e-05,8.000000000000000654e-05,3.899999999999999929e-04,2.000000000000000096e-04,2.999999999999999737e-05,0.000000000000000000e+00,-2.999999999999999737e-05,-1.600000000000000131e-04,6.000000000000000000e+00,2.300000000000000000e+01
5.732000000000000000e+04,5.999999999999999474e-05,8.000000000000000654e-05,3.899999999999999929e-04,2.000000000000000096e-04,2.999999999999999737e-05,0.000000000000000000e+00,-2.999999999999999737e-05,-1.600000000000000131e-04,6.000000000000000000e+00,2.300000000000000000e+01
5.732100000000000000e+04,5.999999999999999474e-05,8.000000000000000654e-05,3.899999999999999929e-04,2.000000000000000096e-04,2.999999999999999737e-05,0.000000000000000000e+00,-2.999999999999999737e-05,-1.600000000000000131e-04,6.000000000000000000e+00,2.300000000000000000e+01
5.732200000000000000e+04,5.999999999999999474e-05,8.000000000000000654e-05,3.899999999999999929e-04,2.000000000000000096e-04,2.999999999999999737e-05,0.000000000000000000e+00,-2.999999999999999737e-05,-1.600000000000000131e-04,6.000000000000000000e+00,2.300000000000000000e+01
5.732300000000000000e+04,5.999999999999999474e-05,8.000000000000000654e-05,3.899999999999999929e-04,2.000000000000000096e-04,2.999999999999999737e-05,0.000000000000000000e+00,-2.999999999999999737e-05,-1.600000000000000131e-04,6.000000000000000000e+00,2.300000000000000000e+01
5.732400000000000000e+04,2.299999999999999799e-04,1.699999999999999851e-04,2.100000000000000087e-04,2.500000000000000052e-04,1.100000000000000039e-04,6.999999999999999387e-05,1.199999999999999895e-04,2.900000000000000017e-04,6.000000000000000000e+00,2.300000000000000000e+01
5.732500000000000000e+04,2.700000000000000035e-04,0.000000000000000000e+00,-2.399999999999999790e-04,-2.100000000000000087e-04,-2.999999999999999737e-05,-2.999999999999999737e-05,-1.300000000000000157e-04,5.999999999999999474e-05,6.000000000000000000e+00,2.300000000000000000e+01
5.732600000000000000e+04,2.700000000000000035e-04,0.000000000000000000e+00,-2.399999999999999790e-04,-2.100000000000000087e-04,-2.999999999999999737e-05,-2.999999999999999737e-05,-1.300000000000000157e-04,5.999999999999999474e-05,6.000000000000000000e+00,2.300000000000000000e+01
5.732700000000000000e+04,2.700000000000000035e-04,0.000000000000000000e+00,-2.399999999999999790e-04,-2.100000000000000087e-04,-2.999999999999999737e-05,-2.999999999999999737e-05,-1.300000000000000157e-04,5.999999999999999474e-05,6.000000000000000000e+00,2.300000000000000000e+01
5.732800000000000000e+04,2.700000000000000035e-04,0.000000000000000000e+00,-2.399999999999999790e-04,-2.100000000000000087e-04,-2.999999999999999737e-05,-2.999999999999999737e-05,-1.300000000000000157e-04,5.999999999999999474e-05,6.000000000000000000e+00,2.300000000000000000e+01
5.732900000000000000e+04,2.700000000000000035e-04,0.000000000000000000e+00,-2.399999999999999790e-04,-2.100000000000000087e-04,-2.999999999999999737e-05,-2.999999999999999737e-05,-1.300000000000000157e-04,5.999999999999999474e-05,6.000000000000000000e+00,2.300000000000000000e+01
5.733000000000000000e+04,2.700000000000000035e-04,0.000000000000000000e+00,-2.399999999999999790e-04,-2.100000000000000087e-04,-2.999999999999999737e-05,-2.999999999999999737e-05,-1.300000000000000157e-04,5.999999999999999474e-05,6.000000000000000000e+00,2.300000000000000000e+01
5.733100000000000000e+04,2.700000000000000035e-04,0.000000000000000000e+00,-2.399999999999999790e-04,-2.100000000000000087e-04,-2.999999999999999737e-05,-2.999999999999999737e-05,-1.300000000000000157e-04,5.999999999999999474e-05,6.000000000000000000e+00,2.300000000000000000e+01
5.733200000000000000e+04,2.700000000000000035e-04,0.000000000000000000e+00,-2.399999999999999790e-04,-2.100000000000000087e-04,-2.999999999999999737e-05,-2.999999999999999737e-05,-1.300000000000000157e-04,5.999999999999999474e-05,6.000000000000000000e+00,2.300000000000000000e+01
5.733300000000000000e+04,-1.100000000000000039e-04,8.000000000000000654e-05,-3.200000000000000262e-04,-1.100000000000000039e-04,-5.000000000000000240e-05,-2.000000000000000164e-05,-1.399999999999999877e-04,-1.100000000000000039e-04,6.000000000000000000e+00,2.300000000000000000e+01
5.733400000000000000e+04,-1.100000000000000039e-04,8.000000000000000654e-05,-3.200000000000000262e-04,-1.100000000000000039e-04,-5.000000000000000240e-05,-2.000000000000000164e-05,-1.399999999999999877e-04,-1.100000000000000039e-04,6.000000000000000000e+00,2.300000000000000000e+01
5.733500000000000000e+04,-1.100000000000000039e-04,8.000000000000000654e-05,-3.200000000000000262e-04,-1.100000000000000039e-04,-5.000000000000000240e-05,-2.000000000000000164e-05,-1.399999999999999877e-04,-1.100000000000000039e-04,6.000000000000000000e+00,2.300000000000000000e+01
5.733600000000000000e+04,-1.100000000000000039e-04,8.000000000000000654e-05,-3.200000000000000262e-04,-1.100000000000000039e-04,-5.000000000000000240e-05,-2.000000000000000164e-05,-1.399999999999999877e-04,-1.100000000000000039e-04,6.000000000000000000e+00,2.300000000000000000e+01
5.733800000000000000e+04,-1.100000000000000039e-04,8.000000000000000654e-05,-3.200000000000000262e-04,-1.100000000000000039e-04,-5.000000000000000240e-05,-2.000000000000000164e-05,-1.399999999999999877e-04,-1.100000000000000039e-04,6.000000000000000000e+00,2.300000000000000000e+01
5.733900000000000000e+04,-1.100000000000000039e-04,8.000000000000000654e-05,-3.200000000000000262e-04,-1.100000000000000039e-04,-5.000000000000000240e-05,-2.000000000000000164e-05,-1.399999999999999877e-04,-1.100000000000000039e-04,6.000000000000000000e+00,2.300000000000000000e+01
5.734000000000000000e+04,-1.100000000000000039e-04,8.000000000000000654e-05,-3.200000000000000262e-04,-1.100000000000000039e-04,-5.000000000000000240e-05,-2.000000000000000164e-05,-1.399999999999999877e-04,-1.100000000000000039e-04,6.000000000000000000e+00,2.300000000000000000e+01
5.734100000000000000e+04,-1.100000000000000039e-04,8.000000000000000654e-05,-3.200000000000000262e-04,-1.100000000000000039e-04,-5.000000000000000240e-05,-2.000000000000000164e-05,-1.399999999999999877e-04,-1.100000000000000039e-04,6.000000000000000000e+00,2.300000000000000000e+01
5.734200000000000000e+04,-1.100000000000000039e-04,8.000000000000000654e-05,-3.200000000000000262e-04,-1.100000000000000039e-04,-5.000000000000000240e-05,-2.000000000000000164e-05,-1.399999999999999877e-04,-1.100000000000000039e-04,6.000000000000000000e+00,2.300000000000000000e+01
5.734300000000000000e+04,-1.100000000000000039e-04,8.000000000000000654e-05,-3.200000000000000262e-04,-1.100000000000000039e-04,-5.000000000000000240e-05,-2.000000000000000164e-05,-1.399999999999999877e-04,-1.100000000000000039e-04,6.000000000000000000e+00,2.300000000000000000e+01
5.734400000000000000e+04,-1.100000000000000039e-04,8.000000000000000654e-05,-3.200000000000000262e-04,-1.100000000000000039e-04,-5.000000000000000240e-05,-2.000000000000000164e-05,-1.399999999999999877e-04,-1.100000000000000039e-04,6.000000000000000000e+00,2.300000000000000000e+01
5.734500000000000000e+04,-1.100000000000000039e-04,8.000000000000000654e-05,-3.200000000000000262e-04,-1.100000000000000039e-04,-5.000000000000000240e-05,-2.000000000000000164e-05,-1.399999999999999877e-04,-1.100000000000000039e-04,6.000000000000000000e+00,2.300000000000000000e+01
5.734600000000000000e+04,-1.100000000000000039e-04,8.000000000000000654e-05,-3.200000000000000262e-04,-1.100000000000000039e-04,-5.000000000000000240e-05,-2.000000000000000164e-05,-1.399999999999999877e-04,-1.100000000000000039e-04,6.000000000000000000e+00,2.300000000000000000e+01
5.734700000000000000e+04,-1.100000000000000039e-04,8.000000000000000654e-05,-3.200000000000000262e-04,-1.100000000000000039e-04,-5.000000000000000240e-05,-2.000000000000000164e-05,-1.399999999999999877e-04,-1.100000000000000039e-04,6.000000000000000000e+00,2.300000000000000000e+01
5.734800000000000000e+04,-2.000000000000000096e-04,-1.000000000000000048e-04,-4.099999999999999912e-04,-6.999999999999999387e-05,-4.000000000000000327e-05,-5.000000000000000240e-05,-9.000000000000000567e-05,5.000000000000000240e-05,6.000000000000000000e+00,2.300000000000000000e+01
5.734900000000000000e+04,-3.799999999999999667e-04,1.100000000000000039e-04,4.299999999999999894e-04,6.999999999999999387e-05,-2.999999999999999737e-05,-2.999999999999999737e-05,0.000000000000000000e+00,-2.900000000000000017e-04,6.000000000000000000e+00,2.300000000000000000e+01
5.735000000000000000e+04,5.000000000000000240e-05,-1.699999999999999851e-04,-5.099999999999999282e-04,-2.500000000000000052e-04,-5.999999999999999474e-05,-4.000000000000000327e-05,8.000000000000000654e-05,5.000000000000000240e-05,6.000000000000000000e+00,2.300000000000000000e+01
5.735100000000000000e+04,5.000000000000000240e-05,-1.699999999999999851e-04,-5.099999999999999282e-04,-2.500000000000000052e-04,-5.999999999999999474e-05,-4.000000000000000327e-05,8.000000000000000654e-05,5.000000000000000240e-05,6.000000000000000000e+00,2.300000000000000000e+01
5.735200000000000000e+04,5.000000000000000240e-05,-1.699999999999999851e-04,-5.099999999999999282e-04,-2.500000000000000052e-04,-5.999999999999999474e-05,-4.000000000000000327e-05,8.000000000000000654e-05,5.000000000000000240e-05,6.000000000000000000e+00,2.300000000000000000e+01
5.735300000000000000e+04,5.000000000000000240e-05,-1.699999999999999851e-04,-5.099999999999999282e-04,-2.500000000000000052e-04,-5.999999999999999474e-05,-4.000000000000000327e-05,8.000000000000000654e-05,5.000000000000000240e-05,6.000000000000000000e+00,2.300000000000000000e+01
5.735400000000000000e+04,5.000000000000000240e-05,-1.699999999999999851e-04,-5.099999999999999282e-04,-2.500000000000000052e-04,-5.999999999999999474e-05,-4.000000000000000327e-05,8.000000000000000654e-05,5.000000000000000240e-05,6.000000000000000000e+00,2.300000000000000000e+01
5.735500000000000000e+04,5.000000000000000240e-05,-1.699999999999999851e-04,-5.099999999999999282e-04,-2.500000000000000052e-04,-5.999999999999999474e-05,-4.000000000000000327e-05,8.000000000000000654e-05,5.000000000000000240e-05,6.000000000000000000e+00,2.300000000000000000e+01
5.735600000000000000e+04,5.000000000000000240e-05,-1.699999999999999851e-04,-5.099999999999999282e-04,-2.500000000000000052e-04,-5.999999999999999474e-05,-4.000000000000000327e-05,8.000000000000000654e-05,5.000000000000000240e-05,6.000000000000000000e+00,2.300000000000000000e+01
5.735700000000000000e+04,5.000000000000000240e-05,-1.699999999999999851e-04,-5.099999999999999282e-04,-2.500000000000000052e-04,-5.999999999999999474e-05,-4.000000000000000327e-05,8.000000000000000654e-05,5.000000000000000240e-05,6.000000000000000000e+00,2.300000000000000000e+01
5.735800000000000000e+04,5.000000000000000240e-05,-1.699999999999999851e-04,-5.099999999999999282e-04,-2.500000000000000052e-04,-5.999999999999999474e-05,-4.000000000000000327e-05,8.000000000000000654e-05,5.000000000000000240e-05,6.000000000000000000e+00,2.300000000000000000e+01
5.735900000000000000e+04,5.000000000000000240e-05,-1.699999999999999851e-04,-5.099999999999999282e-04,-2.500000000000000052e-04,-5.999999999999999474e-05,-4.000000000000000327e-05,8.000000000000000654e-05,5.000000000000000240e-05,6.000000000000000000e+00,2.300000000000000000e+01
5.736000000000000000e+04,5.000000000000000240e-05,-1.699999999999999851e-04,-5.099999999999999282e-04,-2.500000000000000052e-04,-5.999999999999999474e-05,-4.000000000000000327e-05,8.000000000000000654e-05,5.000000000000000240e-05,6.000000000000000000e+00,2.300000000000000000e+01
5.736100000000000000e+04,5.000000000000000240e-05,-1.699999999999999851e-04,-5.099999999999999282e-04,-2.500000000000000052e-04,-5.999999999999999474e-05,-4.000000000000000327e-05,8.000000000000000654e-05,5.000000000000000240e-05,6.000000000000000000e+00,2.300000000000000000e+01
5.736200000000000000e+04,5.000000000000000240e-05,-1.699999999999999851e-04,-5.099999999999999282e-04,-2.500000000000000052e-04,-5.999999999999999474e-05,-4.000000000000000327e-05,8.000000000000000654e-05,5.000000000000000240e-05,6.000000000000000000e+00,2.300000000000000000e+01
5.736300000000000000e+04,5.000000000000000240e-05,-1.699999999999999851e-04,-5.099999999999999282e-04,-2.500000000000000052e-04,-5.999999999999999474e-05,-4.000000000000000327e-05,8.000000000000000654e-05,5.000000000000000240e-05,6.000000000000000000e+00,2.300000000000000000e+01
5.736400000000000000e+04,5.000000000000000240e-05,-1.699999999999999851e-04,-5.099999999999999282e-04,-2.500000000000000052e-04,-5.999999999999999474e-05,-4.000000000000000327e-05,8.000000000000000654e-05,5.000000000000000240e-05,6.000000000000000000e+00,2.300000000000000000e+01
5.736500000000000000e+04,5.000000000000000240e-05,-1.699999999999999851e-04,-5.099999999999999282e-04,-2.500000000000000052e-04,-5.999999999999999474e-05,-4.000000000000000327e-05,8.000000000000000654e-05,5.000000000000000240e-05,6.000000000000000000e+00,2.300000000000000000e+01
5.736600000000000000e+04,5.000000000000000240e-05,-1.699999999999999851e-04,-5.099999999999999282e-04,-2.500000000000000052e-04,-5.999999999999999474e-05,-4.000000000000000327e-05,8.000000000000000654e-05,5.000000000000000240e-05,6.000000000000000000e+00,2.300000000000000000e+01
5.736700000000000000e+04,5.000000000000000240e-05,-1.699999999999999851e-04,-5.099999999999999282e-04,-2.500000000000000052e-04,-5.999999999999999474e-05,-4.000000000000000327e-05,8.000000000000000654e-05,5.000000000000000240e-05,6.000000000000000000e+00,2.300000000000000000e+01
5.736800000000000000e+04,5.000000000000000240e-05,-1.699999999999999851e-04,-5.099999999999999282e-04,-2.500000000000000052e-04,-5.999999999999999474e-05,-4.000000000000000327e-05,8.000000000000000654e-05,5.000000000000000240e-05,6.000000000000000000e+00,2.300000000000000000e+01
5.736900000000000000e+04,5.000000000000000240e-05,-1.699999999999999851e-04,-5.099999999999999282e-04,-2.500000000000000052e-04,-5.999999999999999474e-05,-4.000000000000000327e-05,8.000000000000000654e-05,5.000000000000000240e-05,6.000000000000000000e+00,2.300000000000000000e+01
5.737000000000000000e+04,5.000000000000000240e-05,-1.699999999999999851e-04,-5.099999999999999282e-04,-2.500000000000000052e-04,-5.999999999999999474e-05,-4.000000000000000327e-05,8.000000000000000654e-05,5.000000000000000240e-05,6.000000000000000000e+00,2.300000000000000000e+01
5.737100000000000000e+04,-9.000000000000000567e-05,-8.000000000000000654e-05,1.199999999999999895e-04,3.200000000000000262e-04,-5.000000000000000240e-05,-4.000000000000000327e-05,-4.000000000000000327e-05,-5.999999999999999474e-05,6.000000000000000000e+00,2.300000000000000000e+01
5.737200000000000000e+04,-2.999999999999999737e-05,4.000000000000000327e-05,-4.400000000000000157e-04,-3.899999999999999929e-04,-4.000000000000000327e-05,0.000000000000000000e+00,2.999999999999999737e-05,0.000000000000000000e+00,6.000000000000000000e+00,2.300000000000000000e+01
5.737300000000000000e+04,-2.999999999999999737e-05,4.000000000000000327e-05,-4.400000000000000157e-04,-3.899999999999999929e-04,-4.000000000000000327e-05,0.000000000000000000e+00,2.999999999999999737e-05,0.000000000000000000e+00,6.000000000000000000e+00,2.300000000000000000e+01
5.737400000000000000e+04,-2.999999999999999737e-05,4.000000000000000327e-05,-4.400000000000000157e-04,-3.899999999999999929e-04,-4.000000000000000327e-05,0.000000000000000000e+00,2.999999999999999737e-05,0.000000000000000000e+00,6.000000000000000000e+00,2.300000000000000000e+01
5.737500000000000000e+04,-2.999999999999999737e-05,4.000000000000000327e-05,-4.400000000000000157e-04,-3.899999999999999929e-04,-4.000000000000000327e-05,0.000000000000000000e+00,2.999999999999999737e-05,0.000000000000000000e+00,6.000000000000000000e+00,2.300000000000000000e+01
5.737600000000000000e+04,-2.999999999999999737e-05,4.000000000000000327e-05,-4.400000000000000157e-04,-3.899999999999999929e-04,-4.000000000000000327e-05,0.000000000000000000e+00,2.999999999999999737e-05,0.000000000000000000e+00,6.000000000000000000e+00,2.300000000000000000e+01
5.737700000000000000e+04,-2.999999999999999737e-05,4.000000000000000327e-05,-4.400000000000000157e-04,-3.899999999999999929e-04,-4.000000000000000327e-05,0.000000000000000000e+00,2.999999999999999737e-05,0.000000000000000000e+00,6.000000000000000000e+00,2.300000000000000000e+01
5.737800000000000000e+04,-2.999999999999999737e-05,4.000000000000000327e-05,-4.400000000000000157e-04,-3.899999999999999929e-04,-4.000000000000000327e-05,0.000000000000000000e+00,2.999999999999999737e-05,0.000000000000000000e+00,6.000000000000000000e+00,2.300000000000000000e+01
5.737900000000000000e+04,-2.999999999999999737e-05,4.000000000000000327e-05,-4.400000000000000157e-04,-3.899999999999999929e-04,-4.000000000000000327e-05,0.000000000000000000e+00,2.999999999999999737e-05,0.000000000000000000e+00,6.000000000000000000e+00,2.300000000000000000e+01
5.738000000000000000e+04,-2.999999999999999737e-05,4.000000000000000327e-05,-4.400000000000000157e-04,-3.899999999999999929e-04,-4.000000000000000327e-05,0.000000000000000000e+00,2.999999999999999737e-05,0.000000000000000000e+00,6.000000000000000000e+00,2.300000000000000000e+01
5.738100000000000000e+04,-2.999999999999999737e-05,4.000000000000000327e-05,-4.400000000000000157e-04,-3.899999999999999929e-04,-4.000000000000000327e-05,0.000000000000000000e+00,2.999999999999999737e-05,0.000000000000000000e+00,6.000000000000000000e+00,2.300000000000000000e+01
5.738200000000000000e+04,-2.999999999999999737e-05,4.000000000000000327e-05,-4.400000000000000157e-04,-3.899999999999999929e-04,-4.000000000000000327e-05,0.000000000000000000e+00,2.999999999999999737e-05,0.000000000000000000e+00,6.000000000000000000e+00,2.300000000000000000e+01
5.738300000000000000e+04,-2.999999999999999737e-05,4.000000000000000327e-05,-4.400000000000000157e-04,-3.899999999999999929e-04,-4.000000000000000327e-05,0.000000000000000000e+00,2.999999999999999737e-05,0.000000000000000000e+00,6.000000000000000000e+00,2.300000000000000000e+01
5.738400000000000000e+04,-4.200000000000000174e-04,-9.000000000000000567e-05,-4.299999999999999894e-04,-2.200000000000000078e-04,-5.000000000000000240e-05,-5.000000000000000240e-05,2.000000000000000164e-05,-1.100000000000000039e-04,6.000000000000000000e+00,2.300000000000000000e+01
5.738500000000000000e+04,-4.200000000000000174e-04,-9.000000000000000567e-05,-4.299999999999999894e-04,-2.200000000000000078e-04,-5.000000000000000240e-05,-5.000000000000000240e-05,2.000000000000000164e-05,-1.100000000000000039e-04,6.000000000000000000e+00,2.300000000000000000e+01
5.738700000000000000e+04,-4.200000000000000174e-04,-9.000000000000000567e-05,-4.299999999999999894e-04,-2.200000000000000078e-04,-5.000000000000000240e-05,-5.000000000000000240e-05,2.000000000000000164e-05,-1.100000000000000039e-04,6.000000000000000000e+00,2.300000000000000000e+01
5.738900000000000000e+04,-4.200000000000000174e-04,-9.000000000000000567e-05,-4.299999999999999894e-04,-2.200000000000000078e-04,-5.000000000000000240e-05,-5.000000000000000240e-05,2.000000000000000164e-05,-1.100000000000000039e-04,6.000000000000000000e+00,2.300000000000000000e+01
5.739000000000000000e+04,-4.200000000000000174e-04,-9.000000000000000567e-05,-4.299999999999999894e-04,-2.200000000000000078e-04,-5.000000000000000240e-05,-5.000000000000000240e-05,2.000000000000000164e-05,-1.100000000000000039e-04,6.000000000000000000e+00,2.300000000000000000e+01
5.739100000000000000e+04,-4.200000000000000174e-04,-9.000000000000000567e-05,-4.299999999999999894e-04,-2.200000000000000078e-04,-5.000000000000000240e-05,-5.000000000000000240e-05,2.000000000000000164e-05,-1.100000000000000039e-04,6.000000000000000000e+00,2.300000000000000000e+01
5.739200000000000000e+04,-4.200000000000000174e-04,-9.000000000000000567e-05,-4.299999999999999894e-04,-2.200000000000000078e-04,-5.000000000000000240e-05,-5.000000000000000240e-05,2.000000000000000164e-05,-1.100000000000000039e-04,6.000000000000000000e+00,2.300000000000000000e+01
5.739300000000000000e+04,4.000000000000000327e-05,-8.000000000000000654e-05,-6.900000000000000751e-04,-2.999999999999999737e-04,4.000000000000000327e-05,4.000000000000000327e-05,5.000000000000000240e-05,1.600000000000000131e-04,6.000000000000000000e+00,2.300000000000000000e+01
5.739400000000000000e+04,4.000000000000000327e-05,-8.000000000000000654e-05,-6.900000000000000751e-04,-2.999999999999999737e-04,4.000000000000000327e-05,4.000000000000000327e-05,5.000000000000000240e-05,1.600000000000000131e-04,6.000000000000000000e+00,2.300000000000000000e+01
5.739500000000000000e+04,4.000000000000000327e-05,-8.000000000000000654e-05,-6.900000000000000751e-04,-2.999999999999999737e-04,4.000000000000000327e-05,4.000000000000000327e-05,5.000000000000000240e-05,1.600000000000000131e-04,6.000000000000000000e+00,2.300000000000000000e+01
5.739600000000000000e+04,4.000000000000000327e-05,-8.000000000000000654e-05,-6.900000000000000751e-04,-2.999999999999999737e-04,4.000000000000000327e-05,4.000000000000000327e-05,5.000000000000000240e-05,1.600000000000000131e-04,6.000000000000000000e+00,2.300000000000000000e+01
5.739700000000000000e+04,4.000000000000000327e-05,-8.000000000000000654e-05,-6.900000000000000751e-04,-2.999999999999999737e-04,4.000000000000000327e-05,4.000000000000000327e-05,5.000000000000000240e-05,1.600000000000000131e-04,6.000000000000000000e+00,2.300000000000000000e+01
5.739800000000000000e+04,4.000000000000000327e-05,-8.000000000000000654e-05,-6.900000000000000751e-04,-2.999999999999999737e-04,4.000000000000000327e-05,4.000000000000000327e-05,5.000000000000000240e-05,1.600000000000000131e-04,6.000000000000000000e+00,2.300000000000000000e+01
5.739900000000000000e+04,4.000000000000000327e-05,-8.000000000000000654e-05,-6.900000000000000751e-04,-2.999999999999999737e-04,4.000000000000000327e-05,4.000000000000000327e-05,5.000000000000000240e-05,1.600000000000000131e-04,6.000000000000000000e+00,2.300000000000000000e+01
5.740000000000000000e+04,4.000000000000000327e-05,-8.000000000000000654e-05,-6.900000000000000751e-04,-2.999999999999999737e-04,4.000000000000000327e-05,4.000000000000000327e-05,5.000000000000000240e-05,1.600000000000000131e-04,6.000000000000000000e+00,2.300000000000000000e+01
5.740100000000000000e+04,4.000000000000000327e-05,-8.000000000000000654e-05,-6.900000000000000751e-04,-2.999999999999999737e-04,4.000000000000000327e-05,4.000000000000000327e-05,5.000000000000000240e-05,1.600000000000000131e-04,6.000000000000000000e+00,2.300000000000000000e+01
5.740200000000000000e+04,4.000000000000000327e-05,-8.000000000000000654e-05,-6.900000000000000751e-04,-2.999999999999999737e-04,4.000000000000000327e-05,4.000000000000000327e-05,5.000000000000000240e-05,1.600000000000000131e-04,6.000000000000000000e+00,2.300000000000000000e+01
5.740300000000000000e+04,4.000000000000000327e-05,-8.000000000000000654e-05,-6.900000000000000751e-04,-2.999999999999999737e-04,4.000000000000000327e-05,4.000000000000000327e-05,5.000000000000000240e-05,1.600000000000000131e-04,6.000000000000000000e+00,2.300000000000000000e+01
5.740400000000000000e+04,4.000000000000000327e-05,-8.000000000000000654e-05,-6.900000000000000751e-04,-2.999999999999999737e-04,4.000000000000000327e-05,4.000000000000000327e-05,5.000000000000000240e-05,1.600000000000000131e-04,6.000000000000000000e+00,2.300000000000000000e+01
5.740500000000000000e+04,4.000000000000000327e-05,-8.000000000000000654e-05,-6.900000000000000751e-04,-2.999999999999999737e-04,4.000000000000000327e-05,4.000000000000000327e-05,5.000000000000000240e-05,1.600000000000000131e-04,6.000000000000000000e+00,2.300000000000000000e+01
5.740600000000000000e+04,4.000000000000000327e-05,-8.000000000000000654e-05,-6.900000000000000751e-04,-2.999999999999999737e-04,4.000000000000000327e-05,4.000000000000000327e-05,5.000000000000000240e-05,1.600000000000000131e-04,6.000000000000000000e+00,2.300000000000000000e+01
5.740700000000000000e+04,4.000000000000000327e-05,-8.000000000000000654e-05,-6.900000000000000751e-04,-2.999999999999999737e-04,4.000000000000000327e-05,4.000000000000000327e-05,5.000000000000000240e-05,1.600000000000000131e-04,6.000000000000000000e+00,2.300000000000000000e+01
5.740800000000000000e+04,1.000000000000000048e-04,-2.000000000000000164e-05,1.000000000000000048e-04,9.000000000000000567e-05,-1.000000000000000082e-05,-2.000000000000000164e-05,-6.999999999999999387e-05,-5.000000000000000240e-05,6.000000000000000000e+00,2.300000000000000000e+01
5.740900000000000000e+04,1.000000000000000048e-04,-2.000000000000000164e-05,1.000000000000000048e-04,9.000000000000000567e-05,-1.000000000000000082e-05,-2.000000000000000164e-05,-6.999999999999999387e-05,-5.000000000000000240e-05,6.000000000000000000e+00,2.300000000000000000e+01
5.741000000000000000e+04,-1.499999999999999869e-04,-1.000000000000000048e-04,2.999999999999999737e-04,2.999999999999999737e-05,0.000000000000000000e+00,-2.000000000000000164e-05,4.000000000000000327e-05,4.000000000000000327e-05,6.000000000000000000e+00,2.300000000000000000e+01
5.741100000000000000e+04,-1.499999999999999869e-04,-1.000000000000000048e-04,2.999999999999999737e-04,2.999999999999999737e-05,0.000000000000000000e+00,-2.000000000000000164e-05,4.000000000000000327e-05,4.000000000000000327e-05,6.000000000000000000e+00,2.300000000000000000e+01
5.741200000000000000e+04,-1.499999999999999869e-04,-1.000000000000000048e-04,2.999999999999999737e-04,2.999999999999999737e-05,0.000000000000000000e+00,-2.000000000000000164e-05,4.000000000000000327e-05,4.000000000000000327e-05,6.000000000000000000e+00,2.300000000000000000e+01
5.741300000000000000e+04,-1.499999999999999869e-04,-1.000000000000000048e-04,2.999999999999999737e-04,2.999999999999999737e-05,0.000000000000000000e+00,-2.000000000000000164e-05,4.000000000000000327e-05,4.000000000000000327e-05,6.000000000000000000e+00,2.300000000000000000e+01
5.741400000000000000e+04,-1.499999999999999869e-04,-1.000000000000000048e-04,2.999999999999999737e-04,2.999999999999999737e-05,0.000000000000000000e+00,-2.000000000000000164e-05,4.000000000000000327e-05,4.000000000000000327e-05,6.000000000000000000e+00,2.300000000000000000e+01
5.741500000000000000e+04,-1.499999999999999869e-04,-1.000000000000000048e-04,2.999999999999999737e-04,2.999999999999999737e-05,0.000000000000000000e+00,-2.000000000000000164e-05,4.000000000000000327e-05,4.000000000000000327e-05,6.000000000000000000e+00,2.300000000000000000e+01
5.741600000000000000e+04,-1.499999999999999869e-04,-1.000000000000000048e-04,2.999999999999999737e-04,2.999999999999999737e-05,0.000000000000000000e+00,-2.000000000000000164e-05,4.000000000000000327e-05,4.000000000000000327e-05,6.000000000000000000e+00,2.300000000000000000e+01
5.741700000000000000e+04,-1.499999999999999869e-04,-1.000000000000000048e-04,2.999999999999999737e-04,2.999999999999999737e-05,0.000000000000000000e+00,-2.000000000000000164e-05,4.000000000000000327e-05,4.000000000000000327e-05,6.000000000000000000e+00,2.300000000000000000e+01
5.741800000000000000e+04,-1.499999999999999869e-04,-1.000000000000000048e-04,2.999999999999999737e-04,2.999999999999999737e-05,0.000000000000000000e+00,-2.000000000000000164e-05,4.000000000000000327e-05,4.000000000000000327e-05,6.000000000000000000e+00,2.300000000000000000e+01
5.741900000000000000e+04,-1.499999999999999869e-04,-1.000000000000000048e-04,2.999999999999999737e-04,2.999999999999999737e-05,0.000000000000000000e+00,-2.000000000000000164e-05,4.000000000000000327e-05,4.000000000000000327e-05,6.000000000000000000e+00,2.300000000000000000e+01
5.742000000000000000e+04,-1.499999999999999869e-04,-1.000000000000000048e-04,2.999999999999999737e-04,2.999999999999999737e-05,0.000000000000000000e+00,-2.000000000000000164e-05,4.000000000000000327e-05,4.000000000000000327e-05,6.000000000000000000e+00,2.300000000000000000e+01
5.742100000000000000e+04,-1.499999999999999869e-04,-1.000000000000000048e-04,2.999999999999999737e-04,2.999999999999999737e-05,0.000000000000000000e+00,-2.000000000000000164e-05,4.000000000000000327e-05,4.000000000000000327e-05,6.000000000000000000e+00,2.300000000000000000e+01
5.742200000000000000e+04,-1.499999999999999869e-04,-1.000000000000000048e-04,2.999999999999999737e-04,2.999999999999999737e-05,0.000000000000000000e+00,-2.000000000000000164e-05,4.000000000000000327e-05,4.000000000000000327e-05,6.000000000000000000e+00,2.300000000000000000e+01
5.742300000000000000e+04,-1.499999999999999869e-04,-1.000000000000000048e-04,2.999999999999999737e-04,2.999999999999999737e-05,0.000000000000000000e+00,-2.000000000000000164e-05,4.000000000000000327e-05,4.000000000000000327e-05,6.000000000000000000e+00,2.300000000000000000e+01
5.742400000000000000e+04,-1.499999999999999869e-04,-1.000000000000000048e-04,2.999999999999999737e-04,2.999999999999999737e-05,0.000000000000000000e+00,-2.000000000000000164e-05,4.000000000000000327e-05,4.000000000000000327e-05,6.000000000000000000e+00,2.300000000000000000e+01
5.742500000000000000e+04,-1.499999999999999869e-04,-1.000000000000000048e-04,2.999999999999999737e-04,2.999999999999999737e-05,0.000000000000000000e+00,-2.000000000000000164e-05,4.000000000000000327e-05,4.000000000000000327e-05,6.000000000000000000e+00,2.300000000000000000e+01
5.742600000000000000e+04,-1.499999999999999869e-04,-1.000000000000000048e-04,2.999999999999999737e-04,2.999999999999999737e-05,0.000000000000000000e+00,-2.000000000000000164e-05,4.000000000000000327e-05,4.000000000000000327e-05,6.000000000000000000e+00,2.300000000000000000e+01
5.742700000000000000e+04,-1.499999999999999869e-04,-1.000000000000000048e-04,2.999999999999999737e-04,2.999999999999999737e-05,0.000000000000000000e+00,-2.000000000000000164e-05,4.000000000000000327e-05,4.000000000000000327e-05,6.000000000000000000e+00,2.300000000000000000e+01
5.742800000000000000e+04,-1.499999999999999869e-04,-1.000000000000000048e-04,2.999999999999999737e-04,2.999999999999999737e-05,0.000000000000000000e+00,-2.000000000000000164e-05,4.000000000000000327e-05,4.000000000000000327e-05,6.000000000000000000e+00,2.300000000000000000e+01
5.742900000000000000e+04,-1.499999999999999869e-04,-1.000000000000000048e-04,2.999999999999999737e-04,2.999999999999999737e-05,0.000000000000000000e+00,-2.000000000000000164e-05,4.000000000000000327e-05,4.000000000000000327e-05,6.000000000000000000e+00,2.300000000000000000e+01
5.743000000000000000e+04,-1.499999999999999869e-04,-1.000000000000000048e-04,2.999999999999999737e-04,2.999999999999999737e-05,0.000000000000000000e+00,-2.000000000000000164e-05,4.000000000000000327e-05,4.000000000000000327e-05,6.000000000000000000e+00,2.300000000000000000e+01
5.743100000000000000e+04,2.799999999999999755e-04,-1.000000000000000048e-04,0.000000000000000000e+00,5.999999999999999474e-05,2.999999999999999737e-05,2.000000000000000164e-05,-9.000000000000000567e-05,-3.699999999999999947e-04,6.000000000000000000e+00,2.300000000000000000e+01
5.743200000000000000e+04,3.499999999999999964e-04,6.999999999999999387e-05,2.399999999999999790e-04,6.999999999999999387e-05,0.000000000000000000e+00,-2.999999999999999737e-05,0.000000000000000000e+00,1.899999999999999834e-04,6.000000000000000000e+00,2.300000000000000000e+01
5.743300000000000000e+04,3.499999999999999964e-04,6.999999999999999387e-05,2.399999999999999790e-04,6.999999999999999387e-05,0.000000000000000000e+00,-2.999999999999999737e-05,0.000000000000000000e+00,1.899999999999999834e-04,6.000000000000000000e+00,2.300000000000000000e+01
5.743400000000000000e+04,3.499999999999999964e-04,6.999999999999999387e-05,2.399999999999999790e-04,6.999999999999999387e-05,0.000000000000000000e+00,-2.999999999999999737e-05,0.000000000000000000e+00,1.899999999999999834e-04,6.000000000000000000e+00,2.300000000000000000e+01
5.743500000000000000e+04,3.499999999999999964e-04,6.999999999999999387e-05,2.399999999999999790e-04,6.999999999999999387e-05,0.000000000000000000e+00,-2.999999999999999737e-05,0.000000000000000000e+00,1.899999999999999834e-04,6.000000000000000000e+00,2.300000000000000000e+01
5.743600000000000000e+04,3.499999999999999964e-04,6.999999999999999387e-05,2.399999999999999790e-04,6.999999999999999387e-05,0.000000000000000000e+00,-2.999999999999999737e-05,0.000000000000000000e+00,1.899999999999999834e-04,6.000000000000000000e+00,2.300000000000000000e+01
5.743800000000000000e+04,3.499999999999999964e-04,6.999999999999999387e-05,2.399999999999999790e-04,6.999999999999999387e-05,0.000000000000000000e+00,-2.999999999999999737e-05,0.000000000000000000e+00,1.899999999999999834e-04,6.000000000000000000e+00,2.300000000000000000e+01
5.743900000000000000e+04,3.499999999999999964e-04,6.999999999999999387e-05,2.399999999999999790e-04,6.999999999999999387e-05,0.000000000000000000e+00,-2.999999999999999737e-05,0.000000000000000000e+00,1.899999999999999834e-04,6.000000000000000000e+00,2.300000000000000000e+01
5.744000000000000000e+04,3.499999999999999964e-04,6.999999999999999387e-05,2.399999999999999790e-04,6.999999999999999387e-05,0.000000000000000000e+00,-2.999999999999999737e-05,0.000000000000000000e+00,1.899999999999999834e-04,6.000000000000000000e+00,2.300000000000000000e+01
5.744100000000000000e+04,3.499999999999999964e-04,6.999999999999999387e-05,2.399999999999999790e-04,6.999999999999999387e-05,0.000000000000000000e+00,-2.999999999999999737e-05,0.000000000000000000e+00,1.899999999999999834e-04,6.000000000000000000e+00,2.300000000000000000e+01
5.744200000000000000e+04,3.499999999999999964e-04,6.999999999999999387e-05,2.399999999999999790e-04,6.999999999999999387e-05,0.000000000000000000e+00,-2.999999999999999737e-05,0.000000000000000000e+00,1.899999999999999834e-04,6.000000000000000000e+00,2.300000000000000000e+01
5.744300000000000000e+04,3.499999999999999964e-04,6.999999999999999387e-05,2.399999999999999790e-04,6.999999999999999387e-05,0.000000000000000000e+00,-2.999999999999999737e-05,0.000000000000000000e+00,1.899999999999999834e-04,6.000000000000000000e+00,2.300000000000000000e+01
5.744400000000000000e+04,2.999999999999999737e-05,-5.000000000000000240e-05,1.899999999999999834e-04,1.000000000000000082e-05,0.000000000000000000e+00,0.000000000000000000e+00,0.000000000000000000e+00,1.499999999999999869e-04,6.000000000000000000e+00,2.300000000000000000e+01
5.744500000000000000e+04,-9.000000000000000567e-05,2.000000000000000164e-05,1.699999999999999851e-04,3.200000000000000262e-04,2.000000000000000164e-05,-1.000000000000000082e-05,-6.999999999999999387e-05,-1.600000000000000131e-04,6.000000000000000000e+00,2.300000000000000000e+01
5.744600000000000000e+04,-9.000000000000000567e-05,2.000000000000000164e-05,1.699999999999999851e-04,3.200000000000000262e-04,2.000000000000000164e-05,-1.000000000000000082e-05,-6.999999999999999387e-05,-1.600000000000000131e-04,6.000000000000000000e+00,2.300000000000000000e+01
5.744700000000000000e+04,-9.000000000000000567e-05,2.000000000000000164e-05,1.699999999999999851e-04,3.200000000000000262e-04,2.000000000000000164e-05,-1.000000000000000082e-05,-6.999999999999999387e-05,-1.600000000000000131e-04,6.000000000000000000e+00,2.300000000000000000e+01
5.744800000000000000e+04,-9.000000000000000567e-05,2.000000000000000164e-05,1.699999999999999851e-04,3.200000000000000262e-04,2.000000000000000164e-05,-1.000000000000000082e-05,-6.999999999999999387e-05,-1.600000000000000131e-04,6.000000000000000000e+00,2.300000000000000000e+01
5.744900000000000000e+04,-9.000000000000000567e-05,2.000000000000000164e-05,1.699999999999999851e-04,3.200000000000000262e-04,2.000000000000000164e-05,-1.000000000000000082e-05,-6.999999999999999387e-05,-1.600000000000000131e-04,6.000000000000000000e+00,2.300000000000000000e+01
5.745000000000000000e+04,-9.000000000000000567e-05,2.000000000000000164e-05,1.699999999999999851e-04,3.200000000000000262e-04,2.000000000000000164e-05,-1.000000000000000082e-05,-6.999999999999999387e-05,-1.600000000000000131e-04,6.000000000000000000e+00,2.300000000000000000e+01
5.745100000000000000e+04,-9.000000000000000567e-05,2.000000000000000164e-05,1.699999999999999851e-04,3.200000000000000262e-04,2.000000000000000164e-05,-1.000000000000000082e-05,-6.999999999999999387e-05,-1.600000000000000131e-04,6.000000000000000000e+00,2.300000000000000000e+01
5.745200000000000000e+04,-9.000000000000000567e-05,2.000000000000000164e-05,1.699999999999999851e-04,3.200000000000000262e-04,2.000000000000000164e-05,-1.000000000000000082e-05,-6.999999999999999387e-05,-1.600000000000000131e-04,6.000000000000000000e+00,2.300000000000000000e+01
5.745300000000000000e+04,-9.000000000000000567e-05,2.000000000000000164e-05,1.699999999999999851e-04,3.200000000000000262e-04,2.000000000000000164e-05,-1.000000000000000082e-05,-6.999999999999999387e-05,-1.600000000000000131e-04,6.000000000000000000e+00,2.300000000000000000e+01
5.745400000000000000e+04,-9.000000000000000567e-05,2.000000000000000164e-05,1.699999999999999851e-04,3.200000000000000262e-04,2.000000000000000164e-05,-1.000000000000000082e-05,-6.999999999999999387e-05,-1.600000000000000131e-04,6.000000000000000000e+00,2.300000000000000000e+01
5.745500000000000000e+04,-9.000000000000000567e-05,2.000000000000000164e-05,1.699999999999999851e-04,3.200000000000000262e-04,2.000000000000000164e-05,-1.000000000000000082e-05,-6.999999999999999387e-05,-1.600000000000000131e-04,6.000000000000000000e+00,2.300000000000000000e+01
5.745600000000000000e+04,-9.000000000000000567e-05,2.000000000000000164e-05,1.699999999999999851e-04,3.200000000000000262e-04,2.000000000000000164e-05,-1.000000000000000082e-05,-6.999999999999999387e-05,-1.600000000000000131e-04,6.000000000000000000e+00,2.300000000000000000e+01
5.745700000000000000e+04,-9.000000000000000567e-05,2.000000000000000164e-05,1.699999999999999851e-04,3.200000000000000262e-04,2.000000000000000164e-05,-1.000000000000000082e-05,-6.999999999999999387e-05,-1.600000000000000131e-04,6.000000000000000000e+00,2.300000000000000000e+01
5.745800000000000000e+04,-9.000000000000000567e-05,2.000000000000000164e-05,1.699999999999999851e-04,3.200000000000000262e-04,2.000000000000000164e-05,-1.000000000000000082e-05,-6.999999999999999387e-05,-1.600000000000000131e-04,6.000000000000000000e+00,2.300000000000000000e+01
5.745900000000000000e+04,-9.000000000000000567e-05,2.000000000000000164e-05,1.699999999999999851e-04,3.200000000000000262e-04,2.000000000000000164e-05,-1.000000000000000082e-05,-6.999999999999999387e-05,-1.600000000000000131e-04,6.000000000000000000e+00,2.300000000000000000e+01
5.746000000000000000e+04,-9.000000000000000567e-05,2.000000000000000164e-05,1.699999999999999851e-04,3.200000000000000262e-04,2.000000000000000164e-05,-1.000000000000000082e-05,-6.999999999999999387e-05,-1.600000000000000131e-04,6.000000000000000000e+00,2.300000000000000000e+01
5.746100000000000000e+04,1.000000000000000082e-05,5.000000000000000240e-05,-1.000000000000000082e-05,5.000000000000000240e-05,-1.000000000000000082e-05,0.000000000000000000e+00,-5.000000000000000240e-05,5.000000000000000240e-05,6.000000000000000000e+00,2.300000000000000000e+01
5.746200000000000000e+04,1.000000000000000082e-05,5.000000000000000240e-05,-1.000000000000000082e-05,5.000000000000000240e-05,-1.000000000000000082e-05,0.000000000000000000e+00,-5.000000000000000240e-05,5.000000000000000240e-05,6.000000000000000000e+00,2.300000000000000000e+01
5.746300000000000000e+04,1.000000000000000082e-05,5.000000000000000240e-05,-1.000000000000000082e-05,5.000000000000000240e-05,-1.000000000000000082e-05,0.000000000000000000e+00,-5.000000000000000240e-05,5.000000000000000240e-05,6.000000000000000000e+00,2.300000000000000000e+01
5.746400000000000000e+04,1.000000000000000082e-05,5.000000000000000240e-05,-1.000000000000000082e-05,5.000000000000000240e-05,-1.000000000000000082e-05,0.000000000000000000e+00,-5.000000000000000240e-05,5.000000000000000240e-05,6.000000000000000000e+00,2.300000000000000000e+01
5.746500000000000000e+04,1.000000000000000082e-05,5.000000000000000240e-05,-1.000000000000000082e-05,5.000000000000000240e-05,-1.000000000000000082e-05,0.000000000000000000e+00,-5.000000000000000240e-05,5.000000000000000240e-05,6.000000000000000000e+00,2.300000000000000000e+01
5.746600000000000000e+04,1.000000000000000082e-05,5.000000000000000240e-05,-1.000000000000000082e-05,5.000000000000000240e-05,-1.000000000000000082e-05,0.000000000000000000e+00,-5.000000000000000240e-05,5.000000000000000240e-05,6.000000000000000000e+00,2.300000000000000000e+01
5.746700000000000000e+04,1.000000000000000082e-05,5.000000000000000240e-05,-1.000000000000000082e-05,5.000000000000000240e-05,-1.000000000000000082e-05,0.000000000000000000e+00,-5.000000000000000240e-05,5.000000000000000240e-05,6.000000000000000000e+00,2.300000000000000000e+01
5.746800000000000000e+04,2.000000000000000164e-05,-1.699999999999999851e-04,-5.099999999999999282e-04,-4.799999999999999580e-04,-1.100000000000000039e-04,-5.000000000000000240e-05,1.000000000000000048e-04,3.899999999999999929e-04,6.000000000000000000e+00,2.300000000000000000e+01
5.746900000000000000e+04,2.000000000000000164e-05,-1.699999999999999851e-04,-5.099999999999999282e-04,-4.799999999999999580e-04,-1.100000000000000039e-04,-5.000000000000000240e-05,1.000000000000000048e-04,3.899999999999999929e-04,6.000000000000000000e+00,2.300000000000000000e+01
5.747000000000000000e+04,-1.399999999999999877e-04,1.000000000000000048e-04,-1.600000000000000131e-04,8.000000000000000654e-05,-2.000000000000000164e-05,-2.999999999999999737e-05,2.000000000000000164e-05,-1.399999999999999877e-04,6.000000000000000000e+00,2.300000000000000000e+01
5.747100000000000000e+04,-1.399999999999999877e-04,1.000000000000000048e-04,-1.600000000000000131e-04,8.000000000000000654e-05,-2.000000000000000164e-05,-2.999999999999999737e-05,2.000000000000000164e-05,-1.399999999999999877e-04,6.000000000000000000e+00,2.300000000000000000e+01
5.747200000000000000e+04,-1.399999999999999877e-04,1.000000000000000048e-04,-1.600000000000000131e-04,8.000000000000000654e-05,-2.000000000000000164e-05,-2.999999999999999737e-05,2.000000000000000164e-05,-1.399999999999999877e-04,6.000000000000000000e+00,2.300000000000000000e+01
5.747300000000000000e+04,-1.399999999999999877e-04,1.000000000000000048e-04,-1.600000000000000131e-04,8.000000000000000654e-05,-2.000000000000000164e-05,-2.999999999999999737e-05,2.000000000000000164e-05,-1.399999999999999877e-04,6.000000000000000000e+00,2.300000000000000000e+01
5.747400000000000000e+04,-1.399999999999999877e-04,1.000000000000000048e-04,-1.600000000000000131e-04,8.000000000000000654e-05,-2.000000000000000164e-05,-2.999999999999999737e-05,2.000000000000000164e-05,-1.399999999999999877e-04,6.000000000000000000e+00,2.300000000000000000e+01
5.747500000000000000e+04,-1.399999999999999877e-04,1.000000000000000048e-04,-1.600000000000000131e-04,8.000000000000000654e-05,-2.000000000000000164e-05,-2.999999999999999737e-05,2.000000000000000164e-05,-1.399999999999999877e-04,6.000000000000000000e+00,2.300000000000000000e+01
5.747600000000000000e+04,-1.399999999999999877e-04,1.000000000000000048e-04,-1.600000000000000131e-04,8.000000000000000654e-05,-2.000000000000000164e-05,-2.999999999999999737e-05,2.000000000000000164e-05,-1.399999999999999877e-04,6.000000000000000000e+00,2.300000000000000000e+01
5.747700000000000000e+04,-1.399999999999999877e-04,1.000000000000000048e-04,-1.600000000000000131e-04,8.000000000000000654e-05,-2.000000000000000164e-05,-2.999999999999999737e-05,2.000000000000000164e-05,-1.399999999999999877e-04,6.000000000000000000e+00,2.300000000000000000e+01
5.747800000000000000e+04,-1.399999999999999877e-04,1.000000000000000048e-04,-1.600000000000000131e-04,8.000000000000000654e-05,-2.000000000000000164e-05,-2.999999999999999737e-05,2.000000000000000164e-05,-1.399999999999999877e-04,6.000000000000000000e+00,2.300000000000000000e+01
5.747900000000000000e+04,-1.399999999999999877e-04,1.000000000000000048e-04,-1.600000000000000131e-04,8.000000000000000654e-05,-2.000000000000000164e-05,-2.999999999999999737e-05,2.000000000000000164e-05,-1.399999999999999877e-04,6.000000000000000000e+00,2.300000000000000000e+01
5.748000000000000000e+04,-1.399999999999999877e-04,1.000000000000000048e-04,-1.600000000000000131e-04,8.000000000000000654e-05,-2.000000000000000164e-05,-2.999999999999999737e-05,2.000000000000000164e-05,-1.399999999999999877e-04,6.000000000000000000e+00,2.300000000000000000e+01
5.748100000000000000e+04,-1.399999999999999877e-04,1.000000000000000048e-04,-1.600000000000000131e-04,8.000000000000000654e-05,-2.000000000000000164e-05,-2.999999999999999737e-05,2.000000000000000164e-05,-1.399999999999999877e-04,6.000000000000000000e+00,2.300000000000000000e+01
5.748200000000000000e+04,-1.399999999999999877e-04,1.000000000000000048e-04,-1.600000000000000131e-04,8.000000000000000654e-05,-2.000000000000000164e-05,-2.999999999999999737e-05,2.000000000000000164e-05,-1.399999999999999877e-04,6.000000000000000000e+00,2.300000000000000000e+01
5.748300000000000000e+04,-1.399999999999999877e-04,1.000000000000000048e-04,-1.600000000000000131e-04,8.000000000000000654e-05,-2.000000000000000164e-05,-2.999999999999999737e-05,2.000000000000000164e-05,-1.399999999999999877e-04,6.000000000000000000e+00,2.300000000000000000e+01
5.748400000000000000e+04,-1.399999999999999877e-04,1.000000000000000048e-04,-1.600000000000000131e-04,8.000000000000000654e-05,-2.000000000000000164e-05,-2.999999999999999737e-05,2.000000000000000164e-05,-1.399999999999999877e-04,6.000000000000000000e+00,2.300000000000000000e+01
5.748500000000000000e+04,-1.399999999999999877e-04,1.000000000000000048e-04,-1.600000000000000131e-04,8.000000000000000654e-05,-2.000000000000000164e-05,-2.999999999999999737e-05,2.000000000000000164e-05,-1.399999999999999877e-04,6.000000000000000000e+00,2.300000000000000000e+01
5.748600000000000000e+04,-1.399999999999999877e-04,1.000000000000000048e-04,-1.600000000000000131e-04,8.000000000000000654e-05,-2.000000000000000164e-05,-2.999999999999999737e-05,2.000000000000000164e-05,-1.399999999999999877e-04,6.000000000000000000e+00,2.300000000000000000e+01
5.748800000000000000e+04,-1.399999999999999877e-04,1.000000000000000048e-04,-1.600000000000000131e-04,8.000000000000000654e-05,-2.000000000000000164e-05,-2.999999999999999737e-05,2.000000000000000164e-05,-1.399999999999999877e-04,6.000000000000000000e+00,2.300000000000000000e+01
5.748900000000000000e+04,-1.399999999999999877e-04,1.000000000000000048e-04,-1.600000000000000131e-04,8.000000000000000654e-05,-2.000000000000000164e-05,-2.999999999999999737e-05,2.000000000000000164e-05,-1.399999999999999877e-04,6.000000000000000000e+00,2.300000000000000000e+01
5.749000000000000000e+04,-1.399999999999999877e-04,1.000000000000000048e-04,-1.600000000000000131e-04,8.000000000000000654e-05,-2.000000000000000164e-05,-2.999999999999999737e-05,2.000000000000000164e-05,-1.399999999999999877e-04,6.000000000000000000e+00,2.300000000000000000e+01
5.749100000000000000e+04,9.000000000000000567e-05,1.600000000000000131e-04,1.899999999999999834e-04,1.899999999999999834e-04,5.000000000000000240e-05,6.999999999999999387e-05,1.000000000000000048e-04,2.900000000000000017e-04,6.000000000000000000e+00,2.300000000000000000e+01
5.749200000000000000e+04,1.000000000000000082e-05,0.000000000000000000e+00,3.799999999999999667e-04,4.000000000000000327e-05,-2.000000000000000164e-05,-2.999999999999999737e-05,2.000000000000000164e-05,-2.600000000000000314e-04,6.000000000000000000e+00,2.300000000000000000e+01
5.749300000000000000e+04,1.000000000000000082e-05,0.000000000000000000e+00,3.799999999999999667e-04,4.000000000000000327e-05,-2.000000000000000164e-05,-2.999999999999999737e-05,2.000000000000000164e-05,-2.600000000000000314e-04,6.000000000000000000e+00,2.300000000000000000e+01
5.749400000000000000e+04,1.000000000000000082e-05,0.000000000000000000e+00,3.799999999999999667e-04,4.000000000000000327e-05,-2.000000000000000164e-05,-2.999999999999999737e-05,2.000000000000000164e-05,-2.600000000000000314e-04,6.000000000000000000e+00,2.300000000000000000e+01
5.749500000000000000e+04,1.000000000000000082e-05,0.000000000000000000e+00,3.799999999999999667e-04,4.000000000000000327e-05,-2.000000000000000164e-05,-2.999999999999999737e-05,2.000000000000000164e-05,-2.600000000000000314e-04,6.000000000000000000e+00,2.300000000000000000e+01
