4.334400000000000000e+04,5.999999999999999474e-05,-1.199999999999999895e-04,-2.299999999999999799e-04,-1.399999999999999877e-04,-2.100000000000000087e-04,6.999999999999999387e-05,8.000000000000000654e-05,9.000000000000000567e-05,5.000000000000000000e+00,2.100000000000000000e+01
4.334500000000000000e+04,5.999999999999999474e-05,-1.199999999999999895e-04,-2.299999999999999799e-04,-1.399999999999999877e-04,-2.100000000000000087e-04,6.999999999999999387e-05,8.000000000000000654e-05,9.000000000000000567e-05,5.000000000000000000e+00,2.100000000000000000e+01
4.334600000000000000e+04,5.999999999999999474e-05,-1.199999999999999895e-04,-2.299999999999999799e-04,-1.399999999999999877e-04,-2.100000000000000087e-04,6.999999999999999387e-05,8.000000000000000654e-05,9.000000000000000567e-05,5.000000000000000000e+00,2.100000000000000000e+01
4.334700000000000000e+04,5.999999999999999474e-05,-1.199999999999999895e-04,-2.299999999999999799e-04,-1.399999999999999877e-04,-2.100000000000000087e-04,6.999999999999999387e-05,8.000000000000000654e-05,9.000000000000000567e-05,5.000000000000000000e+00,2.100000000000000000e+01
4.334800000000000000e+04,5.999999999999999474e-05,-1.199999999999999895e-04,-2.299999999999999799e-04,-1.399999999999999877e-04,-2.100000000000000087e-04,6.999999999999999387e-05,8.000000000000000654e-05,9.000000000000000567e-05,5.000000000000000000e+00,2.100000000000000000e+01
4.334900000000000000e+04,5.999999999999999474e-05,-1.199999999999999895e-04,-2.299999999999999799e-04,-1.399999999999999877e-04,-2.100000000000000087e-04,6.999999999999999387e-05,8.000000000000000654e-05,9.000000000000000567e-05,5.000000000000000000e+00,2.100000000000000000e+01
4.335000000000000000e+04,5.999999999999999474e-05,-1.199999999999999895e-04,-2.299999999999999799e-04,-1.399999999999999877e-04,-2.100000000000000087e-04,6.999999999999999387e-05,8.000000000000000654e-05,9.000000000000000567e-05,5.000000000000000000e+00,2.100000000000000000e+01
4.335100000000000000e+04,5.999999999999999474e-05,-1.199999999999999895e-04,-2.299999999999999799e-04,-1.399999999999999877e-04,-2.100000000000000087e-04,6.999999999999999387e-05,8.000000000000000654e-05,9.000000000000000567e-05,5.000000000000000000e+00,2.100000000000000000e+01
4.335200000000000000e+04,5.999999999999999474e-05,-1.199999999999999895e-04,-2.299999999999999799e-04,-1.399999999999999877e-04,-2.100000000000000087e-04,6.999999999999999387e-05,8.000000000000000654e-05,9.000000000000000567e-05,5.000000000000000000e+00,2.100000000000000000e+01
4.335300000000000000e+04,-4.000000000000000327e-05,9.000000000000000567e-05,-1.499999999999999869e-04,-2.200000000000000078e-04,-1.600000000000000131e-04,2.999999999999999737e-05,-1.000000000000000082e-05,-5.000000000000000240e-05,5.000000000000000000e+00,2.100000000000000000e+01
4.335400000000000000e+04,-4.000000000000000327e-05,9.000000000000000567e-05,-1.499999999999999869e-04,-2.200000000000000078e-04,-1.600000000000000131e-04,2.999999999999999737e-05,-1.000000000000000082e-05,-5.000000000000000240e-05,5.000000000000000000e+00,2.100000000000000000e+01
4.335500000000000000e+04,-4.000000000000000327e-05,9.000000000000000567e-05,-1.499999999999999869e-04,-2.200000000000000078e-04,-1.600000000000000131e-04,2.999999999999999737e-05,-1.000000000000000082e-05,-5.000000000000000240e-05,5.000000000000000000e+00,2.100000000000000000e+01
4.335600000000000000e+04,-4.000000000000000327e-05,9.000000000000000567e-05,-1.499999999999999869e-04,-2.200000000000000078e-04,-1.600000000000000131e-04,2.999999999999999737e-05,-1.000000000000000082e-05,-5.000000000000000240e-05,5.000000000000000000e+00,2.100000000000000000e+01
4.335700000000000000e+04,-4.000000000000000327e-05,9.000000000000000567e-05,-1.499999999999999869e-04,-2.200000000000000078e-04,-1.600000000000000131e-04,2.999999999999999737e-05,-1.000000000000000082e-05,-5.000000000000000240e-05,5.000000000000000000e+00,2.100000000000000000e+01
4.335800000000000000e+04,-4.000000000000000327e-05,9.000000000000000567e-05,-1.499999999999999869e-04,-2.200000000000000078e-04,-1.600000000000000131e-04,2.999999999999999737e-05,-1.000000000000000082e-05,-5.000000000000000240e-05,5.000000000000000000e+00,2.100000000000000000e+01
4.335900000000000000e+04,-4.000000000000000327e-05,9.000000000000000567e-05,-1.499999999999999869e-04,-2.200000000000000078e-04,-1.600000000000000131e-04,2.999999999999999737e-05,-1.000000000000000082e-05,-5.000000000000000240e-05,5.000000000000000000e+00,2.100000000000000000e+01
4.336000000000000000e+04,-4.000000000000000327e-05,9.000000000000000567e-05,-1.499999999999999869e-04,-2.200000000000000078e-04,-1.600000000000000131e-04,2.999999999999999737e-05,-1.000000000000000082e-05,-5.000000000000000240e-05,5.000000000000000000e+00,2.100000000000000000e+01
4.336100000000000000e+04,-4.000000000000000327e-05,9.000000000000000567e-05,-1.499999999999999869e-04,-2.200000000000000078e-04,-1.600000000000000131e-04,2.999999999999999737e-05,-1.000000000000000082e-05,-5.000000000000000240e-05,5.000000000000000000e+00,2.100000000000000000e+01
4.336200000000000000e+04,-4.000000000000000327e-05,-1.300000000000000157e-04,-2.000000000000000164e-05,-1.000000000000000082e-05,-1.000000000000000082e-05,-6.999999999999999387e-05,-6.999999999999999387e-05,-4.000000000000000327e-05,5.000000000000000000e+00,2.100000000000000000e+01
4.336300000000000000e+04,-4.000000000000000327e-05,-1.300000000000000157e-04,-2.000000000000000164e-05,-1.000000000000000082e-05,-1.000000000000000082e-05,-6.999999999999999387e-05,-6.999999999999999387e-05,-4.000000000000000327e-05,5.000000000000000000e+00,2.100000000000000000e+01
4.336400000000000000e+04,-4.000000000000000327e-05,-1.300000000000000157e-04,-2.000000000000000164e-05,-1.000000000000000082e-05,-1.000000000000000082e-05,-6.999999999999999387e-05,-6.999999999999999387e-05,-4.000000000000000327e-05,5.000000000000000000e+00,2.100000000000000000e+01
4.336500000000000000e+04,-4.000000000000000327e-05,-1.300000000000000157e-04,-2.000000000000000164e-05,-1.000000000000000082e-05,-1.000000000000000082e-05,-6.999999999999999387e-05,-6.999999999999999387e-05,-4.000000000000000327e-05,5.000000000000000000e+00,2.100000000000000000e+01
4.336600000000000000e+04,-4.000000000000000327e-05,-1.300000000000000157e-04,-2.000000000000000164e-05,-1.000000000000000082e-05,-1.000000000000000082e-05,-6.999999999999999387e-05,-6.999999999999999387e-05,-4.000000000000000327e-05,5.000000000000000000e+00,2.100000000000000000e+01
4.336700000000000000e+04,-4.000000000000000327e-05,-1.300000000000000157e-04,-2.000000000000000164e-05,-1.000000000000000082e-05,-1.000000000000000082e-05,-6.999999999999999387e-05,-6.999999999999999387e-05,-4.000000000000000327e-05,5.000000000000000000e+00,2.100000000000000000e+01
4.336800000000000000e+04,-4.000000000000000327e-05,-1.300000000000000157e-04,-2.000000000000000164e-05,-1.000000000000000082e-05,-1.000000000000000082e-05,-6.999999999999999387e-05,-6.999999999999999387e-05,-4.000000000000000327e-05,5.000000000000000000e+00,2.100000000000000000e+01
4.336900000000000000e+04,-4.000000000000000327e-05,-1.300000000000000157e-04,-2.000000000000000164e-05,-1.000000000000000082e-05,-1.000000000000000082e-05,-6.999999999999999387e-05,-6.999999999999999387e-05,-4.000000000000000327e-05,5.000000000000000000e+00,2.100000000000000000e+01
4.337000000000000000e+04,-4.000000000000000327e-05,-1.300000000000000157e-04,-2.000000000000000164e-05,-1.000000000000000082e-05,-1.000000000000000082e-05,-6.999999999999999387e-05,-6.999999999999999387e-05,-4.000000000000000327e-05,5.000000000000000000e+00,2.100000000000000000e+01
4.337100000000000000e+04,-4.000000000000000327e-05,-1.300000000000000157e-04,-2.000000000000000164e-05,-1.000000000000000082e-05,-1.000000000000000082e-05,-6.999999999999999387e-05,-6.999999999999999387e-05,-4.000000000000000327e-05,5.000000000000000000e+00,2.100000000000000000e+01
4.337200000000000000e+04,-4.000000000000000327e-05,-1.300000000000000157e-04,-2.000000000000000164e-05,-1.000000000000000082e-05,-1.000000000000000082e-05,-6.999999999999999387e-05,-6.999999999999999387e-05,-4.000000000000000327e-05,5.000000000000000000e+00,2.100000000000000000e+01
4.337300000000000000e+04,-4.000000000000000327e-05,-1.300000000000000157e-04,-2.000000000000000164e-05,-1.000000000000000082e-05,-1.000000000000000082e-05,-6.999999999999999387e-05,-6.999999999999999387e-05,-4.000000000000000327e-05,5.000000000000000000e+00,2.100000000000000000e+01
4.337400000000000000e+04,-4.000000000000000327e-05,-1.300000000000000157e-04,-2.000000000000000164e-05,-1.000000000000000082e-05,-1.000000000000000082e-05,-6.999999999999999387e-05,-6.999999999999999387e-05,-4.000000000000000327e-05,5.000000000000000000e+00,2.100000000000000000e+01
4.337500000000000000e+04,-4.000000000000000327e-05,-1.300000000000000157e-04,-2.000000000000000164e-05,-1.000000000000000082e-05,-1.000000000000000082e-05,-6.999999999999999387e-05,-6.999999999999999387e-05,-4.000000000000000327e-05,5.000000000000000000e+00,2.100000000000000000e+01
4.337600000000000000e+04,-4.000000000000000327e-05,-1.300000000000000157e-04,-2.000000000000000164e-05,-1.000000000000000082e-05,-1.000000000000000082e-05,-6.999999999999999387e-05,-6.999999999999999387e-05,-4.000000000000000327e-05,5.000000000000000000e+00,2.100000000000000000e+01
4.337700000000000000e+04,4.000000000000000327e-05,-1.600000000000000131e-04,-9.000000000000000567e-05,2.000000000000000096e-04,4.799999999999999580e-04,-5.000000000000000240e-05,1.199999999999999895e-04,5.000000000000000240e-05,5.000000000000000000e+00,2.100000000000000000e+01
4.337800000000000000e+04,4.000000000000000327e-05,-1.600000000000000131e-04,-9.000000000000000567e-05,2.000000000000000096e-04,4.799999999999999580e-04,-5.000000000000000240e-05,1.199999999999999895e-04,5.000000000000000240e-05,5.000000000000000000e+00,2.100000000000000000e+01
4.337900000000000000e+04,-1.600000000000000131e-04,1.100000000000000039e-04,-2.000000000000000164e-05,4.000000000000000327e-05,-1.800000000000000113e-04,3.600000000000000227e-04,-2.999999999999999737e-05,1.000000000000000082e-05,5.000000000000000000e+00,2.100000000000000000e+01
4.338000000000000000e+04,-1.600000000000000131e-04,1.100000000000000039e-04,-2.000000000000000164e-05,4.000000000000000327e-05,-1.800000000000000113e-04,3.600000000000000227e-04,-2.999999999999999737e-05,1.000000000000000082e-05,5.000000000000000000e+00,2.100000000000000000e+01
4.338100000000000000e+04,-1.600000000000000131e-04,1.100000000000000039e-04,-2.000000000000000164e-05,4.000000000000000327e-05,-1.800000000000000113e-04,3.600000000000000227e-04,-2.999999999999999737e-05,1.000000000000000082e-05,5.000000000000000000e+00,2.100000000000000000e+01
4.338200000000000000e+04,-1.600000000000000131e-04,1.100000000000000039e-04,-2.000000000000000164e-05,4.000000000000000327e-05,-1.800000000000000113e-04,3.600000000000000227e-04,-2.999999999999999737e-05,1.000000000000000082e-05,5.000000000000000000e+00,2.100000000000000000e+01
4.338300000000000000e+04,-1.600000000000000131e-04,1.100000000000000039e-04,-2.000000000000000164e-05,4.000000000000000327e-05,-1.800000000000000113e-04,3.600000000000000227e-04,-2.999999999999999737e-05,1.000000000000000082e-05,5.000000000000000000e+00,2.100000000000000000e+01
4.338400000000000000e+04,-1.600000000000000131e-04,1.100000000000000039e-04,-2.000000000000000164e-05,4.000000000000000327e-05,-1.800000000000000113e-04,3.600000000000000227e-04,-2.999999999999999737e-05,1.000000000000000082e-05,5.000000000000000000e+00,2.100000000000000000e+01
4.338500000000000000e+04,-1.600000000000000131e-04,1.100000000000000039e-04,-2.000000000000000164e-05,4.000000000000000327e-05,-1.800000000000000113e-04,3.600000000000000227e-04,-2.999999999999999737e-05,1.000000000000000082e-05,5.000000000000000000e+00,2.100000000000000000e+01
4.338600000000000000e+04,-1.600000000000000131e-04,1.100000000000000039e-04,-2.000000000000000164e-05,4.000000000000000327e-05,-1.800000000000000113e-04,3.600000000000000227e-04,-2.999999999999999737e-05,1.000000000000000082e-05,5.000000000000000000e+00,2.100000000000000000e+01
4.338800000000000000e+04,-1.600000000000000131e-04,1.100000000000000039e-04,-2.000000000000000164e-05,4.000000000000000327e-05,-1.800000000000000113e-04,3.600000000000000227e-04,-2.999999999999999737e-05,1.000000000000000082e-05,5.000000000000000000e+00,2.100000000000000000e+01
4.338900000000000000e+04,-1.600000000000000131e-04,1.100000000000000039e-04,-2.000000000000000164e-05,4.000000000000000327e-05,-1.800000000000000113e-04,3.600000000000000227e-04,-2.999999999999999737e-05,1.000000000000000082e-05,5.000000000000000000e+00,2.100000000000000000e+01
4.339000000000000000e+04,-1.600000000000000131e-04,1.100000000000000039e-04,-2.000000000000000164e-05,4.000000000000000327e-05,-1.800000000000000113e-04,3.600000000000000227e-04,-2.999999999999999737e-05,1.000000000000000082e-05,5.000000000000000000e+00,2.100000000000000000e+01
4.339100000000000000e+04,-1.600000000000000131e-04,1.100000000000000039e-04,-2.000000000000000164e-05,4.000000000000000327e-05,-1.800000000000000113e-04,3.600000000000000227e-04,-2.999999999999999737e-05,1.000000000000000082e-05,5.000000000000000000e+00,2.100000000000000000e+01
4.339200000000000000e+04,-1.600000000000000131e-04,1.100000000000000039e-04,-2.000000000000000164e-05,4.000000000000000327e-05,-1.800000000000000113e-04,3.600000000000000227e-04,-2.999999999999999737e-05,1.000000000000000082e-05,5.000000000000000000e+00,2.100000000000000000e+01
4.339300000000000000e+04,-1.600000000000000131e-04,1.100000000000000039e-04,-2.000000000000000164e-05,4.000000000000000327e-05,-1.800000000000000113e-04,3.600000000000000227e-04,-2.999999999999999737e-05,1.000000000000000082e-05,5.000000000000000000e+00,2.100000000000000000e+01
4.339400000000000000e+04,-1.600000000000000131e-04,1.100000000000000039e-04,-2.000000000000000164e-05,4.000000000000000327e-05,-1.800000000000000113e-04,3.600000000000000227e-04,-2.999999999999999737e-05,1.000000000000000082e-05,5.000000000000000000e+00,2.100000000000000000e+01
4.339500000000000000e+04,-1.600000000000000131e-04,1.100000000000000039e-04,-2.000000000000000164e-05,4.000000000000000327e-05,-1.800000000000000113e-04,3.600000000000000227e-04,-2.999999999999999737e-05,1.000000000000000082e-05,5.000000000000000000e+00,2.100000000000000000e+01
4.339600000000000000e+04,-1.600000000000000131e-04,1.100000000000000039e-04,-2.000000000000000164e-05,4.000000000000000327e-05,-1.800000000000000113e-04,3.600000000000000227e-04,-2.999999999999999737e-05,1.000000000000000082e-05,5.000000000000000000e+00,2.100000000000000000e+01
4.339700000000000000e+04,-1.600000000000000131e-04,1.100000000000000039e-04,-2.000000000000000164e-05,4.000000000000000327e-05,-1.800000000000000113e-04,3.600000000000000227e-04,-2.999999999999999737e-05,1.000000000000000082e-05,5.000000000000000000e+00,2.100000000000000000e+01
4.339800000000000000e+04,-1.600000000000000131e-04,1.100000000000000039e-04,-2.000000000000000164e-05,4.000000000000000327e-05,-1.800000000000000113e-04,3.600000000000000227e-04,-2.999999999999999737e-05,1.000000000000000082e-05,5.000000000000000000e+00,2.100000000000000000e+01
4.339900000000000000e+04,-1.600000000000000131e-04,1.100000000000000039e-04,-2.000000000000000164e-05,4.000000000000000327e-05,-1.800000000000000113e-04,3.600000000000000227e-04,-2.999999999999999737e-05,1.000000000000000082e-05,5.000000000000000000e+00,2.100000000000000000e+01
4.340000000000000000e+04,-1.000000000000000082e-05,-1.399999999999999877e-04,8.000000000000000654e-05,-4.000000000000000327e-05,0.000000000000000000e+00,1.199999999999999895e-04,-1.000000000000000048e-04,-4.000000000000000327e-05,5.000000000000000000e+00,2.100000000000000000e+01
4.340100000000000000e+04,5.999999999999999474e-05,8.000000000000000654e-05,1.100000000000000039e-04,2.999999999999999737e-05,5.299999999999999807e-04,-2.999999999999999737e-05,2.000000000000000164e-05,4.000000000000000327e-05,5.000000000000000000e+00,2.100000000000000000e+01
4.340200000000000000e+04,5.999999999999999474e-05,8.000000000000000654e-05,1.100000000000000039e-04,2.999999999999999737e-05,5.299999999999999807e-04,-2.999999999999999737e-05,2.000000000000000164e-05,4.000000000000000327e-05,5.000000000000000000e+00,2.100000000000000000e+01
4.340300000000000000e+04,5.999999999999999474e-05,8.000000000000000654e-05,1.100000000000000039e-04,2.999999999999999737e-05,5.299999999999999807e-04,-2.999999999999999737e-05,2.000000000000000164e-05,4.000000000000000327e-05,5.000000000000000000e+00,2.100000000000000000e+01
4.340400000000000000e+04,5.999999999999999474e-05,8.000000000000000654e-05,1.100000000000000039e-04,2.999999999999999737e-05,5.299999999999999807e-04,-2.999999999999999737e-05,2.000000000000000164e-05,4.000000000000000327e-05,5.000000000000000000e+00,2.100000000000000000e+01
4.340500000000000000e+04,5.999999999999999474e-05,8.000000000000000654e-05,1.100000000000000039e-04,2.999999999999999737e-05,5.299999999999999807e-04,-2.999999999999999737e-05,2.000000000000000164e-05,4.000000000000000327e-05,5.000000000000000000e+00,2.100000000000000000e+01
4.340600000000000000e+04,5.999999999999999474e-05,8.000000000000000654e-05,1.100000000000000039e-04,2.999999999999999737e-05,5.299999999999999807e-04,-2.999999999999999737e-05,2.000000000000000164e-05,4.000000000000000327e-05,5.000000000000000000e+00,2.100000000000000000e+01
4.340700000000000000e+04,5.999999999999999474e-05,8.000000000000000654e-05,1.100000000000000039e-04,2.999999999999999737e-05,5.299999999999999807e-04,-2.999999999999999737e-05,2.000000000000000164e-05,4.000000000000000327e-05,5.000000000000000000e+00,2.100000000000000000e+01
4.340900000000000000e+04,5.999999999999999474e-05,8.000000000000000654e-05,1.100000000000000039e-04,2.999999999999999737e-05,5.299999999999999807e-04,-2.999999999999999737e-05,2.000000000000000164e-05,4.000000000000000327e-05,5.000000000000000000e+00,2.100000000000000000e+01
4.341000000000000000e+04,5.999999999999999474e-05,8.000000000000000654e-05,1.100000000000000039e-04,2.999999999999999737e-05,5.299999999999999807e-04,-2.999999999999999737e-05,2.000000000000000164e-05,4.000000000000000327e-05,5.000000000000000000e+00,2.100000000000000000e+01
4.341100000000000000e+04,5.999999999999999474e-05,8.000000000000000654e-05,1.100000000000000039e-04,2.999999999999999737e-05,5.299999999999999807e-04,-2.999999999999999737e-05,2.000000000000000164e-05,4.000000000000000327e-05,5.000000000000000000e+00,2.100000000000000000e+01
4.341200000000000000e+04,5.999999999999999474e-05,8.000000000000000654e-05,1.100000000000000039e-04,2.999999999999999737e-05,5.299999999999999807e-04,-2.999999999999999737e-05,2.000000000000000164e-05,4.000000000000000327e-05,5.000000000000000000e+00,2.100000000000000000e+01
4.341300000000000000e+04,5.999999999999999474e-05,8.000000000000000654e-05,1.100000000000000039e-04,2.999999999999999737e-05,5.299999999999999807e-04,-2.999999999999999737e-05,2.000000000000000164e-05,4.000000000000000327e-05,5.000000000000000000e+00,2.100000000000000000e+01
4.341400000000000000e+04,0.000000000000000000e+00,1.199999999999999895e-04,-4.000000000000000327e-05,5.000000000000000240e-05,-4.299999999999999894e-04,-1.399999999999999877e-04,-5.000000000000000240e-05,-1.100000000000000039e-04,5.000000000000000000e+00,2.100000000000000000e+01
4.341500000000000000e+04,0.000000000000000000e+00,1.199999999999999895e-04,-4.000000000000000327e-05,5.000000000000000240e-05,-4.299999999999999894e-04,-1.399999999999999877e-04,-5.000000000000000240e-05,-1.100000000000000039e-04,5.000000000000000000e+00,2.100000000000000000e+01
4.341600000000000000e+04,0.000000000000000000e+00,1.199999999999999895e-04,-4.000000000000000327e-05,5.000000000000000240e-05,-4.299999999999999894e-04,-1.399999999999999877e-04,-5.000000000000000240e-05,-1.100000000000000039e-04,5.000000000000000000e+00,2.100000000000000000e+01
4.341700000000000000e+04,0.000000000000000000e+00,1.199999999999999895e-04,-4.000000000000000327e-05,5.000000000000000240e-05,-4.299999999999999894e-04,-1.399999999999999877e-04,-5.000000000000000240e-05,-1.100000000000000039e-04,5.000000000000000000e+00,2.100000000000000000e+01
4.341800000000000000e+04,0.000000000000000000e+00,1.199999999999999895e-04,-4.000000000000000327e-05,5.000000000000000240e-05,-4.299999999999999894e-04,-1.399999999999999877e-04,-5.000000000000000240e-05,-1.100000000000000039e-04,5.000000000000000000e+00,2.100000000000000000e+01
4.341900000000000000e+04,0.000000000000000000e+00,1.199999999999999895e-04,-4.000000000000000327e-05,5.000000000000000240e-05,-4.299999999999999894e-04,-1.399999999999999877e-04,-5.000000000000000240e-05,-1.100000000000000039e-04,5.000000000000000000e+00,2.100000000000000000e+01
4.342000000000000000e+04,0.000000000000000000e+00,1.199999999999999895e-04,-4.000000000000000327e-05,5.000000000000000240e-05,-4.299999999999999894e-04,-1.399999999999999877e-04,-5.000000000000000240e-05,-1.100000000000000039e-04,5.000000000000000000e+00,2.100000000000000000e+01
4.342100000000000000e+04,-1.499999999999999869e-04,-2.900000000000000017e-04,-1.300000000000000157e-04,-1.000000000000000048e-04,4.000000000000000327e-05,-1.300000000000000157e-04,-2.000000000000000164e-05,2.999999999999999737e-05,5.000000000000000000e+00,2.100000000000000000e+01
4.342200000000000000e+04,-1.499999999999999869e-04,-2.900000000000000017e-04,-1.300000000000000157e-04,-1.000000000000000048e-04,4.000000000000000327e-05,-1.300000000000000157e-04,-2.000000000000000164e-05,2.999999999999999737e-05,5.000000000000000000e+00,2.100000000000000000e+01
4.342300000000000000e+04,-1.499999999999999869e-04,-2.900000000000000017e-04,-1.300000000000000157e-04,-1.000000000000000048e-04,4.000000000000000327e-05,-1.300000000000000157e-04,-2.000000000000000164e-05,2.999999999999999737e-05,5.000000000000000000e+00,2.100000000000000000e+01
4.342400000000000000e+04,-1.499999999999999869e-04,-2.900000000000000017e-04,-1.300000000000000157e-04,-1.000000000000000048e-04,4.000000000000000327e-05,-1.300000000000000157e-04,-2.000000000000000164e-05,2.999999999999999737e-05,5.000000000000000000e+00,2.100000000000000000e+01
4.342500000000000000e+04,-1.499999999999999869e-04,-2.900000000000000017e-04,-1.300000000000000157e-04,-1.000000000000000048e-04,4.000000000000000327e-05,-1.300000000000000157e-04,-2.000000000000000164e-05,2.999999999999999737e-05,5.000000000000000000e+00,2.100000000000000000e+01
4.342600000000000000e+04,-1.499999999999999869e-04,-2.900000000000000017e-04,-1.300000000000000157e-04,-1.000000000000000048e-04,4.000000000000000327e-05,-1.300000000000000157e-04,-2.000000000000000164e-05,2.999999999999999737e-05,5.000000000000000000e+00,2.100000000000000000e+01
4.342700000000000000e+04,-1.499999999999999869e-04,-2.900000000000000017e-04,-1.300000000000000157e-04,-1.000000000000000048e-04,4.000000000000000327e-05,-1.300000000000000157e-04,-2.000000000000000164e-05,2.999999999999999737e-05,5.000000000000000000e+00,2.100000000000000000e+01
4.342800000000000000e+04,-1.499999999999999869e-04,-2.900000000000000017e-04,-1.300000000000000157e-04,-1.000000000000000048e-04,4.000000000000000327e-05,-1.300000000000000157e-04,-2.000000000000000164e-05,2.999999999999999737e-05,5.000000000000000000e+00,2.100000000000000000e+01
4.342900000000000000e+04,-1.499999999999999869e-04,-2.900000000000000017e-04,-1.300000000000000157e-04,-1.000000000000000048e-04,4.000000000000000327e-05,-1.300000000000000157e-04,-2.000000000000000164e-05,2.999999999999999737e-05,5.000000000000000000e+00,2.100000000000000000e+01
4.343000000000000000e+04,-1.499999999999999869e-04,-2.900000000000000017e-04,-1.300000000000000157e-04,-1.000000000000000048e-04,4.000000000000000327e-05,-1.300000000000000157e-04,-2.000000000000000164e-05,2.999999999999999737e-05,5.000000000000000000e+00,2.100000000000000000e+01
4.343100000000000000e+04,-1.499999999999999869e-04,-2.900000000000000017e-04,-1.300000000000000157e-04,-1.000000000000000048e-04,4.000000000000000327e-05,-1.300000000000000157e-04,-2.000000000000000164e-05,2.999999999999999737e-05,5.000000000000000000e+00,2.100000000000000000e+01
4.343200000000000000e+04,-1.499999999999999869e-04,-2.900000000000000017e-04,-1.300000000000000157e-04,-1.000000000000000048e-04,4.000000000000000327e-05,-1.300000000000000157e-04,-2.000000000000000164e-05,2.999999999999999737e-05,5.000000000000000000e+00,2.100000000000000000e+01
4.343300000000000000e+04,-1.499999999999999869e-04,-2.900000000000000017e-04,-1.300000000000000157e-04,-1.000000000000000048e-04,4.000000000000000327e-05,-1.300000000000000157e-04,-2.000000000000000164e-05,2.999999999999999737e-05,5.000000000000000000e+00,2.100000000000000000e+01
4.343400000000000000e+04,-1.499999999999999869e-04,-2.900000000000000017e-04,-1.300000000000000157e-04,-1.000000000000000048e-04,4.000000000000000327e-05,-1.300000000000000157e-04,-2.000000000000000164e-05,2.999999999999999737e-05,5.000000000000000000e+00,2.100000000000000000e+01
4.343500000000000000e+04,-1.499999999999999869e-04,-2.900000000000000017e-04,-1.300000000000000157e-04,-1.000000000000000048e-04,4.000000000000000327e-05,-1.300000000000000157e-04,-2.000000000000000164e-05,2.999999999999999737e-05,5.000000000000000000e+00,2.100000000000000000e+01
4.343600000000000000e+04,-1.499999999999999869e-04,-2.900000000000000017e-04,-1.300000000000000157e-04,-1.000000000000000048e-04,4.000000000000000327e-05,-1.300000000000000157e-04,-2.000000000000000164e-05,2.999999999999999737e-05,5.000000000000000000e+00,2.100000000000000000e+01
4.343800000000000000e+04,-1.499999999999999869e-04,-2.900000000000000017e-04,-1.300000000000000157e-04,-1.000000000000000048e-04,4.000000000000000327e-05,-1.300000000000000157e-04,-2.000000000000000164e-05,2.999999999999999737e-05,5.000000000000000000e+00,2.100000000000000000e+01
4.343900000000000000e+04,-1.499999999999999869e-04,-2.900000000000000017e-04,-1.300000000000000157e-04,-1.000000000000000048e-04,4.000000000000000327e-05,-1.300000000000000157e-04,-2.000000000000000164e-05,2.999999999999999737e-05,5.000000000000000000e+00,2.100000000000000000e+01
4.344000000000000000e+04,-1.499999999999999869e-04,-2.900000000000000017e-04,-1.300000000000000157e-04,-1.000000000000000048e-04,4.000000000000000327e-05,-1.300000000000000157e-04,-2.000000000000000164e-05,2.999999999999999737e-05,5.000000000000000000e+00,2.100000000000000000e+01
4.344100000000000000e+04,-1.499999999999999869e-04,-2.900000000000000017e-04,-1.300000000000000157e-04,-1.000000000000000048e-04,4.000000000000000327e-05,-1.300000000000000157e-04,-2.000000000000000164e-05,2.999999999999999737e-05,5.000000000000000000e+00,2.100000000000000000e+01
4.344200000000000000e+04,-1.499999999999999869e-04,-2.900000000000000017e-04,-1.300000000000000157e-04,-1.000000000000000048e-04,4.000000000000000327e-05,-1.300000000000000157e-04,-2.000000000000000164e-05,2.999999999999999737e-05,5.000000000000000000e+00,2.100000000000000000e+01
4.344300000000000000e+04,-1.499999999999999869e-04,-2.900000000000000017e-04,-1.300000000000000157e-04,-1.000000000000000048e-04,4.000000000000000327e-05,-1.300000000000000157e-04,-2.000000000000000164e-05,2.999999999999999737e-05,5.000000000000000000e+00,2.100000000000000000e+01
4.344400000000000000e+04,1.600000000000000131e-04,1.399999999999999877e-04,5.999999999999999474e-05,-5.000000000000000240e-05,-2.399999999999999790e-04,2.000000000000000164e-05,0.000000000000000000e+00,-5.000000000000000240e-05,5.000000000000000000e+00,2.100000000000000000e+01
4.344500000000000000e+04,-1.899999999999999834e-04,-1.199999999999999895e-04,-1.399999999999999877e-04,-1.100000000000000039e-04,2.399999999999999790e-04,-4.000000000000000192e-04,-1.600000000000000131e-04,-4.000000000000000327e-05,5.000000000000000000e+00,2.100000000000000000e+01
4.344600000000000000e+04,5.000000000000000240e-05,1.800000000000000113e-04,-1.199999999999999895e-04,-1.699999999999999851e-04,-2.999999999999999737e-04,-2.299999999999999799e-04,-2.000000000000000164e-05,-5.999999999999999474e-05,5.000000000000000000e+00,2.100000000000000000e+01
4.344700000000000000e+04,5.000000000000000240e-05,1.800000000000000113e-04,-1.199999999999999895e-04,-1.699999999999999851e-04,-2.999999999999999737e-04,-2.299999999999999799e-04,-2.000000000000000164e-05,-5.999999999999999474e-05,5.000000000000000000e+00,2.100000000000000000e+01
4.344800000000000000e+04,5.000000000000000240e-05,1.800000000000000113e-04,-1.199999999999999895e-04,-1.699999999999999851e-04,-2.999999999999999737e-04,-2.299999999999999799e-04,-2.000000000000000164e-05,-5.999999999999999474e-05,5.000000000000000000e+00,2.100000000000000000e+01
4.344900000000000000e+04,5.000000000000000240e-05,1.800000000000000113e-04,-1.199999999999999895e-04,-1.699999999999999851e-04,-2.999999999999999737e-04,-2.299999999999999799e-04,-2.000000000000000164e-05,-5.999999999999999474e-05,5.000000000000000000e+00,2.100000000000000000e+01
4.345000000000000000e+04,5.000000000000000240e-05,1.800000000000000113e-04,-1.199999999999999895e-04,-1.699999999999999851e-04,-2.999999999999999737e-04,-2.299999999999999799e-04,-2.000000000000000164e-05,-5.999999999999999474e-05,5.000000000000000000e+00,2.100000000000000000e+01
4.345100000000000000e+04,5.000000000000000240e-05,1.800000000000000113e-04,-1.199999999999999895e-04,-1.699999999999999851e-04,-2.999999999999999737e-04,-2.299999999999999799e-04,-2.000000000000000164e-05,-5.999999999999999474e-05,5.000000000000000000e+00,2.100000000000000000e+01
4.345200000000000000e+04,5.000000000000000240e-05,1.800000000000000113e-04,-1.199999999999999895e-04,-1.699999999999999851e-04,-2.999999999999999737e-04,-2.299999999999999799e-04,-2.000000000000000164e-05,-5.999999999999999474e-05,5.000000000000000000e+00,2.100000000000000000e+01
4.345300000000000000e+04,5.000000000000000240e-05,1.800000000000000113e-04,-1.199999999999999895e-04,-1.699999999999999851e-04,-2.999999999999999737e-04,-2.299999999999999799e-04,-2.000000000000000164e-05,-5.999999999999999474e-05,5.000000000000000000e+00,2.100000000000000000e+01
4.345400000000000000e+04,5.000000000000000240e-05,1.800000000000000113e-04,-1.199999999999999895e-04,-1.699999999999999851e-04,-2.999999999999999737e-04,-2.299999999999999799e-04,-2.000000000000000164e-05,-5.999999999999999474e-05,5.000000000000000000e+00,2.100000000000000000e+01
4.345500000000000000e+04,5.000000000000000240e-05,1.800000000000000113e-04,-1.199999999999999895e-04,-1.699999999999999851e-04,-2.999999999999999737e-04,-2.299999999999999799e-04,-2.000000000000000164e-05,-5.999999999999999474e-05,5.000000000000000000e+00,2.100000000000000000e+01
4.345600000000000000e+04,5.000000000000000240e-05,1.800000000000000113e-04,-1.199999999999999895e-04,-1.699999999999999851e-04,-2.999999999999999737e-04,-2.299999999999999799e-04,-2.000000000000000164e-05,-5.999999999999999474e-05,5.000000000000000000e+00,2.100000000000000000e+01
4.345700000000000000e+04,5.000000000000000240e-05,1.800000000000000113e-04,-1.199999999999999895e-04,-1.699999999999999851e-04,-2.999999999999999737e-04,-2.299999999999999799e-04,-2.000000000000000164e-05,-5.999999999999999474e-05,5.000000000000000000e+00,2.100000000000000000e+01
4.345800000000000000e+04,5.000000000000000240e-05,1.800000000000000113e-04,-1.199999999999999895e-04,-1.699999999999999851e-04,-2.999999999999999737e-04,-2.299999999999999799e-04,-2.000000000000000164e-05,-5.999999999999999474e-05,5.000000000000000000e+00,2.100000000000000000e+01
4.345900000000000000e+04,-8.000000000000000654e-05,8.000000000000000654e-05,8.000000000000000654e-05,2.999999999999999737e-05,2.700000000000000035e-04,-1.000000000000000082e-05,1.000000000000000048e-04,2.999999999999999737e-05,5.000000000000000000e+00,2.100000000000000000e+01
4.346000000000000000e+04,-4.000000000000000327e-05,2.999999999999999737e-05,-2.000000000000000164e-05,8.000000000000000654e-05,1.600000000000000131e-04,-2.200000000000000078e-04,-2.000000000000000096e-04,-1.000000000000000048e-04,5.000000000000000000e+00,2.100000000000000000e+01
4.346100000000000000e+04,-1.000000000000000048e-04,-6.999999999999999387e-05,5.000000000000000240e-05,-8.000000000000000654e-05,-1.600000000000000131e-04,-3.699999999999999947e-04,-6.999999999999999387e-05,-4.000000000000000327e-05,5.000000000000000000e+00,2.100000000000000000e+01
4.346200000000000000e+04,-1.000000000000000048e-04,-6.999999999999999387e-05,5.000000000000000240e-05,-8.000000000000000654e-05,-1.600000000000000131e-04,-3.699999999999999947e-04,-6.999999999999999387e-05,-4.000000000000000327e-05,5.000000000000000000e+00,2.100000000000000000e+01
4.346300000000000000e+04,-1.000000000000000048e-04,-6.999999999999999387e-05,5.000000000000000240e-05,-8.000000000000000654e-05,-1.600000000000000131e-04,-3.699999999999999947e-04,-6.999999999999999387e-05,-4.000000000000000327e-05,5.000000000000000000e+00,2.100000000000000000e+01
4.346400000000000000e+04,-1.000000000000000048e-04,-6.999999999999999387e-05,5.000000000000000240e-05,-8.000000000000000654e-05,-1.600000000000000131e-04,-3.699999999999999947e-04,-6.999999999999999387e-05,-4.000000000000000327e-05,5.000000000000000000e+00,2.100000000000000000e+01
4.346500000000000000e+04,-1.000000000000000048e-04,-6.999999999999999387e-05,5.000000000000000240e-05,-8.000000000000000654e-05,-1.600000000000000131e-04,-3.699999999999999947e-04,-6.999999999999999387e-05,-4.000000000000000327e-05,5.000000000000000000e+00,2.100000000000000000e+01
4.346600000000000000e+04,-1.000000000000000048e-04,-6.999999999999999387e-05,5.000000000000000240e-05,-8.000000000000000654e-05,-1.600000000000000131e-04,-3.699999999999999947e-04,-6.999999999999999387e-05,-4.000000000000000327e-05,5.000000000000000000e+00,2.100000000000000000e+01
4.346700000000000000e+04,-1.000000000000000048e-04,-6.999999999999999387e-05,5.000000000000000240e-05,-8.000000000000000654e-05,-1.600000000000000131e-04,-3.699999999999999947e-04,-6.999999999999999387e-05,-4.000000000000000327e-05,5.000000000000000000e+00,2.100000000000000000e+01
4.346800000000000000e+04,-1.000000000000000048e-04,-6.999999999999999387e-05,5.000000000000000240e-05,-8.000000000000000654e-05,-1.600000000000000131e-04,-3.699999999999999947e-04,-6.999999999999999387e-05,-4.000000000000000327e-05,5.000000000000000000e+00,2.100000000000000000e+01
4.346900000000000000e+04,-1.000000000000000048e-04,-6.999999999999999387e-05,5.000000000000000240e-05,-8.000000000000000654e-05,-1.600000000000000131e-04,-3.699999999999999947e-04,-6.999999999999999387e-05,-4.000000000000000327e-05,5.000000000000000000e+00,2.100000000000000000e+01
4.347000000000000000e+04,-1.000000000000000048e-04,-6.999999999999999387e-05,5.000000000000000240e-05,-8.000000000000000654e-05,-1.600000000000000131e-04,-3.699999999999999947e-04,-6.999999999999999387e-05,-4.000000000000000327e-05,5.000000000000000000e+00,2.100000000000000000e+01
4.347100000000000000e+04,-1.000000000000000048e-04,-6.999999999999999387e-05,5.000000000000000240e-05,-8.000000000000000654e-05,-1.600000000000000131e-04,-3.699999999999999947e-04,-6.999999999999999387e-05,-4.000000000000000327e-05,5.000000000000000000e+00,2.100000000000000000e+01
4.347200000000000000e+04,-1.000000000000000048e-04,-6.999999999999999387e-05,5.000000000000000240e-05,-8.000000000000000654e-05,-1.600000000000000131e-04,-3.699999999999999947e-04,-6.999999999999999387e-05,-4.000000000000000327e-05,5.000000000000000000e+00,2.100000000000000000e+01
4.347300000000000000e+04,-1.000000000000000048e-04,-6.999999999999999387e-05,5.000000000000000240e-05,-8.000000000000000654e-05,-1.600000000000000131e-04,-3.699999999999999947e-04,-6.999999999999999387e-05,-4.000000000000000327e-05,5.000000000000000000e+00,2.100000000000000000e+01
4.347400000000000000e+04,1.000000000000000048e-04,1.600000000000000131e-04,-5.000000000000000240e-05,0.000000000000000000e+00,-2.100000000000000087e-04,-1.699999999999999851e-04,5.999999999999999474e-05,9.000000000000000567e-05,5.000000000000000000e+00,2.100000000000000000e+01
4.347500000000000000e+04,1.000000000000000048e-04,1.600000000000000131e-04,-5.000000000000000240e-05,0.000000000000000000e+00,-2.100000000000000087e-04,-1.699999999999999851e-04,5.999999999999999474e-05,9.000000000000000567e-05,5.000000000000000000e+00,2.100000000000000000e+01
4.347600000000000000e+04,1.000000000000000048e-04,1.600000000000000131e-04,-5.000000000000000240e-05,0.000000000000000000e+00,-2.100000000000000087e-04,-1.699999999999999851e-04,5.999999999999999474e-05,9.000000000000000567e-05,5.000000000000000000e+00,2.100000000000000000e+01
4.347700000000000000e+04,1.000000000000000048e-04,1.600000000000000131e-04,-5.000000000000000240e-05,0.000000000000000000e+00,-2.100000000000000087e-04,-1.699999999999999851e-04,5.999999999999999474e-05,9.000000000000000567e-05,5.000000000000000000e+00,2.100000000000000000e+01
4.347800000000000000e+04,1.000000000000000048e-04,1.600000000000000131e-04,-5.000000000000000240e-05,0.000000000000000000e+00,-2.100000000000000087e-04,-1.699999999999999851e-04,5.999999999999999474e-05,9.000000000000000567e-05,5.000000000000000000e+00,2.100000000000000000e+01
4.347900000000000000e+04,1.000000000000000048e-04,1.600000000000000131e-04,-5.000000000000000240e-05,0.000000000000000000e+00,-2.100000000000000087e-04,-1.699999999999999851e-04,5.999999999999999474e-05,9.000000000000000567e-05,5.000000000000000000e+00,2.100000000000000000e+01
4.348000000000000000e+04,1.000000000000000048e-04,1.600000000000000131e-04,-5.000000000000000240e-05,0.000000000000000000e+00,-2.100000000000000087e-04,-1.699999999999999851e-04,5.999999999999999474e-05,9.000000000000000567e-05,5.000000000000000000e+00,2.100000000000000000e+01
4.348100000000000000e+04,6.999999999999999387e-05,9.000000000000000567e-05,5.000000000000000240e-05,4.000000000000000327e-05,4.000000000000000327e-05,1.300000000000000157e-04,1.000000000000000048e-04,-5.000000000000000240e-05,5.000000000000000000e+00,2.100000000000000000e+01
4.348200000000000000e+04,6.999999999999999387e-05,9.000000000000000567e-05,5.000000000000000240e-05,4.000000000000000327e-05,4.000000000000000327e-05,1.300000000000000157e-04,1.000000000000000048e-04,-5.000000000000000240e-05,5.000000000000000000e+00,2.100000000000000000e+01
4.348300000000000000e+04,6.999999999999999387e-05,9.000000000000000567e-05,5.000000000000000240e-05,4.000000000000000327e-05,4.000000000000000327e-05,1.300000000000000157e-04,1.000000000000000048e-04,-5.000000000000000240e-05,5.000000000000000000e+00,2.100000000000000000e+01
4.348400000000000000e+04,6.999999999999999387e-05,9.000000000000000567e-05,5.000000000000000240e-05,4.000000000000000327e-05,4.000000000000000327e-05,1.300000000000000157e-04,1.000000000000000048e-04,-5.000000000000000240e-05,5.000000000000000000e+00,2.100000000000000000e+01
4.348500000000000000e+04,6.999999999999999387e-05,9.000000000000000567e-05,5.000000000000000240e-05,4.000000000000000327e-05,4.000000000000000327e-05,1.300000000000000157e-04,1.000000000000000048e-04,-5.000000000000000240e-05,5.000000000000000000e+00,2.100000000000000000e+01
4.348600000000000000e+04,6.999999999999999387e-05,9.000000000000000567e-05,5.000000000000000240e-05,4.000000000000000327e-05,4.000000000000000327e-05,1.300000000000000157e-04,1.000000000000000048e-04,-5.000000000000000240e-05,5.000000000000000000e+00,2.100000000000000000e+01
4.348900000000000000e+04,6.999999999999999387e-05,9.000000000000000567e-05,5.000000000000000240e-05,4.000000000000000327e-05,4.000000000000000327e-05,1.300000000000000157e-04,1.000000000000000048e-04,-5.000000000000000240e-05,5.000000000000000000e+00,2.100000000000000000e+01
4.349000000000000000e+04,6.999999999999999387e-05,9.000000000000000567e-05,5.000000000000000240e-05,4.000000000000000327e-05,4.000000000000000327e-05,1.300000000000000157e-04,1.000000000000000048e-04,-5.000000000000000240e-05,5.000000000000000000e+00,2.100000000000000000e+01
4.349100000000000000e+04,6.999999999999999387e-05,9.000000000000000567e-05,5.000000000000000240e-05,4.000000000000000327e-05,4.000000000000000327e-05,1.300000000000000157e-04,1.000000000000000048e-04,-5.000000000000000240e-05,5.000000000000000000e+00,2.100000000000000000e+01
4.349200000000000000e+04,6.999999999999999387e-05,9.000000000000000567e-05,5.000000000000000240e-05,4.000000000000000327e-05,4.000000000000000327e-05,1.300000000000000157e-04,1.000000000000000048e-04,-5.000000000000000240e-05,5.000000000000000000e+00,2.100000000000000000e+01
4.349300000000000000e+04,6.999999999999999387e-05,9.000000000000000567e-05,5.000000000000000240e-05,4.000000000000000327e-05,4.000000000000000327e-05,1.300000000000000157e-04,1.000000000000000048e-04,-5.000000000000000240e-05,5.000000000000000000e+00,2.100000000000000000e+01
4.349400000000000000e+04,6.999999999999999387e-05,9.000000000000000567e-05,5.000000000000000240e-05,4.000000000000000327e-05,4.000000000000000327e-05,1.300000000000000157e-04,1.000000000000000048e-04,-5.000000000000000240e-05,5.000000000000000000e+00,2.100000000000000000e+01
4.349500000000000000e+04,6.999999999999999387e-05,9.000000000000000567e-05,5.000000000000000240e-05,4.000000000000000327e-05,4.000000000000000327e-05,1.300000000000000157e-04,1.000000000000000048e-04,-5.000000000000000240e-05,5.000000000000000000e+00,2.100000000000000000e+01
4.349600000000000000e+04,6.999999999999999387e-05,9.000000000000000567e-05,5.000000000000000240e-05,4.000000000000000327e-05,4.000000000000000327e-05,1.300000000000000157e-04,1.000000000000000048e-04,-5.000000000000000240e-05,5.000000000000000000e+00,2.100000000000000000e+01
4.349700000000000000e+04,6.999999999999999387e-05,9.000000000000000567e-05,5.000000000000000240e-05,4.000000000000000327e-05,4.000000000000000327e-05,1.300000000000000157e-04,1.000000000000000048e-04,-5.000000000000000240e-05,5.000000000000000000e+00,2.100000000000000000e+01
4.349800000000000000e+04,2.999999999999999737e-05,4.000000000000000327e-05,-8.000000000000000654e-05,1.300000000000000157e-04,4.499999999999999877e-04,4.400000000000000157e-04,1.000000000000000082e-05,0.000000000000000000e+00,5.000000000000000000e+00,2.100000000000000000e+01
4.349900000000000000e+04,2.999999999999999737e-05,4.000000000000000327e-05,-8.000000000000000654e-05,1.300000000000000157e-04,4.499999999999999877e-04,4.400000000000000157e-04,1.000000000000000082e-05,0.000000000000000000e+00,5.000000000000000000e+00,2.100000000000000000e+01
4.350000000000000000e+04,2.999999999999999737e-05,4.000000000000000327e-05,-8.000000000000000654e-05,1.300000000000000157e-04,4.499999999999999877e-04,4.400000000000000157e-04,1.000000000000000082e-05,0.000000000000000000e+00,5.000000000000000000e+00,2.100000000000000000e+01
4.350100000000000000e+04,2.999999999999999737e-05,4.000000000000000327e-05,-8.000000000000000654e-05,1.300000000000000157e-04,4.499999999999999877e-04,4.400000000000000157e-04,1.000000000000000082e-05,0.000000000000000000e+00,5.000000000000000000e+00,2.100000000000000000e+01
4.350200000000000000e+04,2.999999999999999737e-05,4.000000000000000327e-05,-8.000000000000000654e-05,1.300000000000000157e-04,4.499999999999999877e-04,4.400000000000000157e-04,1.000000000000000082e-05,0.000000000000000000e+00,5.000000000000000000e+00,2.100000000000000000e+01
4.350300000000000000e+04,2.999999999999999737e-05,4.000000000000000327e-05,-8.000000000000000654e-05,1.300000000000000157e-04,4.499999999999999877e-04,4.400000000000000157e-04,1.000000000000000082e-05,0.000000000000000000e+00,5.000000000000000000e+00,2.100000000000000000e+01
4.350400000000000000e+04,2.999999999999999737e-05,4.000000000000000327e-05,-8.000000000000000654e-05,1.300000000000000157e-04,4.499999999999999877e-04,4.400000000000000157e-04,1.000000000000000082e-05,0.000000000000000000e+00,5.000000000000000000e+00,2.100000000000000000e+01
4.350500000000000000e+04,9.000000000000000567e-05,-6.999999999999999387e-05,-1.000000000000000048e-04,2.000000000000000164e-05,2.000000000000000164e-05,-1.199999999999999895e-04,-8.000000000000000654e-05,-5.999999999999999474e-05,5.000000000000000000e+00,2.100000000000000000e+01
4.350600000000000000e+04,9.000000000000000567e-05,-6.999999999999999387e-05,-1.000000000000000048e-04,2.000000000000000164e-05,2.000000000000000164e-05,-1.199999999999999895e-04,-8.000000000000000654e-05,-5.999999999999999474e-05,5.000000000000000000e+00,2.100000000000000000e+01
4.350700000000000000e+04,9.000000000000000567e-05,-6.999999999999999387e-05,-1.000000000000000048e-04,2.000000000000000164e-05,2.000000000000000164e-05,-1.199999999999999895e-04,-8.000000000000000654e-05,-5.999999999999999474e-05,5.000000000000000000e+00,2.100000000000000000e+01
4.350800000000000000e+04,9.000000000000000567e-05,-6.999999999999999387e-05,-1.000000000000000048e-04,2.000000000000000164e-05,2.000000000000000164e-05,-1.199999999999999895e-04,-8.000000000000000654e-05,-5.999999999999999474e-05,5.000000000000000000e+00,2.100000000000000000e+01
4.350900000000000000e+04,9.000000000000000567e-05,-6.999999999999999387e-05,-1.000000000000000048e-04,2.000000000000000164e-05,2.000000000000000164e-05,-1.199999999999999895e-04,-8.000000000000000654e-05,-5.999999999999999474e-05,5.000000000000000000e+00,2.100000000000000000e+01
4.351000000000000000e+04,9.000000000000000567e-05,-6.999999999999999387e-05,-1.000000000000000048e-04,2.000000000000000164e-05,2.000000000000000164e-05,-1.199999999999999895e-04,-8.000000000000000654e-05,-5.999999999999999474e-05,5.000000000000000000e+00,2.100000000000000000e+01
4.351100000000000000e+04,9.000000000000000567e-05,-6.999999999999999387e-05,-1.000000000000000048e-04,2.000000000000000164e-05,2.000000000000000164e-05,-1.199999999999999895e-04,-8.000000000000000654e-05,-5.999999999999999474e-05,5.000000000000000000e+00,2.100000000000000000e+01
4.351200000000000000e+04,9.000000000000000567e-05,-6.999999999999999387e-05,-1.000000000000000048e-04,2.000000000000000164e-05,2.000000000000000164e-05,-1.199999999999999895e-04,-8.000000000000000654e-05,-5.999999999999999474e-05,5.000000000000000000e+00,2.100000000000000000e+01
4.351300000000000000e+04,9.000000000000000567e-05,-6.999999999999999387e-05,-1.000000000000000048e-04,2.000000000000000164e-05,2.000000000000000164e-05,-1.199999999999999895e-04,-8.000000000000000654e-05,-5.999999999999999474e-05,5.000000000000000000e+00,2.100000000000000000e+01
4.351400000000000000e+04,9.000000000000000567e-05,-6.999999999999999387e-05,-1.000000000000000048e-04,2.000000000000000164e-05,2.000000000000000164e-05,-1.199999999999999895e-04,-8.000000000000000654e-05,-5.999999999999999474e-05,5.000000000000000000e+00,2.100000000000000000e+01
4.351500000000000000e+04,9.000000000000000567e-05,-6.999999999999999387e-05,-1.000000000000000048e-04,2.000000000000000164e-05,2.000000000000000164e-05,-1.199999999999999895e-04,-8.000000000000000654e-05,-5.999999999999999474e-05,5.000000000000000000e+00,2.100000000000000000e+01
4.351600000000000000e+04,9.000000000000000567e-05,-6.999999999999999387e-05,-1.000000000000000048e-04,2.000000000000000164e-05,2.000000000000000164e-05,-1.199999999999999895e-04,-8.000000000000000654e-05,-5.999999999999999474e-05,5.000000000000000000e+00,2.100000000000000000e+01
4.351700000000000000e+04,9.000000000000000567e-05,-6.999999999999999387e-05,-1.000000000000000048e-04,2.000000000000000164e-05,2.000000000000000164e-05,-1.199999999999999895e-04,-8.000000000000000654e-05,-5.999999999999999474e-05,5.000000000000000000e+00,2.100000000000000000e+01
4.351800000000000000e+04,9.000000000000000567e-05,-6.999999999999999387e-05,-1.000000000000000048e-04,2.000000000000000164e-05,2.000000000000000164e-05,-1.199999999999999895e-04,-8.000000000000000654e-05,-5.999999999999999474e-05,5.000000000000000000e+00,2.100000000000000000e+01
4.351900000000000000e+04,9.000000000000000567e-05,-6.999999999999999387e-05,-1.000000000000000048e-04,2.000000000000000164e-05,2.000000000000000164e-05,-1.199999999999999895e-04,-8.000000000000000654e-05,-5.999999999999999474e-05,5.000000000000000000e+00,2.100000000000000000e+01
4.352000000000000000e+04,2.000000000000000164e-05,2.999999999999999737e-05,5.999999999999999474e-05,5.000000000000000240e-05,8.000000000000000654e-05,-1.100000000000000039e-04,-1.399999999999999877e-04,0.000000000000000000e+00,5.000000000000000000e+00,2.100000000000000000e+01
4.352100000000000000e+04,2.999999999999999737e-05,-6.999999999999999387e-05,-1.300000000000000157e-04,-8.000000000000000654e-05,-3.600000000000000227e-04,-5.999999999999999474e-05,-4.000000000000000327e-05,-2.000000000000000164e-05,5.000000000000000000e+00,2.100000000000000000e+01
4.352200000000000000e+04,2.999999999999999737e-05,-6.999999999999999387e-05,-1.300000000000000157e-04,-8.000000000000000654e-05,-3.600000000000000227e-04,-5.999999999999999474e-05,-4.000000000000000327e-05,-2.000000000000000164e-05,5.000000000000000000e+00,2.100000000000000000e+01
4.352300000000000000e+04,2.999999999999999737e-05,-6.999999999999999387e-05,-1.300000000000000157e-04,-8.000000000000000654e-05,-3.600000000000000227e-04,-5.999999999999999474e-05,-4.000000000000000327e-05,-2.000000000000000164e-05,5.000000000000000000e+00,2.100000000000000000e+01
4.352400000000000000e+04,2.999999999999999737e-05,-6.999999999999999387e-05,-1.300000000000000157e-04,-8.000000000000000654e-05,-3.600000000000000227e-04,-5.999999999999999474e-05,-4.000000000000000327e-05,-2.000000000000000164e-05,5.000000000000000000e+00,2.100000000000000000e+01
4.352500000000000000e+04,2.999999999999999737e-05,-6.999999999999999387e-05,-1.300000000000000157e-04,-8.000000000000000654e-05,-3.600000000000000227e-04,-5.999999999999999474e-05,-4.000000000000000327e-05,-2.000000000000000164e-05,5.000000000000000000e+00,2.100000000000000000e+01
4.352600000000000000e+04,2.999999999999999737e-05,-6.999999999999999387e-05,-1.300000000000000157e-04,-8.000000000000000654e-05,-3.600000000000000227e-04,-5.999999999999999474e-05,-4.000000000000000327e-05,-2.000000000000000164e-05,5.000000000000000000e+00,2.100000000000000000e+01
4.352700000000000000e+04,2.999999999999999737e-05,-6.999999999999999387e-05,-1.300000000000000157e-04,-8.000000000000000654e-05,-3.600000000000000227e-04,-5.999999999999999474e-05,-4.000000000000000327e-05,-2.000000000000000164e-05,5.000000000000000000e+00,2.100000000000000000e+01
4.352800000000000000e+04,2.999999999999999737e-05,-6.999999999999999387e-05,-1.300000000000000157e-04,-8.000000000000000654e-05,-3.600000000000000227e-04,-5.999999999999999474e-05,-4.000000000000000327e-05,-2.000000000000000164e-05,5.000000000000000000e+00,2.100000000000000000e+01
4.352900000000000000e+04,2.999999999999999737e-05,-6.999999999999999387e-05,-1.300000000000000157e-04,-8.000000000000000654e-05,-3.600000000000000227e-04,-5.999999999999999474e-05,-4.000000000000000327e-05,-2.000000000000000164e-05,5.000000000000000000e+00,2.100000000000000000e+01
4.353000000000000000e+04,2.999999999999999737e-05,-6.999999999999999387e-05,-1.300000000000000157e-04,-8.000000000000000654e-05,-3.600000000000000227e-04,-5.999999999999999474e-05,-4.000000000000000327e-05,-2.000000000000000164e-05,5.000000000000000000e+00,2.100000000000000000e+01
4.353100000000000000e+04,2.999999999999999737e-05,-6.999999999999999387e-05,-1.300000000000000157e-04,-8.000000000000000654e-05,-3.600000000000000227e-04,-5.999999999999999474e-05,-4.000000000000000327e-05,-2.000000000000000164e-05,5.000000000000000000e+00,2.100000000000000000e+01
4.353200000000000000e+04,2.999999999999999737e-05,-6.999999999999999387e-05,-1.300000000000000157e-04,-8.000000000000000654e-05,-3.600000000000000227e-04,-5.999999999999999474e-05,-4.000000000000000327e-05,-2.000000000000000164e-05,5.000000000000000000e+00,2.100000000000000000e+01
4.353300000000000000e+04,2.999999999999999737e-05,-6.999999999999999387e-05,-1.300000000000000157e-04,-8.000000000000000654e-05,-3.600000000000000227e-04,-5.999999999999999474e-05,-4.000000000000000327e-05,-2.000000000000000164e-05,5.000000000000000000e+00,2.100000000000000000e+01
4.353400000000000000e+04,1.000000000000000082e-05,-1.000000000000000082e-05,1.499999999999999869e-04,1.000000000000000082e-05,-3.200000000000000262e-04,-6.999999999999999387e-05,-1.000000000000000082e-05,-5.999999999999999474e-05,5.000000000000000000e+00,2.100000000000000000e+01
4.353500000000000000e+04,1.000000000000000082e-05,-1.000000000000000082e-05,1.499999999999999869e-04,1.000000000000000082e-05,-3.200000000000000262e-04,-6.999999999999999387e-05,-1.000000000000000082e-05,-5.999999999999999474e-05,5.000000000000000000e+00,2.100000000000000000e+01
4.353600000000000000e+04,1.000000000000000082e-05,-1.000000000000000082e-05,1.499999999999999869e-04,1.000000000000000082e-05,-3.200000000000000262e-04,-6.999999999999999387e-05,-1.000000000000000082e-05,-5.999999999999999474e-05,5.000000000000000000e+00,2.100000000000000000e+01
4.353800000000000000e+04,1.000000000000000082e-05,-1.000000000000000082e-05,1.499999999999999869e-04,1.000000000000000082e-05,-3.200000000000000262e-04,-6.999999999999999387e-05,-1.000000000000000082e-05,-5.999999999999999474e-05,5.000000000000000000e+00,2.100000000000000000e+01
4.353900000000000000e+04,1.000000000000000082e-05,-1.000000000000000082e-05,1.499999999999999869e-04,1.000000000000000082e-05,-3.200000000000000262e-04,-6.999999999999999387e-05,-1.000000000000000082e-05,-5.999999999999999474e-05,5.000000000000000000e+00,2.100000000000000000e+01
4.354000000000000000e+04,1.000000000000000082e-05,-1.000000000000000082e-05,1.499999999999999869e-04,1.000000000000000082e-05,-3.200000000000000262e-04,-6.999999999999999387e-05,-1.000000000000000082e-05,-5.999999999999999474e-05,5.000000000000000000e+00,2.100000000000000000e+01
4.354100000000000000e+04,0.000000000000000000e+00,2.000000000000000164e-05,-1.300000000000000157e-04,8.000000000000000654e-05,1.000000000000000082e-05,-5.000000000000000240e-05,8.000000000000000654e-05,2.000000000000000164e-05,5.000000000000000000e+00,2.100000000000000000e+01
4.354200000000000000e+04,0.000000000000000000e+00,2.000000000000000164e-05,-1.300000000000000157e-04,8.000000000000000654e-05,1.000000000000000082e-05,-5.000000000000000240e-05,8.000000000000000654e-05,2.000000000000000164e-05,5.000000000000000000e+00,2.100000000000000000e+01
4.354300000000000000e+04,0.000000000000000000e+00,2.000000000000000164e-05,-1.300000000000000157e-04,8.000000000000000654e-05,1.000000000000000082e-05,-5.000000000000000240e-05,8.000000000000000654e-05,2.000000000000000164e-05,5.000000000000000000e+00,2.100000000000000000e+01
4.354400000000000000e+04,0.000000000000000000e+00,2.000000000000000164e-05,-1.300000000000000157e-04,8.000000000000000654e-05,1.000000000000000082e-05,-5.000000000000000240e-05,8.000000000000000654e-05,2.000000000000000164e-05,5.000000000000000000e+00,2.100000000000000000e+01
4.354500000000000000e+04,0.000000000000000000e+00,2.000000000000000164e-05,-1.300000000000000157e-04,8.000000000000000654e-05,1.000000000000000082e-05,-5.000000000000000240e-05,8.000000000000000654e-05,2.000000000000000164e-05,5.000000000000000000e+00,2.100000000000000000e+01
4.354600000000000000e+04,0.000000000000000000e+00,2.000000000000000164e-05,-1.300000000000000157e-04,8.000000000000000654e-05,1.000000000000000082e-05,-5.000000000000000240e-05,8.000000000000000654e-05,2.000000000000000164e-05,5.000000000000000000e+00,2.100000000000000000e+01
4.354700000000000000e+04,0.000000000000000000e+00,2.000000000000000164e-05,-1.300000000000000157e-04,8.000000000000000654e-05,1.000000000000000082e-05,-5.000000000000000240e-05,8.000000000000000654e-05,2.000000000000000164e-05,5.000000000000000000e+00,2.100000000000000000e+01
4.354800000000000000e+04,0.000000000000000000e+00,2.000000000000000164e-05,-1.300000000000000157e-04,8.000000000000000654e-05,1.000000000000000082e-05,-5.000000000000000240e-05,8.000000000000000654e-05,2.000000000000000164e-05,5.000000000000000000e+00,2.100000000000000000e+01
4.354900000000000000e+04,0.000000000000000000e+00,2.000000000000000164e-05,-1.300000000000000157e-04,8.000000000000000654e-05,1.000000000000000082e-05,-5.000000000000000240e-05,8.000000000000000654e-05,2.000000000000000164e-05,5.000000000000000000e+00,2.100000000000000000e+01
4.355000000000000000e+04,0.000000000000000000e+00,2.000000000000000164e-05,-1.300000000000000157e-04,8.000000000000000654e-05,1.000000000000000082e-05,-5.000000000000000240e-05,8.000000000000000654e-05,2.000000000000000164e-05,5.000000000000000000e+00,2.100000000000000000e+01
4.355100000000000000e+04,0.000000000000000000e+00,2.000000000000000164e-05,-1.300000000000000157e-04,8.000000000000000654e-05,1.000000000000000082e-05,-5.000000000000000240e-05,8.000000000000000654e-05,2.000000000000000164e-05,5.000000000000000000e+00,2.100000000000000000e+01
4.355200000000000000e+04,0.000000000000000000e+00,2.000000000000000164e-05,-1.300000000000000157e-04,8.000000000000000654e-05,1.000000000000000082e-05,-5.000000000000000240e-05,8.000000000000000654e-05,2.000000000000000164e-05,5.000000000000000000e+00,2.100000000000000000e+01
4.355300000000000000e+04,0.000000000000000000e+00,2.000000000000000164e-05,-1.300000000000000157e-04,8.000000000000000654e-05,1.000000000000000082e-05,-5.000000000000000240e-05,8.000000000000000654e-05,2.000000000000000164e-05,5.000000000000000000e+00,2.100000000000000000e+01
4.355400000000000000e+04,0.000000000000000000e+00,2.000000000000000164e-05,-1.300000000000000157e-04,8.000000000000000654e-05,1.000000000000000082e-05,-5.000000000000000240e-05,8.000000000000000654e-05,2.000000000000000164e-05,5.000000000000000000e+00,2.100000000000000000e+01
4.355500000000000000e+04,0.000000000000000000e+00,2.000000000000000164e-05,-1.300000000000000157e-04,8.000000000000000654e-05,1.000000000000000082e-05,-5.000000000000000240e-05,8.000000000000000654e-05,2.000000000000000164e-05,5.000000000000000000e+00,2.100000000000000000e+01
4.355600000000000000e+04,0.000000000000000000e+00,2.000000000000000164e-05,-1.300000000000000157e-04,8.000000000000000654e-05,1.000000000000000082e-05,-5.000000000000000240e-05,8.000000000000000654e-05,2.000000000000000164e-05,5.000000000000000000e+00,2.100000000000000000e+01
4.355700000000000000e+04,-4.000000000000000327e-05,2.999999999999999737e-05,2.000000000000000164e-05,1.000000000000000082e-05,-1.000000000000000082e-05,-1.399999999999999877e-04,-1.199999999999999895e-04,-5.999999999999999474e-05,5.000000000000000000e+00,2.100000000000000000e+01
4.355800000000000000e+04,-4.000000000000000327e-05,2.999999999999999737e-05,2.000000000000000164e-05,1.000000000000000082e-05,-1.000000000000000082e-05,-1.399999999999999877e-04,-1.199999999999999895e-04,-5.999999999999999474e-05,5.000000000000000000e+00,2.100000000000000000e+01
4.355900000000000000e+04,9.000000000000000567e-05,-1.800000000000000113e-04,1.600000000000000131e-04,1.699999999999999851e-04,8.900000000000000576e-04,9.000000000000000567e-05,2.999999999999999737e-05,4.000000000000000327e-05,5.000000000000000000e+00,2.100000000000000000e+01
4.356000000000000000e+04,9.000000000000000567e-05,-1.800000000000000113e-04,1.600000000000000131e-04,1.699999999999999851e-04,8.900000000000000576e-04,9.000000000000000567e-05,2.999999999999999737e-05,4.000000000000000327e-05,5.000000000000000000e+00,2.100000000000000000e+01
4.356100000000000000e+04,9.000000000000000567e-05,-1.800000000000000113e-04,1.600000000000000131e-04,1.699999999999999851e-04,8.900000000000000576e-04,9.000000000000000567e-05,2.999999999999999737e-05,4.000000000000000327e-05,5.000000000000000000e+00,2.100000000000000000e+01
4.356200000000000000e+04,9.000000000000000567e-05,-1.800000000000000113e-04,1.600000000000000131e-04,1.699999999999999851e-04,8.900000000000000576e-04,9.000000000000000567e-05,2.999999999999999737e-05,4.000000000000000327e-05,5.000000000000000000e+00,2.100000000000000000e+01
4.356300000000000000e+04,9.000000000000000567e-05,-1.800000000000000113e-04,1.600000000000000131e-04,1.699999999999999851e-04,8.900000000000000576e-04,9.000000000000000567e-05,2.999999999999999737e-05,4.000000000000000327e-05,5.000000000000000000e+00,2.100000000000000000e+01
4.356400000000000000e+04,9.000000000000000567e-05,-1.800000000000000113e-04,1.600000000000000131e-04,1.699999999999999851e-04,8.900000000000000576e-04,9.000000000000000567e-05,2.999999999999999737e-05,4.000000000000000327e-05,5.000000000000000000e+00,2.100000000000000000e+01
4.356500000000000000e+04,9.000000000000000567e-05,-1.800000000000000113e-04,1.600000000000000131e-04,1.699999999999999851e-04,8.900000000000000576e-04,9.000000000000000567e-05,2.999999999999999737e-05,4.000000000000000327e-05,5.000000000000000000e+00,2.100000000000000000e+01
4.356600000000000000e+04,9.000000000000000567e-05,-1.800000000000000113e-04,1.600000000000000131e-04,1.699999999999999851e-04,8.900000000000000576e-04,9.000000000000000567e-05,2.999999999999999737e-05,4.000000000000000327e-05,5.000000000000000000e+00,2.100000000000000000e+01
4.356700000000000000e+04,9.000000000000000567e-05,-1.800000000000000113e-04,1.600000000000000131e-04,1.699999999999999851e-04,8.900000000000000576e-04,9.000000000000000567e-05,2.999999999999999737e-05,4.000000000000000327e-05,5.000000000000000000e+00,2.100000000000000000e+01
4.356800000000000000e+04,9.000000000000000567e-05,-1.800000000000000113e-04,1.600000000000000131e-04,1.699999999999999851e-04,8.900000000000000576e-04,9.000000000000000567e-05,2.999999999999999737e-05,4.000000000000000327e-05,5.000000000000000000e+00,2.100000000000000000e+01
4.356900000000000000e+04,9.000000000000000567e-05,-1.800000000000000113e-04,1.600000000000000131e-04,1.699999999999999851e-04,8.900000000000000576e-04,9.000000000000000567e-05,2.999999999999999737e-05,4.000000000000000327e-05,5.000000000000000000e+00,2.100000000000000000e+01
4.357000000000000000e+04,9.000000000000000567e-05,-1.800000000000000113e-04,1.600000000000000131e-04,1.699999999999999851e-04,8.900000000000000576e-04,9.000000000000000567e-05,2.999999999999999737e-05,4.000000000000000327e-05,5.000000000000000000e+00,2.100000000000000000e+01
4.357100000000000000e+04,9.000000000000000567e-05,-1.800000000000000113e-04,1.600000000000000131e-04,1.699999999999999851e-04,8.900000000000000576e-04,9.000000000000000567e-05,2.999999999999999737e-05,4.000000000000000327e-05,5.000000000000000000e+00,2.100000000000000000e+01
4.357200000000000000e+04,9.000000000000000567e-05,-1.800000000000000113e-04,1.600000000000000131e-04,1.699999999999999851e-04,8.900000000000000576e-04,9.000000000000000567e-05,2.999999999999999737e-05,4.000000000000000327e-05,5.000000000000000000e+00,2.100000000000000000e+01
4.357300000000000000e+04,9.000000000000000567e-05,-1.800000000000000113e-04,1.600000000000000131e-04,1.699999999999999851e-04,8.900000000000000576e-04,9.000000000000000567e-05,2.999999999999999737e-05,4.000000000000000327e-05,5.000000000000000000e+00,2.100000000000000000e+01
4.357400000000000000e+04,9.000000000000000567e-05,-1.800000000000000113e-04,1.600000000000000131e-04,1.699999999999999851e-04,8.900000000000000576e-04,9.000000000000000567e-05,2.999999999999999737e-05,4.000000000000000327e-05,5.000000000000000000e+00,2.100000000000000000e+01
4.357500000000000000e+04,9.000000000000000567e-05,-1.800000000000000113e-04,1.600000000000000131e-04,1.699999999999999851e-04,8.900000000000000576e-04,9.000000000000000567e-05,2.999999999999999737e-05,4.000000000000000327e-05,5.000000000000000000e+00,2.100000000000000000e+01
4.357600000000000000e+04,9.000000000000000567e-05,-1.800000000000000113e-04,1.600000000000000131e-04,1.699999999999999851e-04,8.900000000000000576e-04,9.000000000000000567e-05,2.999999999999999737e-05,4.000000000000000327e-05,5.000000000000000000e+00,2.100000000000000000e+01
4.357700000000000000e+04,9.000000000000000567e-05,-1.800000000000000113e-04,1.600000000000000131e-04,1.699999999999999851e-04,8.900000000000000576e-04,9.000000000000000567e-05,2.999999999999999737e-05,4.000000000000000327e-05,5.000000000000000000e+00,2.100000000000000000e+01
4.357800000000000000e+04,9.000000000000000567e-05,-1.800000000000000113e-04,1.600000000000000131e-04,1.699999999999999851e-04,8.900000000000000576e-04,9.000000000000000567e-05,2.999999999999999737e-05,4.000000000000000327e-05,5.000000000000000000e+00,2.100000000000000000e+01
4.357900000000000000e+04,1.399999999999999877e-04,1.899999999999999834e-04,-1.000000000000000048e-04,4.000000000000000327e-05,-3.099999999999999999e-04,1.399999999999999877e-04,1.300000000000000157e-04,0.000000000000000000e+00,5.000000000000000000e+00,2.100000000000000000e+01
4.358000000000000000e+04,-1.899999999999999834e-04,-2.100000000000000087e-04,-6.999999999999999387e-05,-1.899999999999999834e-04,-1.899999999999999834e-04,-1.399999999999999877e-04,-1.800000000000000113e-04,-2.999999999999999737e-05,5.000000000000000000e+00,2.100000000000000000e+01
4.358100000000000000e+04,-5.000000000000000240e-05,-5.000000000000000240e-05,6.999999999999999387e-05,1.000000000000000082e-05,4.000000000000000192e-04,3.399999999999999702e-04,2.600000000000000314e-04,2.000000000000000164e-05,5.000000000000000000e+00,2.100000000000000000e+01
4.358200000000000000e+04,-5.000000000000000240e-05,-5.000000000000000240e-05,6.999999999999999387e-05,1.000000000000000082e-05,4.000000000000000192e-04,3.399999999999999702e-04,2.600000000000000314e-04,2.000000000000000164e-05,5.000000000000000000e+00,2.100000000000000000e+01
4.358300000000000000e+04,-5.000000000000000240e-05,-5.000000000000000240e-05,6.999999999999999387e-05,1.000000000000000082e-05,4.000000000000000192e-04,3.399999999999999702e-04,2.600000000000000314e-04,2.000000000000000164e-05,5.000000000000000000e+00,2.100000000000000000e+01
4.358400000000000000e+04,-5.000000000000000240e-05,-5.000000000000000240e-05,6.999999999999999387e-05,1.000000000000000082e-05,4.000000000000000192e-04,3.399999999999999702e-04,2.600000000000000314e-04,2.000000000000000164e-05,5.000000000000000000e+00,2.100000000000000000e+01
4.358500000000000000e+04,-5.000000000000000240e-05,-5.000000000000000240e-05,6.999999999999999387e-05,1.000000000000000082e-05,4.000000000000000192e-04,3.399999999999999702e-04,2.600000000000000314e-04,2.000000000000000164e-05,5.000000000000000000e+00,2.100000000000000000e+01
4.358600000000000000e+04,-5.000000000000000240e-05,-5.000000000000000240e-05,6.999999999999999387e-05,1.000000000000000082e-05,4.000000000000000192e-04,3.399999999999999702e-04,2.600000000000000314e-04,2.000000000000000164e-05,5.000000000000000000e+00,2.100000000000000000e+01
4.358800000000000000e+04,-5.000000000000000240e-05,-5.000000000000000240e-05,6.999999999999999387e-05,1.000000000000000082e-05,4.000000000000000192e-04,3.399999999999999702e-04,2.600000000000000314e-04,2.000000000000000164e-05,5.000000000000000000e+00,2.100000000000000000e+01
4.358900000000000000e+04,-5.000000000000000240e-05,-5.000000000000000240e-05,6.999999999999999387e-05,1.000000000000000082e-05,4.000000000000000192e-04,3.399999999999999702e-04,2.600000000000000314e-04,2.000000000000000164e-05,5.000000000000000000e+00,2.100000000000000000e+01
4.359000000000000000e+04,-5.000000000000000240e-05,-5.000000000000000240e-05,6.999999999999999387e-05,1.000000000000000082e-05,4.000000000000000192e-04,3.399999999999999702e-04,2.600000000000000314e-04,2.000000000000000164e-05,5.000000000000000000e+00,2.100000000000000000e+01
4.359100000000000000e+04,-5.000000000000000240e-05,-5.000000000000000240e-05,6.999999999999999387e-05,1.000000000000000082e-05,4.000000000000000192e-04,3.399999999999999702e-04,2.600000000000000314e-04,2.000000000000000164e-05,5.000000000000000000e+00,2.100000000000000000e+01
4.359200000000000000e+04,-5.000000000000000240e-05,-5.000000000000000240e-05,6.999999999999999387e-05,1.000000000000000082e-05,4.000000000000000192e-04,3.399999999999999702e-04,2.600000000000000314e-04,2.000000000000000164e-05,5.000000000000000000e+00,2.100000000000000000e+01
4.359300000000000000e+04,-5.000000000000000240e-05,-5.000000000000000240e-05,6.999999999999999387e-05,1.000000000000000082e-05,4.000000000000000192e-04,3.399999999999999702e-04,2.600000000000000314e-04,2.000000000000000164e-05,5.000000000000000000e+00,2.100000000000000000e+01
4.359500000000000000e+04,-5.000000000000000240e-05,-5.000000000000000240e-05,6.999999999999999387e-05,1.000000000000000082e-05,4.000000000000000192e-04,3.399999999999999702e-04,2.600000000000000314e-04,2.000000000000000164e-05,5.000000000000000000e+00,2.100000000000000000e+01
4.359600000000000000e+04,-5.000000000000000240e-05,-5.000000000000000240e-05,6.999999999999999387e-05,1.000000000000000082e-05,4.000000000000000192e-04,3.399999999999999702e-04,2.600000000000000314e-04,2.000000000000000164e-05,5.000000000000000000e+00,2.100000000000000000e+01
4.359700000000000000e+04,-5.000000000000000240e-05,-5.000000000000000240e-05,6.999999999999999387e-05,1.000000000000000082e-05,4.000000000000000192e-04,3.399999999999999702e-04,2.600000000000000314e-04,2.000000000000000164e-05,5.000000000000000000e+00,2.100000000000000000e+01
4.359800000000000000e+04,-5.000000000000000240e-05,-5.000000000000000240e-05,6.999999999999999387e-05,1.000000000000000082e-05,4.000000000000000192e-04,3.399999999999999702e-04,2.600000000000000314e-04,2.000000000000000164e-05,5.000000000000000000e+00,2.100000000000000000e+01
4.359900000000000000e+04,-5.000000000000000240e-05,-5.000000000000000240e-05,6.999999999999999387e-05,1.000000000000000082e-05,4.000000000000000192e-04,3.399999999999999702e-04,2.600000000000000314e-04,2.000000000000000164e-05,5.000000000000000000e+00,2.100000000000000000e+01
4.360000000000000000e+04,-5.000000000000000240e-05,-5.000000000000000240e-05,6.999999999999999387e-05,1.000000000000000082e-05,4.000000000000000192e-04,3.399999999999999702e-04,2.600000000000000314e-04,2.000000000000000164e-05,5.000000000000000000e+00,2.100000000000000000e+01
4.360100000000000000e+04,-5.000000000000000240e-05,-5.000000000000000240e-05,6.999999999999999387e-05,1.000000000000000082e-05,4.000000000000000192e-04,3.399999999999999702e-04,2.600000000000000314e-04,2.000000000000000164e-05,5.000000000000000000e+00,2.100000000000000000e+01
4.360200000000000000e+04,0.000000000000000000e+00,2.999999999999999737e-05,-6.999999999999999387e-05,-6.999999999999999387e-05,4.000000000000000327e-05,-4.000000000000000327e-05,8.000000000000000654e-05,4.000000000000000327e-05,5.000000000000000000e+00,2.100000000000000000e+01
4.360300000000000000e+04,0.000000000000000000e+00,2.999999999999999737e-05,-6.999999999999999387e-05,-6.999999999999999387e-05,4.000000000000000327e-05,-4.000000000000000327e-05,8.000000000000000654e-05,4.000000000000000327e-05,5.000000000000000000e+00,2.100000000000000000e+01
4.360400000000000000e+04,0.000000000000000000e+00,2.999999999999999737e-05,-6.999999999999999387e-05,-6.999999999999999387e-05,4.000000000000000327e-05,-4.000000000000000327e-05,8.000000000000000654e-05,4.000000000000000327e-05,5.000000000000000000e+00,2.100000000000000000e+01
4.360500000000000000e+04,0.000000000000000000e+00,2.999999999999999737e-05,-6.999999999999999387e-05,-6.999999999999999387e-05,4.000000000000000327e-05,-4.000000000000000327e-05,8.000000000000000654e-05,4.000000000000000327e-05,5.000000000000000000e+00,2.100000000000000000e+01
4.360600000000000000e+04,0.000000000000000000e+00,2.999999999999999737e-05,-6.999999999999999387e-05,-6.999999999999999387e-05,4.000000000000000327e-05,-4.000000000000000327e-05,8.000000000000000654e-05,4.000000000000000327e-05,5.000000000000000000e+00,2.100000000000000000e+01
4.360700000000000000e+04,0.000000000000000000e+00,2.999999999999999737e-05,-6.999999999999999387e-05,-6.999999999999999387e-05,4.000000000000000327e-05,-4.000000000000000327e-05,8.000000000000000654e-05,4.000000000000000327e-05,5.000000000000000000e+00,2.100000000000000000e+01
4.360800000000000000e+04,-1.300000000000000157e-04,-1.600000000000000131e-04,-1.699999999999999851e-04,-1.100000000000000039e-04,-3.099999999999999999e-04,-1.300000000000000157e-04,-4.000000000000000327e-05,-1.699999999999999851e-04,5.000000000000000000e+00,2.100000000000000000e+01
4.360900000000000000e+04,-1.300000000000000157e-04,-1.600000000000000131e-04,-1.699999999999999851e-04,-1.100000000000000039e-04,-3.099999999999999999e-04,-1.300000000000000157e-04,-4.000000000000000327e-05,-1.699999999999999851e-04,5.000000000000000000e+00,2.100000000000000000e+01
4.361000000000000000e+04,-1.300000000000000157e-04,-1.600000000000000131e-04,-1.699999999999999851e-04,-1.100000000000000039e-04,-3.099999999999999999e-04,-1.300000000000000157e-04,-4.000000000000000327e-05,-1.699999999999999851e-04,5.000000000000000000e+00,2.100000000000000000e+01
4.361100000000000000e+04,-1.300000000000000157e-04,-1.600000000000000131e-04,-1.699999999999999851e-04,-1.100000000000000039e-04,-3.099999999999999999e-04,-1.300000000000000157e-04,-4.000000000000000327e-05,-1.699999999999999851e-04,5.000000000000000000e+00,2.100000000000000000e+01
4.361200000000000000e+04,-1.300000000000000157e-04,-1.600000000000000131e-04,-1.699999999999999851e-04,-1.100000000000000039e-04,-3.099999999999999999e-04,-1.300000000000000157e-04,-4.000000000000000327e-05,-1.699999999999999851e-04,5.000000000000000000e+00,2.100000000000000000e+01
4.361300000000000000e+04,-1.300000000000000157e-04,-1.600000000000000131e-04,-1.699999999999999851e-04,-1.100000000000000039e-04,-3.099999999999999999e-04,-1.300000000000000157e-04,-4.000000000000000327e-05,-1.699999999999999851e-04,5.000000000000000000e+00,2.100000000000000000e+01
4.361400000000000000e+04,-1.300000000000000157e-04,-1.600000000000000131e-04,-1.699999999999999851e-04,-1.100000000000000039e-04,-3.099999999999999999e-04,-1.300000000000000157e-04,-4.000000000000000327e-05,-1.699999999999999851e-04,5.000000000000000000e+00,2.100000000000000000e+01
4.361500000000000000e+04,-1.300000000000000157e-04,-1.600000000000000131e-04,-1.699999999999999851e-04,-1.100000000000000039e-04,-3.099999999999999999e-04,-1.300000000000000157e-04,-4.000000000000000327e-05,-1.699999999999999851e-04,5.000000000000000000e+00,2.100000000000000000e+01
4.361600000000000000e+04,-1.300000000000000157e-04,-1.600000000000000131e-04,-1.699999999999999851e-04,-1.100000000000000039e-04,-3.099999999999999999e-04,-1.300000000000000157e-04,-4.000000000000000327e-05,-1.699999999999999851e-04,5.000000000000000000e+00,2.100000000000000000e+01
4.361700000000000000e+04,1.100000000000000039e-04,1.600000000000000131e-04,1.000000000000000082e-05,-9.000000000000000567e-05,5.999999999999999474e-05,6.999999999999999387e-05,2.999999999999999737e-05,-1.499999999999999869e-04,5.000000000000000000e+00,2.100000000000000000e+01
4.361800000000000000e+04,-1.300000000000000157e-04,-1.100000000000000039e-04,-1.600000000000000131e-04,-2.000000000000000164e-05,8.000000000000000654e-05,-1.000000000000000082e-05,-9.000000000000000567e-05,-5.000000000000000240e-05,5.000000000000000000e+00,2.100000000000000000e+01
4.361900000000000000e+04,2.999999999999999737e-05,1.100000000000000039e-04,2.299999999999999799e-04,5.000000000000000240e-05,-1.300000000000000157e-04,1.000000000000000048e-04,-1.600000000000000131e-04,4.000000000000000327e-05,5.000000000000000000e+00,2.100000000000000000e+01
4.362000000000000000e+04,2.999999999999999737e-05,1.100000000000000039e-04,2.299999999999999799e-04,5.000000000000000240e-05,-1.300000000000000157e-04,1.000000000000000048e-04,-1.600000000000000131e-04,4.000000000000000327e-05,5.000000000000000000e+00,2.100000000000000000e+01
4.362100000000000000e+04,2.999999999999999737e-05,1.100000000000000039e-04,2.299999999999999799e-04,5.000000000000000240e-05,-1.300000000000000157e-04,1.000000000000000048e-04,-1.600000000000000131e-04,4.000000000000000327e-05,5.000000000000000000e+00,2.100000000000000000e+01
4.362200000000000000e+04,2.999999999999999737e-05,1.100000000000000039e-04,2.299999999999999799e-04,5.000000000000000240e-05,-1.300000000000000157e-04,1.000000000000000048e-04,-1.600000000000000131e-04,4.000000000000000327e-05,5.000000000000000000e+00,2.100000000000000000e+01
4.362300000000000000e+04,2.999999999999999737e-05,1.100000000000000039e-04,2.299999999999999799e-04,5.000000000000000240e-05,-1.300000000000000157e-04,1.000000000000000048e-04,-1.600000000000000131e-04,4.000000000000000327e-05,5.000000000000000000e+00,2.100000000000000000e+01
4.362400000000000000e+04,2.999999999999999737e-05,1.100000000000000039e-04,2.299999999999999799e-04,5.000000000000000240e-05,-1.300000000000000157e-04,1.000000000000000048e-04,-1.600000000000000131e-04,4.000000000000000327e-05,5.000000000000000000e+00,2.100000000000000000e+01
4.362500000000000000e+04,2.999999999999999737e-05,1.100000000000000039e-04,2.299999999999999799e-04,5.000000000000000240e-05,-1.300000000000000157e-04,1.000000000000000048e-04,-1.600000000000000131e-04,4.000000000000000327e-05,5.000000000000000000e+00,2.100000000000000000e+01
4.362600000000000000e+04,2.999999999999999737e-05,1.100000000000000039e-04,2.299999999999999799e-04,5.000000000000000240e-05,-1.300000000000000157e-04,1.000000000000000048e-04,-1.600000000000000131e-04,4.000000000000000327e-05,5.000000000000000000e+00,2.100000000000000000e+01
4.362700000000000000e+04,2.999999999999999737e-05,1.100000000000000039e-04,2.299999999999999799e-04,5.000000000000000240e-05,-1.300000000000000157e-04,1.000000000000000048e-04,-1.600000000000000131e-04,4.000000000000000327e-05,5.000000000000000000e+00,2.100000000000000000e+01
4.362800000000000000e+04,2.999999999999999737e-05,1.100000000000000039e-04,2.299999999999999799e-04,5.000000000000000240e-05,-1.300000000000000157e-04,1.000000000000000048e-04,-1.600000000000000131e-04,4.000000000000000327e-05,5.000000000000000000e+00,2.100000000000000000e+01
4.362900000000000000e+04,2.999999999999999737e-05,1.100000000000000039e-04,2.299999999999999799e-04,5.000000000000000240e-05,-1.300000000000000157e-04,1.000000000000000048e-04,-1.600000000000000131e-04,4.000000000000000327e-05,5.000000000000000000e+00,2.100000000000000000e+01
4.363000000000000000e+04,2.999999999999999737e-05,1.100000000000000039e-04,2.299999999999999799e-04,5.000000000000000240e-05,-1.300000000000000157e-04,1.000000000000000048e-04,-1.600000000000000131e-04,4.000000000000000327e-05,5.000000000000000000e+00,2.100000000000000000e+01
4.363100000000000000e+04,2.999999999999999737e-05,1.100000000000000039e-04,2.299999999999999799e-04,5.000000000000000240e-05,-1.300000000000000157e-04,1.000000000000000048e-04,-1.600000000000000131e-04,4.000000000000000327e-05,5.000000000000000000e+00,2.100000000000000000e+01
4.363200000000000000e+04,2.999999999999999737e-05,1.100000000000000039e-04,2.299999999999999799e-04,5.000000000000000240e-05,-1.300000000000000157e-04,1.000000000000000048e-04,-1.600000000000000131e-04,4.000000000000000327e-05,5.000000000000000000e+00,2.100000000000000000e+01
4.363300000000000000e+04,2.999999999999999737e-05,1.100000000000000039e-04,2.299999999999999799e-04,5.000000000000000240e-05,-1.300000000000000157e-04,1.000000000000000048e-04,-1.600000000000000131e-04,4.000000000000000327e-05,5.000000000000000000e+00,2.100000000000000000e+01
4.363400000000000000e+04,2.999999999999999737e-05,1.100000000000000039e-04,2.299999999999999799e-04,5.000000000000000240e-05,-1.300000000000000157e-04,1.000000000000000048e-04,-1.600000000000000131e-04,4.000000000000000327e-05,5.000000000000000000e+00,2.100000000000000000e+01
4.363500000000000000e+04,2.999999999999999737e-05,1.100000000000000039e-04,2.299999999999999799e-04,5.000000000000000240e-05,-1.300000000000000157e-04,1.000000000000000048e-04,-1.600000000000000131e-04,4.000000000000000327e-05,5.000000000000000000e+00,2.100000000000000000e+01
4.363600000000000000e+04,2.999999999999999737e-05,1.100000000000000039e-04,2.299999999999999799e-04,5.000000000000000240e-05,-1.300000000000000157e-04,1.000000000000000048e-04,-1.600000000000000131e-04,4.000000000000000327e-05,5.000000000000000000e+00,2.100000000000000000e+01
4.363800000000000000e+04,2.999999999999999737e-05,1.100000000000000039e-04,2.299999999999999799e-04,5.000000000000000240e-05,-1.300000000000000157e-04,1.000000000000000048e-04,-1.600000000000000131e-04,4.000000000000000327e-05,5.000000000000000000e+00,2.100000000000000000e+01
4.363900000000000000e+04,2.999999999999999737e-05,1.100000000000000039e-04,2.299999999999999799e-04,5.000000000000000240e-05,-1.300000000000000157e-04,1.000000000000000048e-04,-1.600000000000000131e-04,4.000000000000000327e-05,5.000000000000000000e+00,2.100000000000000000e+01
4.364000000000000000e+04,1.000000000000000082e-05,1.000000000000000082e-05,1.100000000000000039e-04,-1.499999999999999869e-04,-7.900000000000000121e-04,-3.899999999999999929e-04,-2.000000000000000164e-05,-5.000000000000000240e-05,5.000000000000000000e+00,2.100000000000000000e+01
4.364100000000000000e+04,0.000000000000000000e+00,-1.499999999999999869e-04,-2.999999999999999737e-05,-1.000000000000000082e-05,2.799999999999999755e-04,2.000000000000000096e-04,-9.000000000000000567e-05,1.000000000000000082e-05,5.000000000000000000e+00,2.100000000000000000e+01
4.364200000000000000e+04,0.000000000000000000e+00,-1.499999999999999869e-04,-2.999999999999999737e-05,-1.000000000000000082e-05,2.799999999999999755e-04,2.000000000000000096e-04,-9.000000000000000567e-05,1.000000000000000082e-05,5.000000000000000000e+00,2.100000000000000000e+01
4.364300000000000000e+04,0.000000000000000000e+00,-1.499999999999999869e-04,-2.999999999999999737e-05,-1.000000000000000082e-05,2.799999999999999755e-04,2.000000000000000096e-04,-9.000000000000000567e-05,1.000000000000000082e-05,5.000000000000000000e+00,2.100000000000000000e+01
4.364400000000000000e+04,0.000000000000000000e+00,-1.499999999999999869e-04,-2.999999999999999737e-05,-1.000000000000000082e-05,2.799999999999999755e-04,2.000000000000000096e-04,-9.000000000000000567e-05,1.000000000000000082e-05,5.000000000000000000e+00,2.100000000000000000e+01
4.364500000000000000e+04,0.000000000000000000e+00,-1.499999999999999869e-04,-2.999999999999999737e-05,-1.000000000000000082e-05,2.799999999999999755e-04,2.000000000000000096e-04,-9.000000000000000567e-05,1.000000000000000082e-05,5.000000000000000000e+00,2.100000000000000000e+01
4.364600000000000000e+04,0.000000000000000000e+00,-1.499999999999999869e-04,-2.999999999999999737e-05,-1.000000000000000082e-05,2.799999999999999755e-04,2.000000000000000096e-04,-9.000000000000000567e-05,1.000000000000000082e-05,5.000000000000000000e+00,2.100000000000000000e+01
4.364700000000000000e+04,0.000000000000000000e+00,-1.499999999999999869e-04,-2.999999999999999737e-05,-1.000000000000000082e-05,2.799999999999999755e-04,2.000000000000000096e-04,-9.000000000000000567e-05,1.000000000000000082e-05,5.000000000000000000e+00,2.100000000000000000e+01
4.364800000000000000e+04,0.000000000000000000e+00,-1.499999999999999869e-04,-2.999999999999999737e-05,-1.000000000000000082e-05,2.799999999999999755e-04,2.000000000000000096e-04,-9.000000000000000567e-05,1.000000000000000082e-05,5.000000000000000000e+00,2.100000000000000000e+01
4.364900000000000000e+04,0.000000000000000000e+00,-1.499999999999999869e-04,-2.999999999999999737e-05,-1.000000000000000082e-05,2.799999999999999755e-04,2.000000000000000096e-04,-9.000000000000000567e-05,1.000000000000000082e-05,5.000000000000000000e+00,2.100000000000000000e+01
4.365000000000000000e+04,0.000000000000000000e+00,-1.499999999999999869e-04,-2.999999999999999737e-05,-1.000000000000000082e-05,2.799999999999999755e-04,2.000000000000000096e-04,-9.000000000000000567e-05,1.000000000000000082e-05,5.000000000000000000e+00,2.100000000000000000e+01
4.365100000000000000e+04,0.000000000000000000e+00,-1.499999999999999869e-04,-2.999999999999999737e-05,-1.000000000000000082e-05,2.799999999999999755e-04,2.000000000000000096e-04,-9.000000000000000567e-05,1.000000000000000082e-05,5.000000000000000000e+00,2.100000000000000000e+01
4.365200000000000000e+04,0.000000000000000000e+00,-1.499999999999999869e-04,-2.999999999999999737e-05,-1.000000000000000082e-05,2.799999999999999755e-04,2.000000000000000096e-04,-9.000000000000000567e-05,1.000000000000000082e-05,5.000000000000000000e+00,2.100000000000000000e+01
4.365300000000000000e+04,9.000000000000000567e-05,5.999999999999999474e-05,-4.000000000000000327e-05,-5.999999999999999474e-05,4.299999999999999894e-04,-1.399999999999999877e-04,1.699999999999999851e-04,5.999999999999999474e-05,5.000000000000000000e+00,2.100000000000000000e+01
4.365400000000000000e+04,9.000000000000000567e-05,5.999999999999999474e-05,-4.000000000000000327e-05,-5.999999999999999474e-05,4.299999999999999894e-04,-1.399999999999999877e-04,1.699999999999999851e-04,5.999999999999999474e-05,5.000000000000000000e+00,2.100000000000000000e+01
4.365500000000000000e+04,9.000000000000000567e-05,5.999999999999999474e-05,-4.000000000000000327e-05,-5.999999999999999474e-05,4.299999999999999894e-04,-1.399999999999999877e-04,1.699999999999999851e-04,5.999999999999999474e-05,5.000000000000000000e+00,2.100000000000000000e+01
4.365600000000000000e+04,9.000000000000000567e-05,5.999999999999999474e-05,-4.000000000000000327e-05,-5.999999999999999474e-05,4.299999999999999894e-04,-1.399999999999999877e-04,1.699999999999999851e-04,5.999999999999999474e-05,5.000000000000000000e+00,2.100000000000000000e+01
4.365700000000000000e+04,9.000000000000000567e-05,5.999999999999999474e-05,-4.000000000000000327e-05,-5.999999999999999474e-05,4.299999999999999894e-04,-1.399999999999999877e-04,1.699999999999999851e-04,5.999999999999999474e-05,5.000000000000000000e+00,2.100000000000000000e+01
4.365800000000000000e+04,9.000000000000000567e-05,5.999999999999999474e-05,-4.000000000000000327e-05,-5.999999999999999474e-05,4.299999999999999894e-04,-1.399999999999999877e-04,1.699999999999999851e-04,5.999999999999999474e-05,5.000000000000000000e+00,2.100000000000000000e+01
4.365900000000000000e+04,9.000000000000000567e-05,5.999999999999999474e-05,-4.000000000000000327e-05,-5.999999999999999474e-05,4.299999999999999894e-04,-1.399999999999999877e-04,1.699999999999999851e-04,5.999999999999999474e-05,5.000000000000000000e+00,2.100000000000000000e+01
4.366000000000000000e+04,9.000000000000000567e-05,5.999999999999999474e-05,-4.000000000000000327e-05,-5.999999999999999474e-05,4.299999999999999894e-04,-1.399999999999999877e-04,1.699999999999999851e-04,5.999999999999999474e-05,5.000000000000000000e+00,2.100000000000000000e+01
4.366100000000000000e+04,-5.000000000000000240e-05,-8.000000000000000654e-05,1.000000000000000082e-05,5.000000000000000240e-05,-1.100000000000000039e-04,-1.499999999999999869e-04,-2.999999999999999737e-05,4.000000000000000327e-05,5.000000000000000000e+00,2.100000000000000000e+01
4.366200000000000000e+04,5.999999999999999474e-05,3.200000000000000262e-04,-1.300000000000000157e-04,6.999999999999999387e-05,1.899999999999999834e-04,5.000000000000000240e-05,-9.000000000000000567e-05,-1.000000000000000048e-04,5.000000000000000000e+00,2.100000000000000000e+01
4.366300000000000000e+04,5.999999999999999474e-05,3.200000000000000262e-04,-1.300000000000000157e-04,6.999999999999999387e-05,1.899999999999999834e-04,5.000000000000000240e-05,-9.000000000000000567e-05,-1.000000000000000048e-04,5.000000000000000000e+00,2.100000000000000000e+01
4.366400000000000000e+04,5.999999999999999474e-05,3.200000000000000262e-04,-1.300000000000000157e-04,6.999999999999999387e-05,1.899999999999999834e-04,5.000000000000000240e-05,-9.000000000000000567e-05,-1.000000000000000048e-04,5.000000000000000000e+00,2.100000000000000000e+01
4.366500000000000000e+04,5.999999999999999474e-05,3.200000000000000262e-04,-1.300000000000000157e-04,6.999999999999999387e-05,1.899999999999999834e-04,5.000000000000000240e-05,-9.000000000000000567e-05,-1.000000000000000048e-04,5.000000000000000000e+00,2.100000000000000000e+01
4.366600000000000000e+04,5.999999999999999474e-05,3.200000000000000262e-04,-1.300000000000000157e-04,6.999999999999999387e-05,1.899999999999999834e-04,5.000000000000000240e-05,-9.000000000000000567e-05,-1.000000000000000048e-04,5.000000000000000000e+00,2.100000000000000000e+01
4.366700000000000000e+04,5.999999999999999474e-05,3.200000000000000262e-04,-1.300000000000000157e-04,6.999999999999999387e-05,1.899999999999999834e-04,5.000000000000000240e-05,-9.000000000000000567e-05,-1.000000000000000048e-04,5.000000000000000000e+00,2.100000000000000000e+01
4.366800000000000000e+04,5.999999999999999474e-05,3.200000000000000262e-04,-1.300000000000000157e-04,6.999999999999999387e-05,1.899999999999999834e-04,5.000000000000000240e-05,-9.000000000000000567e-05,-1.000000000000000048e-04,5.000000000000000000e+00,2.100000000000000000e+01
4.366900000000000000e+04,5.999999999999999474e-05,3.200000000000000262e-04,-1.300000000000000157e-04,6.999999999999999387e-05,1.899999999999999834e-04,5.000000000000000240e-05,-9.000000000000000567e-05,-1.000000000000000048e-04,5.000000000000000000e+00,2.100000000000000000e+01
4.367000000000000000e+04,5.999999999999999474e-05,3.200000000000000262e-04,-1.300000000000000157e-04,6.999999999999999387e-05,1.899999999999999834e-04,5.000000000000000240e-05,-9.000000000000000567e-05,-1.000000000000000048e-04,5.000000000000000000e+00,2.100000000000000000e+01
4.367100000000000000e+04,5.999999999999999474e-05,3.200000000000000262e-04,-1.300000000000000157e-04,6.999999999999999387e-05,1.899999999999999834e-04,5.000000000000000240e-05,-9.000000000000000567e-05,-1.000000000000000048e-04,5.000000000000000000e+00,2.100000000000000000e+01
4.367200000000000000e+04,5.999999999999999474e-05,3.200000000000000262e-04,-1.300000000000000157e-04,6.999999999999999387e-05,1.899999999999999834e-04,5.000000000000000240e-05,-9.000000000000000567e-05,-1.000000000000000048e-04,5.000000000000000000e+00,2.100000000000000000e+01
4.367300000000000000e+04,5.999999999999999474e-05,3.200000000000000262e-04,-1.300000000000000157e-04,6.999999999999999387e-05,1.899999999999999834e-04,5.000000000000000240e-05,-9.000000000000000567e-05,-1.000000000000000048e-04,5.000000000000000000e+00,2.100000000000000000e+01
4.367400000000000000e+04,5.999999999999999474e-05,3.200000000000000262e-04,-1.300000000000000157e-04,6.999999999999999387e-05,1.899999999999999834e-04,5.000000000000000240e-05,-9.000000000000000567e-05,-1.000000000000000048e-04,5.000000000000000000e+00,2.100000000000000000e+01
4.367500000000000000e+04,5.999999999999999474e-05,3.200000000000000262e-04,-1.300000000000000157e-04,6.999999999999999387e-05,1.899999999999999834e-04,5.000000000000000240e-05,-9.000000000000000567e-05,-1.000000000000000048e-04,5.000000000000000000e+00,2.100000000000000000e+01
4.367600000000000000e+04,5.999999999999999474e-05,3.200000000000000262e-04,-1.300000000000000157e-04,6.999999999999999387e-05,1.899999999999999834e-04,5.000000000000000240e-05,-9.000000000000000567e-05,-1.000000000000000048e-04,5.000000000000000000e+00,2.100000000000000000e+01
4.367700000000000000e+04,-1.100000000000000039e-04,-2.900000000000000017e-04,-2.299999999999999799e-04,-1.100000000000000039e-04,1.000000000000000082e-05,3.099999999999999999e-04,1.399999999999999877e-04,-1.000000000000000082e-05,5.000000000000000000e+00,2.100000000000000000e+01
4.367800000000000000e+04,-1.100000000000000039e-04,-2.900000000000000017e-04,-2.299999999999999799e-04,-1.100000000000000039e-04,1.000000000000000082e-05,3.099999999999999999e-04,1.399999999999999877e-04,-1.000000000000000082e-05,5.000000000000000000e+00,2.100000000000000000e+01
4.367900000000000000e+04,2.000000000000000164e-05,1.399999999999999877e-04,-2.000000000000000164e-05,5.999999999999999474e-05,2.900000000000000017e-04,-2.200000000000000078e-04,4.000000000000000327e-05,-1.000000000000000082e-05,5.000000000000000000e+00,2.100000000000000000e+01
4.368000000000000000e+04,2.000000000000000164e-05,1.399999999999999877e-04,-2.000000000000000164e-05,5.999999999999999474e-05,2.900000000000000017e-04,-2.200000000000000078e-04,4.000000000000000327e-05,-1.000000000000000082e-05,5.000000000000000000e+00,2.100000000000000000e+01
4.368100000000000000e+04,2.000000000000000164e-05,1.399999999999999877e-04,-2.000000000000000164e-05,5.999999999999999474e-05,2.900000000000000017e-04,-2.200000000000000078e-04,4.000000000000000327e-05,-1.000000000000000082e-05,5.000000000000000000e+00,2.100000000000000000e+01
4.368200000000000000e+04,2.000000000000000164e-05,1.399999999999999877e-04,-2.000000000000000164e-05,5.999999999999999474e-05,2.900000000000000017e-04,-2.200000000000000078e-04,4.000000000000000327e-05,-1.000000000000000082e-05,5.000000000000000000e+00,2.100000000000000000e+01
4.368300000000000000e+04,2.000000000000000164e-05,1.399999999999999877e-04,-2.000000000000000164e-05,5.999999999999999474e-05,2.900000000000000017e-04,-2.200000000000000078e-04,4.000000000000000327e-05,-1.000000000000000082e-05,5.000000000000000000e+00,2.100000000000000000e+01
4.368400000000000000e+04,2.000000000000000164e-05,1.399999999999999877e-04,-2.000000000000000164e-05,5.999999999999999474e-05,2.900000000000000017e-04,-2.200000000000000078e-04,4.000000000000000327e-05,-1.000000000000000082e-05,5.000000000000000000e+00,2.100000000000000000e+01
4.368500000000000000e+04,2.000000000000000164e-05,1.399999999999999877e-04,-2.000000000000000164e-05,5.999999999999999474e-05,2.900000000000000017e-04,-2.200000000000000078e-04,4.000000000000000327e-05,-1.000000000000000082e-05,5.000000000000000000e+00,2.100000000000000000e+01
4.368600000000000000e+04,2.000000000000000164e-05,1.399999999999999877e-04,-2.000000000000000164e-05,5.999999999999999474e-05,2.900000000000000017e-04,-2.200000000000000078e-04,4.000000000000000327e-05,-1.000000000000000082e-05,5.000000000000000000e+00,2.100000000000000000e+01
4.368900000000000000e+04,2.000000000000000164e-05,1.399999999999999877e-04,-2.000000000000000164e-05,5.999999999999999474e-05,2.900000000000000017e-04,-2.200000000000000078e-04,4.000000000000000327e-05,-1.000000000000000082e-05,5.000000000000000000e+00,2.100000000000000000e+01
4.369000000000000000e+04,2.000000000000000164e-05,1.399999999999999877e-04,-2.000000000000000164e-05,5.999999999999999474e-05,2.900000000000000017e-04,-2.200000000000000078e-04,4.000000000000000327e-05,-1.000000000000000082e-05,5.000000000000000000e+00,2.100000000000000000e+01
4.369100000000000000e+04,2.000000000000000164e-05,1.399999999999999877e-04,-2.000000000000000164e-05,5.999999999999999474e-05,2.900000000000000017e-04,-2.200000000000000078e-04,4.000000000000000327e-05,-1.000000000000000082e-05,5.000000000000000000e+00,2.100000000000000000e+01
4.369200000000000000e+04,2.000000000000000164e-05,1.399999999999999877e-04,-2.000000000000000164e-05,5.999999999999999474e-05,2.900000000000000017e-04,-2.200000000000000078e-04,4.000000000000000327e-05,-1.000000000000000082e-05,5.000000000000000000e+00,2.100000000000000000e+01
4.369300000000000000e+04,2.000000000000000164e-05,1.399999999999999877e-04,-2.000000000000000164e-05,5.999999999999999474e-05,2.900000000000000017e-04,-2.200000000000000078e-04,4.000000000000000327e-05,-1.000000000000000082e-05,5.000000000000000000e+00,2.100000000000000000e+01
4.369400000000000000e+04,2.000000000000000164e-05,1.399999999999999877e-04,-2.000000000000000164e-05,5.999999999999999474e-05,2.900000000000000017e-04,-2.200000000000000078e-04,4.000000000000000327e-05,-1.000000000000000082e-05,5.000000000000000000e+00,2.100000000000000000e+01
4.369500000000000000e+04,2.000000000000000164e-05,1.399999999999999877e-04,-2.000000000000000164e-05,5.999999999999999474e-05,2.900000000000000017e-04,-2.200000000000000078e-04,4.000000000000000327e-05,-1.000000000000000082e-05,5.000000000000000000e+00,2.100000000000000000e+01
4.369600000000000000e+04,2.000000000000000164e-05,1.399999999999999877e-04,-2.000000000000000164e-05,5.999999999999999474e-05,2.900000000000000017e-04,-2.200000000000000078e-04,4.000000000000000327e-05,-1.000000000000000082e-05,5.000000000000000000e+00,2.100000000000000000e+01
4.369700000000000000e+04,2.000000000000000164e-05,1.399999999999999877e-04,-2.000000000000000164e-05,5.999999999999999474e-05,2.900000000000000017e-04,-2.200000000000000078e-04,4.000000000000000327e-05,-1.000000000000000082e-05,5.000000000000000000e+00,2.100000000000000000e+01
4.369800000000000000e+04,2.000000000000000164e-05,1.399999999999999877e-04,-2.000000000000000164e-05,5.999999999999999474e-05,2.900000000000000017e-04,-2.200000000000000078e-04,4.000000000000000327e-05,-1.000000000000000082e-05,5.000000000000000000e+00,2.100000000000000000e+01
4.369900000000000000e+04,2.000000000000000164e-05,1.399999999999999877e-04,-2.000000000000000164e-05,5.999999999999999474e-05,2.900000000000000017e-04,-2.200000000000000078e-04,4.000000000000000327e-05,-1.000000000000000082e-05,5.000000000000000000e+00,2.100000000000000000e+01
4.370000000000000000e+04,2.000000000000000164e-05,1.399999999999999877e-04,-2.000000000000000164e-05,5.999999999999999474e-05,2.900000000000000017e-04,-2.200000000000000078e-04,4.000000000000000327e-05,-1.000000000000000082e-05,5.000000000000000000e+00,2.100000000000000000e+01
4.370100000000000000e+04,-1.899999999999999834e-04,-1.399999999999999877e-04,-1.300000000000000157e-04,-9.000000000000000567e-05,-2.700000000000000035e-04,-6.999999999999999387e-05,-5.999999999999999474e-05,1.000000000000000082e-05,5.000000000000000000e+00,2.100000000000000000e+01
4.370200000000000000e+04,-1.899999999999999834e-04,-1.399999999999999877e-04,-1.300000000000000157e-04,-9.000000000000000567e-05,-2.700000000000000035e-04,-6.999999999999999387e-05,-5.999999999999999474e-05,1.000000000000000082e-05,5.000000000000000000e+00,2.100000000000000000e+01
4.370300000000000000e+04,-1.899999999999999834e-04,-1.399999999999999877e-04,-1.300000000000000157e-04,-9.000000000000000567e-05,-2.700000000000000035e-04,-6.999999999999999387e-05,-5.999999999999999474e-05,1.000000000000000082e-05,5.000000000000000000e+00,2.100000000000000000e+01
4.370400000000000000e+04,-1.899999999999999834e-04,-1.399999999999999877e-04,-1.300000000000000157e-04,-9.000000000000000567e-05,-2.700000000000000035e-04,-6.999999999999999387e-05,-5.999999999999999474e-05,1.000000000000000082e-05,5.000000000000000000e+00,2.100000000000000000e+01
4.370500000000000000e+04,-1.899999999999999834e-04,-1.399999999999999877e-04,-1.300000000000000157e-04,-9.000000000000000567e-05,-2.700000000000000035e-04,-6.999999999999999387e-05,-5.999999999999999474e-05,1.000000000000000082e-05,5.000000000000000000e+00,2.100000000000000000e+01
4.370600000000000000e+04,-1.899999999999999834e-04,-1.399999999999999877e-04,-1.300000000000000157e-04,-9.000000000000000567e-05,-2.700000000000000035e-04,-6.999999999999999387e-05,-5.999999999999999474e-05,1.000000000000000082e-05,5.000000000000000000e+00,2.100000000000000000e+01
4.370700000000000000e+04,-1.899999999999999834e-04,-1.399999999999999877e-04,-1.300000000000000157e-04,-9.000000000000000567e-05,-2.700000000000000035e-04,-6.999999999999999387e-05,-5.999999999999999474e-05,1.000000000000000082e-05,5.000000000000000000e+00,2.100000000000000000e+01
4.370800000000000000e+04,-1.899999999999999834e-04,-1.399999999999999877e-04,-1.300000000000000157e-04,-9.000000000000000567e-05,-2.700000000000000035e-04,-6.999999999999999387e-05,-5.999999999999999474e-05,1.000000000000000082e-05,5.000000000000000000e+00,2.100000000000000000e+01
4.370900000000000000e+04,-1.899999999999999834e-04,-1.399999999999999877e-04,-1.300000000000000157e-04,-9.000000000000000567e-05,-2.700000000000000035e-04,-6.999999999999999387e-05,-5.999999999999999474e-05,1.000000000000000082e-05,5.000000000000000000e+00,2.100000000000000000e+01
4.371000000000000000e+04,-1.899999999999999834e-04,-1.399999999999999877e-04,-1.300000000000000157e-04,-9.000000000000000567e-05,-2.700000000000000035e-04,-6.999999999999999387e-05,-5.999999999999999474e-05,1.000000000000000082e-05,5.000000000000000000e+00,2.100000000000000000e+01
4.371100000000000000e+04,-1.899999999999999834e-04,-1.399999999999999877e-04,-1.300000000000000157e-04,-9.000000000000000567e-05,-2.700000000000000035e-04,-6.999999999999999387e-05,-5.999999999999999474e-05,1.000000000000000082e-05,5.000000000000000000e+00,2.100000000000000000e+01
4.371200000000000000e+04,-1.899999999999999834e-04,-1.399999999999999877e-04,-1.300000000000000157e-04,-9.000000000000000567e-05,-2.700000000000000035e-04,-6.999999999999999387e-05,-5.999999999999999474e-05,1.000000000000000082e-05,5.000000000000000000e+00,2.100000000000000000e+01
4.371300000000000000e+04,-1.899999999999999834e-04,-1.399999999999999877e-04,-1.300000000000000157e-04,-9.000000000000000567e-05,-2.700000000000000035e-04,-6.999999999999999387e-05,-5.999999999999999474e-05,1.000000000000000082e-05,5.000000000000000000e+00,2.100000000000000000e+01
4.371400000000000000e+04,-1.899999999999999834e-04,-1.399999999999999877e-04,-1.300000000000000157e-04,-9.000000000000000567e-05,-2.700000000000000035e-04,-6.999999999999999387e-05,-5.999999999999999474e-05,1.000000000000000082e-05,5.000000000000000000e+00,2.100000000000000000e+01
4.371500000000000000e+04,-1.899999999999999834e-04,-1.399999999999999877e-04,-1.300000000000000157e-04,-9.000000000000000567e-05,-2.700000000000000035e-04,-6.999999999999999387e-05,-5.999999999999999474e-05,1.000000000000000082e-05,5.000000000000000000e+00,2.100000000000000000e+01
4.371600000000000000e+04,-1.899999999999999834e-04,-1.399999999999999877e-04,-1.300000000000000157e-04,-9.000000000000000567e-05,-2.700000000000000035e-04,-6.999999999999999387e-05,-5.999999999999999474e-05,1.000000000000000082e-05,5.000000000000000000e+00,2.100000000000000000e+01
4.371700000000000000e+04,-1.899999999999999834e-04,-1.399999999999999877e-04,-1.300000000000000157e-04,-9.000000000000000567e-05,-2.700000000000000035e-04,-6.999999999999999387e-05,-5.999999999999999474e-05,1.000000000000000082e-05,5.000000000000000000e+00,2.100000000000000000e+01
4.371800000000000000e+04,-1.899999999999999834e-04,-1.399999999999999877e-04,-1.300000000000000157e-04,-9.000000000000000567e-05,-2.700000000000000035e-04,-6.999999999999999387e-05,-5.999999999999999474e-05,1.000000000000000082e-05,5.000000000000000000e+00,2.100000000000000000e+01
4.371900000000000000e+04,-1.899999999999999834e-04,-1.399999999999999877e-04,-1.300000000000000157e-04,-9.000000000000000567e-05,-2.700000000000000035e-04,-6.999999999999999387e-05,-5.999999999999999474e-05,1.000000000000000082e-05,5.000000000000000000e+00,2.100000000000000000e+01
4.372000000000000000e+04,-1.899999999999999834e-04,-1.399999999999999877e-04,-1.300000000000000157e-04,-9.000000000000000567e-05,-2.700000000000000035e-04,-6.999999999999999387e-05,-5.999999999999999474e-05,1.000000000000000082e-05,5.000000000000000000e+00,2.100000000000000000e+01
4.372100000000000000e+04,-1.899999999999999834e-04,-1.399999999999999877e-04,-1.300000000000000157e-04,-9.000000000000000567e-05,-2.700000000000000035e-04,-6.999999999999999387e-05,-5.999999999999999474e-05,1.000000000000000082e-05,5.000000000000000000e+00,2.100000000000000000e+01
4.372200000000000000e+04,-1.899999999999999834e-04,-1.600000000000000131e-04,4.000000000000000327e-05,1.399999999999999877e-04,3.399999999999999702e-04,1.499999999999999869e-04,1.000000000000000082e-05,8.000000000000000654e-05,5.000000000000000000e+00,2.100000000000000000e+01
4.372300000000000000e+04,-1.899999999999999834e-04,-1.600000000000000131e-04,4.000000000000000327e-05,1.399999999999999877e-04,3.399999999999999702e-04,1.499999999999999869e-04,1.000000000000000082e-05,8.000000000000000654e-05,5.000000000000000000e+00,2.100000000000000000e+01
4.372400000000000000e+04,-8.000000000000000654e-05,-1.199999999999999895e-04,-1.199999999999999895e-04,-2.600000000000000314e-04,-5.099999999999999282e-04,-4.299999999999999894e-04,-1.499999999999999869e-04,-1.199999999999999895e-04,5.000000000000000000e+00,2.100000000000000000e+01
4.372500000000000000e+04,-8.000000000000000654e-05,-1.199999999999999895e-04,-1.199999999999999895e-04,-2.600000000000000314e-04,-5.099999999999999282e-04,-4.299999999999999894e-04,-1.499999999999999869e-04,-1.199999999999999895e-04,5.000000000000000000e+00,2.100000000000000000e+01
4.372600000000000000e+04,-8.000000000000000654e-05,-1.199999999999999895e-04,-1.199999999999999895e-04,-2.600000000000000314e-04,-5.099999999999999282e-04,-4.299999999999999894e-04,-1.499999999999999869e-04,-1.199999999999999895e-04,5.000000000000000000e+00,2.100000000000000000e+01
4.372700000000000000e+04,-8.000000000000000654e-05,-1.199999999999999895e-04,-1.199999999999999895e-04,-2.600000000000000314e-04,-5.099999999999999282e-04,-4.299999999999999894e-04,-1.499999999999999869e-04,-1.199999999999999895e-04,5.000000000000000000e+00,2.100000000000000000e+01
4.372800000000000000e+04,-8.000000000000000654e-05,-1.199999999999999895e-04,-1.199999999999999895e-04,-2.600000000000000314e-04,-5.099999999999999282e-04,-4.299999999999999894e-04,-1.499999999999999869e-04,-1.199999999999999895e-04,5.000000000000000000e+00,2.100000000000000000e+01
4.372900000000000000e+04,-8.000000000000000654e-05,-1.199999999999999895e-04,-1.199999999999999895e-04,-2.600000000000000314e-04,-5.099999999999999282e-04,-4.299999999999999894e-04,-1.499999999999999869e-04,-1.199999999999999895e-04,5.000000000000000000e+00,2.100000000000000000e+01
4.373000000000000000e+04,-8.000000000000000654e-05,-1.199999999999999895e-04,-1.199999999999999895e-04,-2.600000000000000314e-04,-5.099999999999999282e-04,-4.299999999999999894e-04,-1.499999999999999869e-04,-1.199999999999999895e-04,5.000000000000000000e+00,2.100000000000000000e+01
4.373100000000000000e+04,-8.000000000000000654e-05,-1.199999999999999895e-04,-1.199999999999999895e-04,-2.600000000000000314e-04,-5.099999999999999282e-04,-4.299999999999999894e-04,-1.499999999999999869e-04,-1.199999999999999895e-04,5.000000000000000000e+00,2.100000000000000000e+01
4.373200000000000000e+04,-8.000000000000000654e-05,-1.199999999999999895e-04,-1.199999999999999895e-04,-2.600000000000000314e-04,-5.099999999999999282e-04,-4.299999999999999894e-04,-1.499999999999999869e-04,-1.199999999999999895e-04,5.000000000000000000e+00,2.100000000000000000e+01
4.373300000000000000e+04,-8.000000000000000654e-05,-1.199999999999999895e-04,-1.199999999999999895e-04,-2.600000000000000314e-04,-5.099999999999999282e-04,-4.299999999999999894e-04,-1.499999999999999869e-04,-1.199999999999999895e-04,5.000000000000000000e+00,2.100000000000000000e+01
4.373400000000000000e+04,-8.000000000000000654e-05,-1.199999999999999895e-04,-1.199999999999999895e-04,-2.600000000000000314e-04,-5.099999999999999282e-04,-4.299999999999999894e-04,-1.499999999999999869e-04,-1.199999999999999895e-04,5.000000000000000000e+00,2.100000000000000000e+01
4.373500000000000000e+04,-8.000000000000000654e-05,-1.199999999999999895e-04,-1.199999999999999895e-04,-2.600000000000000314e-04,-5.099999999999999282e-04,-4.299999999999999894e-04,-1.499999999999999869e-04,-1.199999999999999895e-04,5.000000000000000000e+00,2.100000000000000000e+01
4.373600000000000000e+04,-8.000000000000000654e-05,-1.199999999999999895e-04,-1.199999999999999895e-04,-2.600000000000000314e-04,-5.099999999999999282e-04,-4.299999999999999894e-04,-1.499999999999999869e-04,-1.199999999999999895e-04,5.000000000000000000e+00,2.100000000000000000e+01
4.373900000000000000e+04,-8.000000000000000654e-05,-6.999999999999999387e-05,5.000000000000000240e-05,2.999999999999999737e-05,-2.200000000000000078e-04,-9.000000000000000567e-05,1.600000000000000131e-04,-2.000000000000000164e-05,5.000000000000000000e+00,2.100000000000000000e+01
4.374000000000000000e+04,-8.000000000000000654e-05,-6.999999999999999387e-05,5.000000000000000240e-05,2.999999999999999737e-05,-2.200000000000000078e-04,-9.000000000000000567e-05,1.600000000000000131e-04,-2.000000000000000164e-05,5.000000000000000000e+00,2.100000000000000000e+01
4.374100000000000000e+04,-8.000000000000000654e-05,-6.999999999999999387e-05,5.000000000000000240e-05,2.999999999999999737e-05,-2.200000000000000078e-04,-9.000000000000000567e-05,1.600000000000000131e-04,-2.000000000000000164e-05,5.000000000000000000e+00,2.100000000000000000e+01
4.374200000000000000e+04,-8.000000000000000654e-05,-6.999999999999999387e-05,5.000000000000000240e-05,2.999999999999999737e-05,-2.200000000000000078e-04,-9.000000000000000567e-05,1.600000000000000131e-04,-2.000000000000000164e-05,5.000000000000000000e+00,2.100000000000000000e+01
4.374300000000000000e+04,-8.000000000000000654e-05,-6.999999999999999387e-05,5.000000000000000240e-05,2.999999999999999737e-05,-2.200000000000000078e-04,-9.000000000000000567e-05,1.600000000000000131e-04,-2.000000000000000164e-05,5.000000000000000000e+00,2.100000000000000000e+01
4.374400000000000000e+04,-8.000000000000000654e-05,-6.999999999999999387e-05,5.000000000000000240e-05,2.999999999999999737e-05,-2.200000000000000078e-04,-9.000000000000000567e-05,1.600000000000000131e-04,-2.000000000000000164e-05,5.000000000000000000e+00,2.100000000000000000e+01
4.374500000000000000e+04,-8.000000000000000654e-05,-6.999999999999999387e-05,5.000000000000000240e-05,2.999999999999999737e-05,-2.200000000000000078e-04,-9.000000000000000567e-05,1.600000000000000131e-04,-2.000000000000000164e-05,5.000000000000000000e+00,2.100000000000000000e+01
4.374600000000000000e+04,-8.000000000000000654e-05,-6.999999999999999387e-05,5.000000000000000240e-05,2.999999999999999737e-05,-2.200000000000000078e-04,-9.000000000000000567e-05,1.600000000000000131e-04,-2.000000000000000164e-05,5.000000000000000000e+00,2.100000000000000000e+01
4.374700000000000000e+04,-8.000000000000000654e-05,-6.999999999999999387e-05,5.000000000000000240e-05,2.999999999999999737e-05,-2.200000000000000078e-04,-9.000000000000000567e-05,1.600000000000000131e-04,-2.000000000000000164e-05,5.000000000000000000e+00,2.100000000000000000e+01
4.374800000000000000e+04,-8.000000000000000654e-05,-6.999999999999999387e-05,5.000000000000000240e-05,2.999999999999999737e-05,-2.200000000000000078e-04,-9.000000000000000567e-05,1.600000000000000131e-04,-2.000000000000000164e-05,5.000000000000000000e+00,2.100000000000000000e+01
4.374900000000000000e+04,-8.000000000000000654e-05,-6.999999999999999387e-05,5.000000000000000240e-05,2.999999999999999737e-05,-2.200000000000000078e-04,-9.000000000000000567e-05,1.600000000000000131e-04,-2.000000000000000164e-05,5.000000000000000000e+00,2.100000000000000000e+01
4.375000000000000000e+04,-8.000000000000000654e-05,-6.999999999999999387e-05,5.000000000000000240e-05,2.999999999999999737e-05,-2.200000000000000078e-04,-9.000000000000000567e-05,1.600000000000000131e-04,-2.000000000000000164e-05,5.000000000000000000e+00,2.100000000000000000e+01
4.375100000000000000e+04,-8.000000000000000654e-05,-6.999999999999999387e-05,5.000000000000000240e-05,2.999999999999999737e-05,-2.200000000000000078e-04,-9.000000000000000567e-05,1.600000000000000131e-04,-2.000000000000000164e-05,5.000000000000000000e+00,2.100000000000000000e+01
4.375200000000000000e+04,-8.000000000000000654e-05,-6.999999999999999387e-05,5.000000000000000240e-05,2.999999999999999737e-05,-2.200000000000000078e-04,-9.000000000000000567e-05,1.600000000000000131e-04,-2.000000000000000164e-05,5.000000000000000000e+00,2.100000000000000000e+01
4.375300000000000000e+04,-8.000000000000000654e-05,-6.999999999999999387e-05,5.000000000000000240e-05,2.999999999999999737e-05,-2.200000000000000078e-04,-9.000000000000000567e-05,1.600000000000000131e-04,-2.000000000000000164e-05,5.000000000000000000e+00,2.100000000000000000e+01
4.375400000000000000e+04,-8.000000000000000654e-05,-6.999999999999999387e-05,5.000000000000000240e-05,2.999999999999999737e-05,-2.200000000000000078e-04,-9.000000000000000567e-05,1.600000000000000131e-04,-2.000000000000000164e-05,5.000000000000000000e+00,2.100000000000000000e+01
4.375500000000000000e+04,-8.000000000000000654e-05,-6.999999999999999387e-05,5.000000000000000240e-05,2.999999999999999737e-05,-2.200000000000000078e-04,-9.000000000000000567e-05,1.600000000000000131e-04,-2.000000000000000164e-05,5.000000000000000000e+00,2.100000000000000000e+01
4.375600000000000000e+04,-8.000000000000000654e-05,-6.999999999999999387e-05,5.000000000000000240e-05,2.999999999999999737e-05,-2.200000000000000078e-04,-9.000000000000000567e-05,1.600000000000000131e-04,-2.000000000000000164e-05,5.000000000000000000e+00,2.100000000000000000e+01
4.375700000000000000e+04,-8.000000000000000654e-05,-6.999999999999999387e-05,5.000000000000000240e-05,2.999999999999999737e-05,-2.200000000000000078e-04,-9.000000000000000567e-05,1.600000000000000131e-04,-2.000000000000000164e-05,5.000000000000000000e+00,2.100000000000000000e+01
4.375800000000000000e+04,-8.000000000000000654e-05,-6.999999999999999387e-05,5.000000000000000240e-05,2.999999999999999737e-05,-2.200000000000000078e-04,-9.000000000000000567e-05,1.600000000000000131e-04,-2.000000000000000164e-05,5.000000000000000000e+00,2.100000000000000000e+01
4.375900000000000000e+04,-1.499999999999999869e-04,-2.500000000000000052e-04,2.299999999999999799e-04,2.000000000000000164e-05,1.300000000000000157e-04,1.100000000000000039e-04,-5.999999999999999474e-05,-6.999999999999999387e-05,5.000000000000000000e+00,2.100000000000000000e+01
4.376000000000000000e+04,4.000000000000000327e-05,-1.499999999999999869e-04,-5.000000000000000240e-05,1.000000000000000048e-04,4.099999999999999912e-04,-2.999999999999999737e-05,5.000000000000000240e-05,1.199999999999999895e-04,5.000000000000000000e+00,2.100000000000000000e+01
4.376100000000000000e+04,1.100000000000000039e-04,5.999999999999999474e-05,-2.999999999999999737e-05,-1.600000000000000131e-04,-5.999999999999999474e-05,1.399999999999999877e-04,-2.000000000000000164e-05,1.000000000000000082e-05,5.000000000000000000e+00,2.100000000000000000e+01
4.376200000000000000e+04,1.100000000000000039e-04,5.999999999999999474e-05,-2.999999999999999737e-05,-1.600000000000000131e-04,-5.999999999999999474e-05,1.399999999999999877e-04,-2.000000000000000164e-05,1.000000000000000082e-05,5.000000000000000000e+00,2.100000000000000000e+01
4.376300000000000000e+04,1.100000000000000039e-04,5.999999999999999474e-05,-2.999999999999999737e-05,-1.600000000000000131e-04,-5.999999999999999474e-05,1.399999999999999877e-04,-2.000000000000000164e-05,1.000000000000000082e-05,5.000000000000000000e+00,2.100000000000000000e+01
4.376400000000000000e+04,1.100000000000000039e-04,5.999999999999999474e-05,-2.999999999999999737e-05,-1.600000000000000131e-04,-5.999999999999999474e-05,1.399999999999999877e-04,-2.000000000000000164e-05,1.000000000000000082e-05,5.000000000000000000e+00,2.100000000000000000e+01
4.376500000000000000e+04,1.100000000000000039e-04,5.999999999999999474e-05,-2.999999999999999737e-05,-1.600000000000000131e-04,-5.999999999999999474e-05,1.399999999999999877e-04,-2.000000000000000164e-05,1.000000000000000082e-05,5.000000000000000000e+00,2.100000000000000000e+01
4.376600000000000000e+04,1.100000000000000039e-04,5.999999999999999474e-05,-2.999999999999999737e-05,-1.600000000000000131e-04,-5.999999999999999474e-05,1.399999999999999877e-04,-2.000000000000000164e-05,1.000000000000000082e-05,5.000000000000000000e+00,2.100000000000000000e+01
4.376700000000000000e+04,1.100000000000000039e-04,5.999999999999999474e-05,-2.999999999999999737e-05,-1.600000000000000131e-04,-5.999999999999999474e-05,1.399999999999999877e-04,-2.000000000000000164e-05,1.000000000000000082e-05,5.000000000000000000e+00,2.100000000000000000e+01
4.376800000000000000e+04,1.100000000000000039e-04,5.999999999999999474e-05,-2.999999999999999737e-05,-1.600000000000000131e-04,-5.999999999999999474e-05,1.399999999999999877e-04,-2.000000000000000164e-05,1.000000000000000082e-05,5.000000000000000000e+00,2.100000000000000000e+01
4.376900000000000000e+04,1.100000000000000039e-04,5.999999999999999474e-05,-2.999999999999999737e-05,-1.600000000000000131e-04,-5.999999999999999474e-05,1.399999999999999877e-04,-2.000000000000000164e-05,1.000000000000000082e-05,5.000000000000000000e+00,2.100000000000000000e+01
4.377000000000000000e+04,1.100000000000000039e-04,5.999999999999999474e-05,-2.999999999999999737e-05,-1.600000000000000131e-04,-5.999999999999999474e-05,1.399999999999999877e-04,-2.000000000000000164e-05,1.000000000000000082e-05,5.000000000000000000e+00,2.100000000000000000e+01
4.377100000000000000e+04,1.100000000000000039e-04,5.999999999999999474e-05,-2.999999999999999737e-05,-1.600000000000000131e-04,-5.999999999999999474e-05,1.399999999999999877e-04,-2.000000000000000164e-05,1.000000000000000082e-05,5.000000000000000000e+00,2.100000000000000000e+01
4.377200000000000000e+04,1.100000000000000039e-04,5.999999999999999474e-05,-2.999999999999999737e-05,-1.600000000000000131e-04,-5.999999999999999474e-05,1.399999999999999877e-04,-2.000000000000000164e-05,1.000000000000000082e-05,5.000000000000000000e+00,2.100000000000000000e+01
4.377300000000000000e+04,-2.399999999999999790e-04,1.000000000000000082e-05,4.200000000000000174e-04,4.099999999999999912e-04,5.699999999999999772e-04,8.000000000000000654e-05,1.000000000000000048e-04,6.999999999999999387e-05,5.000000000000000000e+00,2.100000000000000000e+01
4.377400000000000000e+04,-2.399999999999999790e-04,1.000000000000000082e-05,4.200000000000000174e-04,4.099999999999999912e-04,5.699999999999999772e-04,8.000000000000000654e-05,1.000000000000000048e-04,6.999999999999999387e-05,5.000000000000000000e+00,2.100000000000000000e+01
4.377500000000000000e+04,-2.399999999999999790e-04,1.000000000000000082e-05,4.200000000000000174e-04,4.099999999999999912e-04,5.699999999999999772e-04,8.000000000000000654e-05,1.000000000000000048e-04,6.999999999999999387e-05,5.000000000000000000e+00,2.100000000000000000e+01
4.377600000000000000e+04,-2.399999999999999790e-04,1.000000000000000082e-05,4.200000000000000174e-04,4.099999999999999912e-04,5.699999999999999772e-04,8.000000000000000654e-05,1.000000000000000048e-04,6.999999999999999387e-05,5.000000000000000000e+00,2.100000000000000000e+01
4.377700000000000000e+04,-2.399999999999999790e-04,1.000000000000000082e-05,4.200000000000000174e-04,4.099999999999999912e-04,5.699999999999999772e-04,8.000000000000000654e-05,1.000000000000000048e-04,6.999999999999999387e-05,5.000000000000000000e+00,2.100000000000000000e+01
4.377800000000000000e+04,-2.399999999999999790e-04,1.000000000000000082e-05,4.200000000000000174e-04,4.099999999999999912e-04,5.699999999999999772e-04,8.000000000000000654e-05,1.000000000000000048e-04,6.999999999999999387e-05,5.000000000000000000e+00,2.100000000000000000e+01
4.377900000000000000e+04,-2.399999999999999790e-04,1.000000000000000082e-05,4.200000000000000174e-04,4.099999999999999912e-04,5.699999999999999772e-04,8.000000000000000654e-05,1.000000000000000048e-04,6.999999999999999387e-05,5.000000000000000000e+00,2.100000000000000000e+01
4.378000000000000000e+04,-2.399999999999999790e-04,1.000000000000000082e-05,4.200000000000000174e-04,4.099999999999999912e-04,5.699999999999999772e-04,8.000000000000000654e-05,1.000000000000000048e-04,6.999999999999999387e-05,5.000000000000000000e+00,2.100000000000000000e+01
4.378100000000000000e+04,-2.399999999999999790e-04,1.000000000000000082e-05,4.200000000000000174e-04,4.099999999999999912e-04,5.699999999999999772e-04,8.000000000000000654e-05,1.000000000000000048e-04,6.999999999999999387e-05,5.000000000000000000e+00,2.100000000000000000e+01
4.378200000000000000e+04,-8.000000000000000654e-05,-1.199999999999999895e-04,-2.299999999999999799e-04,-1.300000000000000157e-04,1.899999999999999834e-04,9.000000000000000567e-05,0.000000000000000000e+00,-1.000000000000000082e-05,5.000000000000000000e+00,2.100000000000000000e+01
4.378300000000000000e+04,-8.000000000000000654e-05,-1.199999999999999895e-04,-2.299999999999999799e-04,-1.300000000000000157e-04,1.899999999999999834e-04,9.000000000000000567e-05,0.000000000000000000e+00,-1.000000000000000082e-05,5.000000000000000000e+00,2.100000000000000000e+01
4.378400000000000000e+04,-8.000000000000000654e-05,-1.199999999999999895e-04,-2.299999999999999799e-04,-1.300000000000000157e-04,1.899999999999999834e-04,9.000000000000000567e-05,0.000000000000000000e+00,-1.000000000000000082e-05,5.000000000000000000e+00,2.100000000000000000e+01
4.378500000000000000e+04,-8.000000000000000654e-05,-1.199999999999999895e-04,-2.299999999999999799e-04,-1.300000000000000157e-04,1.899999999999999834e-04,9.000000000000000567e-05,0.000000000000000000e+00,-1.000000000000000082e-05,5.000000000000000000e+00,2.100000000000000000e+01
