5.785600000000000000e+04,4.099999999999999912e-04,1.000000000000000082e-05,1.000000000000000082e-05,1.000000000000000082e-05,3.299999999999999982e-04,6.999999999999999387e-05,-1.800000000000000113e-04,3.200000000000000262e-04,6.000000000000000000e+00,2.300000000000000000e+01
5.785700000000000000e+04,4.099999999999999912e-04,1.000000000000000082e-05,1.000000000000000082e-05,1.000000000000000082e-05,3.299999999999999982e-04,6.999999999999999387e-05,-1.800000000000000113e-04,3.200000000000000262e-04,6.000000000000000000e+00,2.300000000000000000e+01
5.785800000000000000e+04,4.099999999999999912e-04,1.000000000000000082e-05,1.000000000000000082e-05,1.000000000000000082e-05,3.299999999999999982e-04,6.999999999999999387e-05,-1.800000000000000113e-04,3.200000000000000262e-04,6.000000000000000000e+00,2.300000000000000000e+01
5.785900000000000000e+04,4.099999999999999912e-04,1.000000000000000082e-05,1.000000000000000082e-05,1.000000000000000082e-05,3.299999999999999982e-04,6.999999999999999387e-05,-1.800000000000000113e-04,3.200000000000000262e-04,6.000000000000000000e+00,2.300000000000000000e+01
5.786000000000000000e+04,4.099999999999999912e-04,1.000000000000000082e-05,1.000000000000000082e-05,1.000000000000000082e-05,3.299999999999999982e-04,6.999999999999999387e-05,-1.800000000000000113e-04,3.200000000000000262e-04,6.000000000000000000e+00,2.300000000000000000e+01
5.786100000000000000e+04,4.099999999999999912e-04,1.000000000000000082e-05,1.000000000000000082e-05,1.000000000000000082e-05,3.299999999999999982e-04,6.999999999999999387e-05,-1.800000000000000113e-04,3.200000000000000262e-04,6.000000000000000000e+00,2.300000000000000000e+01
5.786200000000000000e+04,4.099999999999999912e-04,1.000000000000000082e-05,1.000000000000000082e-05,1.000000000000000082e-05,3.299999999999999982e-04,6.999999999999999387e-05,-1.800000000000000113e-04,3.200000000000000262e-04,6.000000000000000000e+00,2.300000000000000000e+01
5.786300000000000000e+04,4.099999999999999912e-04,1.000000000000000082e-05,1.000000000000000082e-05,1.000000000000000082e-05,3.299999999999999982e-04,6.999999999999999387e-05,-1.800000000000000113e-04,3.200000000000000262e-04,6.000000000000000000e+00,2.300000000000000000e+01
5.786400000000000000e+04,0.000000000000000000e+00,-4.000000000000000327e-05,-4.000000000000000327e-05,-4.000000000000000327e-05,0.000000000000000000e+00,-3.699999999999999947e-04,6.999999999999999387e-05,2.299999999999999799e-04,6.000000000000000000e+00,2.300000000000000000e+01
5.786600000000000000e+04,0.000000000000000000e+00,-4.000000000000000327e-05,-4.000000000000000327e-05,-4.000000000000000327e-05,0.000000000000000000e+00,-3.699999999999999947e-04,6.999999999999999387e-05,2.299999999999999799e-04,6.000000000000000000e+00,2.300000000000000000e+01
5.786700000000000000e+04,0.000000000000000000e+00,-4.000000000000000327e-05,-4.000000000000000327e-05,-4.000000000000000327e-05,0.000000000000000000e+00,-3.699999999999999947e-04,6.999999999999999387e-05,2.299999999999999799e-04,6.000000000000000000e+00,2.300000000000000000e+01
5.786800000000000000e+04,0.000000000000000000e+00,-4.000000000000000327e-05,-4.000000000000000327e-05,-4.000000000000000327e-05,0.000000000000000000e+00,-3.699999999999999947e-04,6.999999999999999387e-05,2.299999999999999799e-04,6.000000000000000000e+00,2.300000000000000000e+01
5.786900000000000000e+04,0.000000000000000000e+00,-4.000000000000000327e-05,-4.000000000000000327e-05,-4.000000000000000327e-05,0.000000000000000000e+00,-3.699999999999999947e-04,6.999999999999999387e-05,2.299999999999999799e-04,6.000000000000000000e+00,2.300000000000000000e+01
5.787000000000000000e+04,0.000000000000000000e+00,-4.000000000000000327e-05,-4.000000000000000327e-05,-4.000000000000000327e-05,0.000000000000000000e+00,-3.699999999999999947e-04,6.999999999999999387e-05,2.299999999999999799e-04,6.000000000000000000e+00,2.300000000000000000e+01
5.787100000000000000e+04,0.000000000000000000e+00,-4.000000000000000327e-05,-4.000000000000000327e-05,-4.000000000000000327e-05,0.000000000000000000e+00,-3.699999999999999947e-04,6.999999999999999387e-05,2.299999999999999799e-04,6.000000000000000000e+00,2.300000000000000000e+01
5.787200000000000000e+04,0.000000000000000000e+00,-4.000000000000000327e-05,-4.000000000000000327e-05,-4.000000000000000327e-05,0.000000000000000000e+00,-3.699999999999999947e-04,6.999999999999999387e-05,2.299999999999999799e-04,6.000000000000000000e+00,2.300000000000000000e+01
5.787300000000000000e+04,0.000000000000000000e+00,-4.000000000000000327e-05,-4.000000000000000327e-05,-4.000000000000000327e-05,0.000000000000000000e+00,-3.699999999999999947e-04,6.999999999999999387e-05,2.299999999999999799e-04,6.000000000000000000e+00,2.300000000000000000e+01
5.787400000000000000e+04,0.000000000000000000e+00,-4.000000000000000327e-05,-4.000000000000000327e-05,-4.000000000000000327e-05,0.000000000000000000e+00,-3.699999999999999947e-04,6.999999999999999387e-05,2.299999999999999799e-04,6.000000000000000000e+00,2.300000000000000000e+01
5.787500000000000000e+04,0.000000000000000000e+00,-4.000000000000000327e-05,-4.000000000000000327e-05,-4.000000000000000327e-05,0.000000000000000000e+00,-3.699999999999999947e-04,6.999999999999999387e-05,2.299999999999999799e-04,6.000000000000000000e+00,2.300000000000000000e+01
5.787600000000000000e+04,0.000000000000000000e+00,-4.000000000000000327e-05,-4.000000000000000327e-05,-4.000000000000000327e-05,0.000000000000000000e+00,-3.699999999999999947e-04,6.999999999999999387e-05,2.299999999999999799e-04,6.000000000000000000e+00,2.300000000000000000e+01
5.787700000000000000e+04,0.000000000000000000e+00,-4.000000000000000327e-05,-4.000000000000000327e-05,-4.000000000000000327e-05,0.000000000000000000e+00,-3.699999999999999947e-04,6.999999999999999387e-05,2.299999999999999799e-04,6.000000000000000000e+00,2.300000000000000000e+01
5.787800000000000000e+04,7.500000000000000156e-04,-1.300000000000000157e-04,0.000000000000000000e+00,-2.000000000000000164e-05,-8.000000000000000654e-05,-1.199999999999999895e-04,1.399999999999999877e-04,4.499999999999999877e-04,6.000000000000000000e+00,2.300000000000000000e+01
5.787900000000000000e+04,7.500000000000000156e-04,-1.300000000000000157e-04,0.000000000000000000e+00,-2.000000000000000164e-05,-8.000000000000000654e-05,-1.199999999999999895e-04,1.399999999999999877e-04,4.499999999999999877e-04,6.000000000000000000e+00,2.300000000000000000e+01
5.788000000000000000e+04,8.300000000000001170e-04,1.199999999999999895e-04,-1.000000000000000082e-05,1.000000000000000082e-05,-1.000000000000000082e-05,-2.799999999999999755e-04,-2.999999999999999737e-04,2.900000000000000017e-04,6.000000000000000000e+00,2.300000000000000000e+01
5.788100000000000000e+04,8.300000000000001170e-04,1.199999999999999895e-04,-1.000000000000000082e-05,1.000000000000000082e-05,-1.000000000000000082e-05,-2.799999999999999755e-04,-2.999999999999999737e-04,2.900000000000000017e-04,6.000000000000000000e+00,2.300000000000000000e+01
5.788200000000000000e+04,8.300000000000001170e-04,1.199999999999999895e-04,-1.000000000000000082e-05,1.000000000000000082e-05,-1.000000000000000082e-05,-2.799999999999999755e-04,-2.999999999999999737e-04,2.900000000000000017e-04,6.000000000000000000e+00,2.300000000000000000e+01
5.788300000000000000e+04,8.300000000000001170e-04,1.199999999999999895e-04,-1.000000000000000082e-05,1.000000000000000082e-05,-1.000000000000000082e-05,-2.799999999999999755e-04,-2.999999999999999737e-04,2.900000000000000017e-04,6.000000000000000000e+00,2.300000000000000000e+01
5.788400000000000000e+04,8.300000000000001170e-04,1.199999999999999895e-04,-1.000000000000000082e-05,1.000000000000000082e-05,-1.000000000000000082e-05,-2.799999999999999755e-04,-2.999999999999999737e-04,2.900000000000000017e-04,6.000000000000000000e+00,2.300000000000000000e+01
5.788500000000000000e+04,8.300000000000001170e-04,1.199999999999999895e-04,-1.000000000000000082e-05,1.000000000000000082e-05,-1.000000000000000082e-05,-2.799999999999999755e-04,-2.999999999999999737e-04,2.900000000000000017e-04,6.000000000000000000e+00,2.300000000000000000e+01
5.788600000000000000e+04,8.300000000000001170e-04,1.199999999999999895e-04,-1.000000000000000082e-05,1.000000000000000082e-05,-1.000000000000000082e-05,-2.799999999999999755e-04,-2.999999999999999737e-04,2.900000000000000017e-04,6.000000000000000000e+00,2.300000000000000000e+01
5.788700000000000000e+04,8.300000000000001170e-04,1.199999999999999895e-04,-1.000000000000000082e-05,1.000000000000000082e-05,-1.000000000000000082e-05,-2.799999999999999755e-04,-2.999999999999999737e-04,2.900000000000000017e-04,6.000000000000000000e+00,2.300000000000000000e+01
5.788800000000000000e+04,8.300000000000001170e-04,1.199999999999999895e-04,-1.000000000000000082e-05,1.000000000000000082e-05,-1.000000000000000082e-05,-2.799999999999999755e-04,-2.999999999999999737e-04,2.900000000000000017e-04,6.000000000000000000e+00,2.300000000000000000e+01
5.788900000000000000e+04,8.300000000000001170e-04,1.199999999999999895e-04,-1.000000000000000082e-05,1.000000000000000082e-05,-1.000000000000000082e-05,-2.799999999999999755e-04,-2.999999999999999737e-04,2.900000000000000017e-04,6.000000000000000000e+00,2.300000000000000000e+01
5.789100000000000000e+04,8.300000000000001170e-04,1.199999999999999895e-04,-1.000000000000000082e-05,1.000000000000000082e-05,-1.000000000000000082e-05,-2.799999999999999755e-04,-2.999999999999999737e-04,2.900000000000000017e-04,6.000000000000000000e+00,2.300000000000000000e+01
5.789200000000000000e+04,8.300000000000001170e-04,1.199999999999999895e-04,-1.000000000000000082e-05,1.000000000000000082e-05,-1.000000000000000082e-05,-2.799999999999999755e-04,-2.999999999999999737e-04,2.900000000000000017e-04,6.000000000000000000e+00,2.300000000000000000e+01
5.789300000000000000e+04,8.300000000000001170e-04,1.199999999999999895e-04,-1.000000000000000082e-05,1.000000000000000082e-05,-1.000000000000000082e-05,-2.799999999999999755e-04,-2.999999999999999737e-04,2.900000000000000017e-04,6.000000000000000000e+00,2.300000000000000000e+01
5.789400000000000000e+04,8.300000000000001170e-04,1.199999999999999895e-04,-1.000000000000000082e-05,1.000000000000000082e-05,-1.000000000000000082e-05,-2.799999999999999755e-04,-2.999999999999999737e-04,2.900000000000000017e-04,6.000000000000000000e+00,2.300000000000000000e+01
5.789500000000000000e+04,8.300000000000001170e-04,1.199999999999999895e-04,-1.000000000000000082e-05,1.000000000000000082e-05,-1.000000000000000082e-05,-2.799999999999999755e-04,-2.999999999999999737e-04,2.900000000000000017e-04,6.000000000000000000e+00,2.300000000000000000e+01
5.789600000000000000e+04,8.300000000000001170e-04,1.199999999999999895e-04,-1.000000000000000082e-05,1.000000000000000082e-05,-1.000000000000000082e-05,-2.799999999999999755e-04,-2.999999999999999737e-04,2.900000000000000017e-04,6.000000000000000000e+00,2.300000000000000000e+01
5.789700000000000000e+04,8.300000000000001170e-04,1.199999999999999895e-04,-1.000000000000000082e-05,1.000000000000000082e-05,-1.000000000000000082e-05,-2.799999999999999755e-04,-2.999999999999999737e-04,2.900000000000000017e-04,6.000000000000000000e+00,2.300000000000000000e+01
5.789800000000000000e+04,8.300000000000001170e-04,1.199999999999999895e-04,-1.000000000000000082e-05,1.000000000000000082e-05,-1.000000000000000082e-05,-2.799999999999999755e-04,-2.999999999999999737e-04,2.900000000000000017e-04,6.000000000000000000e+00,2.300000000000000000e+01
5.789900000000000000e+04,8.300000000000001170e-04,1.199999999999999895e-04,-1.000000000000000082e-05,1.000000000000000082e-05,-1.000000000000000082e-05,-2.799999999999999755e-04,-2.999999999999999737e-04,2.900000000000000017e-04,6.000000000000000000e+00,2.300000000000000000e+01
5.790000000000000000e+04,8.300000000000001170e-04,1.199999999999999895e-04,-1.000000000000000082e-05,1.000000000000000082e-05,-1.000000000000000082e-05,-2.799999999999999755e-04,-2.999999999999999737e-04,2.900000000000000017e-04,6.000000000000000000e+00,2.300000000000000000e+01
5.790100000000000000e+04,1.800000000000000113e-04,0.000000000000000000e+00,-1.000000000000000082e-05,2.000000000000000164e-05,5.699999999999999772e-04,3.699999999999999947e-04,-2.700000000000000035e-04,-4.299999999999999894e-04,6.000000000000000000e+00,2.300000000000000000e+01
5.790200000000000000e+04,1.800000000000000113e-04,0.000000000000000000e+00,-1.000000000000000082e-05,2.000000000000000164e-05,5.699999999999999772e-04,3.699999999999999947e-04,-2.700000000000000035e-04,-4.299999999999999894e-04,6.000000000000000000e+00,2.300000000000000000e+01
5.790300000000000000e+04,5.999999999999999474e-05,2.000000000000000164e-05,-1.000000000000000048e-04,-1.499999999999999869e-04,-2.500000000000000052e-04,2.000000000000000096e-04,1.000000000000000048e-04,1.100000000000000039e-04,6.000000000000000000e+00,2.300000000000000000e+01
5.790400000000000000e+04,5.999999999999999474e-05,2.000000000000000164e-05,-1.000000000000000048e-04,-1.499999999999999869e-04,-2.500000000000000052e-04,2.000000000000000096e-04,1.000000000000000048e-04,1.100000000000000039e-04,6.000000000000000000e+00,2.300000000000000000e+01
5.790500000000000000e+04,5.999999999999999474e-05,2.000000000000000164e-05,-1.000000000000000048e-04,-1.499999999999999869e-04,-2.500000000000000052e-04,2.000000000000000096e-04,1.000000000000000048e-04,1.100000000000000039e-04,6.000000000000000000e+00,2.300000000000000000e+01
5.790600000000000000e+04,5.999999999999999474e-05,2.000000000000000164e-05,-1.000000000000000048e-04,-1.499999999999999869e-04,-2.500000000000000052e-04,2.000000000000000096e-04,1.000000000000000048e-04,1.100000000000000039e-04,6.000000000000000000e+00,2.300000000000000000e+01
5.790700000000000000e+04,5.999999999999999474e-05,2.000000000000000164e-05,-1.000000000000000048e-04,-1.499999999999999869e-04,-2.500000000000000052e-04,2.000000000000000096e-04,1.000000000000000048e-04,1.100000000000000039e-04,6.000000000000000000e+00,2.300000000000000000e+01
5.790800000000000000e+04,5.999999999999999474e-05,2.000000000000000164e-05,-1.000000000000000048e-04,-1.499999999999999869e-04,-2.500000000000000052e-04,2.000000000000000096e-04,1.000000000000000048e-04,1.100000000000000039e-04,6.000000000000000000e+00,2.300000000000000000e+01
5.790900000000000000e+04,5.999999999999999474e-05,2.000000000000000164e-05,-1.000000000000000048e-04,-1.499999999999999869e-04,-2.500000000000000052e-04,2.000000000000000096e-04,1.000000000000000048e-04,1.100000000000000039e-04,6.000000000000000000e+00,2.300000000000000000e+01
5.791000000000000000e+04,5.999999999999999474e-05,2.000000000000000164e-05,-1.000000000000000048e-04,-1.499999999999999869e-04,-2.500000000000000052e-04,2.000000000000000096e-04,1.000000000000000048e-04,1.100000000000000039e-04,6.000000000000000000e+00,2.300000000000000000e+01
5.791100000000000000e+04,5.999999999999999474e-05,2.000000000000000164e-05,-1.000000000000000048e-04,-1.499999999999999869e-04,-2.500000000000000052e-04,2.000000000000000096e-04,1.000000000000000048e-04,1.100000000000000039e-04,6.000000000000000000e+00,2.300000000000000000e+01
5.791200000000000000e+04,5.999999999999999474e-05,2.000000000000000164e-05,-1.000000000000000048e-04,-1.499999999999999869e-04,-2.500000000000000052e-04,2.000000000000000096e-04,1.000000000000000048e-04,1.100000000000000039e-04,6.000000000000000000e+00,2.300000000000000000e+01
5.791400000000000000e+04,-2.000000000000000164e-05,1.000000000000000082e-05,-8.000000000000000654e-05,-2.399999999999999790e-04,-6.400000000000000524e-04,-1.699999999999999851e-04,5.999999999999999474e-05,-2.500000000000000052e-04,6.000000000000000000e+00,2.300000000000000000e+01
5.791500000000000000e+04,-2.000000000000000164e-05,1.000000000000000082e-05,-8.000000000000000654e-05,-2.399999999999999790e-04,-6.400000000000000524e-04,-1.699999999999999851e-04,5.999999999999999474e-05,-2.500000000000000052e-04,6.000000000000000000e+00,2.300000000000000000e+01
5.791600000000000000e+04,-2.000000000000000164e-05,1.000000000000000082e-05,-8.000000000000000654e-05,-2.399999999999999790e-04,-6.400000000000000524e-04,-1.699999999999999851e-04,5.999999999999999474e-05,-2.500000000000000052e-04,6.000000000000000000e+00,2.300000000000000000e+01
5.791700000000000000e+04,-2.000000000000000164e-05,1.000000000000000082e-05,-8.000000000000000654e-05,-2.399999999999999790e-04,-6.400000000000000524e-04,-1.699999999999999851e-04,5.999999999999999474e-05,-2.500000000000000052e-04,6.000000000000000000e+00,2.300000000000000000e+01
5.791800000000000000e+04,-2.000000000000000164e-05,1.000000000000000082e-05,-8.000000000000000654e-05,-2.399999999999999790e-04,-6.400000000000000524e-04,-1.699999999999999851e-04,5.999999999999999474e-05,-2.500000000000000052e-04,6.000000000000000000e+00,2.300000000000000000e+01
5.791900000000000000e+04,-2.000000000000000164e-05,1.000000000000000082e-05,-8.000000000000000654e-05,-2.399999999999999790e-04,-6.400000000000000524e-04,-1.699999999999999851e-04,5.999999999999999474e-05,-2.500000000000000052e-04,6.000000000000000000e+00,2.300000000000000000e+01
5.792000000000000000e+04,-2.000000000000000164e-05,1.000000000000000082e-05,-8.000000000000000654e-05,-2.399999999999999790e-04,-6.400000000000000524e-04,-1.699999999999999851e-04,5.999999999999999474e-05,-2.500000000000000052e-04,6.000000000000000000e+00,2.300000000000000000e+01
5.792100000000000000e+04,-2.000000000000000164e-05,1.000000000000000082e-05,-8.000000000000000654e-05,-2.399999999999999790e-04,-6.400000000000000524e-04,-1.699999999999999851e-04,5.999999999999999474e-05,-2.500000000000000052e-04,6.000000000000000000e+00,2.300000000000000000e+01
5.792200000000000000e+04,-2.000000000000000164e-05,1.000000000000000082e-05,-8.000000000000000654e-05,-2.399999999999999790e-04,-6.400000000000000524e-04,-1.699999999999999851e-04,5.999999999999999474e-05,-2.500000000000000052e-04,6.000000000000000000e+00,2.300000000000000000e+01
5.792300000000000000e+04,-2.000000000000000164e-05,1.000000000000000082e-05,-8.000000000000000654e-05,-2.399999999999999790e-04,-6.400000000000000524e-04,-1.699999999999999851e-04,5.999999999999999474e-05,-2.500000000000000052e-04,6.000000000000000000e+00,2.300000000000000000e+01
5.792400000000000000e+04,-2.000000000000000164e-05,1.000000000000000082e-05,-8.000000000000000654e-05,-2.399999999999999790e-04,-6.400000000000000524e-04,-1.699999999999999851e-04,5.999999999999999474e-05,-2.500000000000000052e-04,6.000000000000000000e+00,2.300000000000000000e+01
5.792500000000000000e+04,-2.000000000000000164e-05,1.000000000000000082e-05,-8.000000000000000654e-05,-2.399999999999999790e-04,-6.400000000000000524e-04,-1.699999999999999851e-04,5.999999999999999474e-05,-2.500000000000000052e-04,6.000000000000000000e+00,2.300000000000000000e+01
5.792600000000000000e+04,-2.000000000000000164e-05,1.000000000000000082e-05,-8.000000000000000654e-05,-2.399999999999999790e-04,-6.400000000000000524e-04,-1.699999999999999851e-04,5.999999999999999474e-05,-2.500000000000000052e-04,6.000000000000000000e+00,2.300000000000000000e+01
5.792700000000000000e+04,-2.000000000000000164e-05,1.000000000000000082e-05,-8.000000000000000654e-05,-2.399999999999999790e-04,-6.400000000000000524e-04,-1.699999999999999851e-04,5.999999999999999474e-05,-2.500000000000000052e-04,6.000000000000000000e+00,2.300000000000000000e+01
5.792800000000000000e+04,-2.000000000000000164e-05,1.000000000000000082e-05,-8.000000000000000654e-05,-2.399999999999999790e-04,-6.400000000000000524e-04,-1.699999999999999851e-04,5.999999999999999474e-05,-2.500000000000000052e-04,6.000000000000000000e+00,2.300000000000000000e+01
5.792900000000000000e+04,-2.000000000000000164e-05,1.000000000000000082e-05,-8.000000000000000654e-05,-2.399999999999999790e-04,-6.400000000000000524e-04,-1.699999999999999851e-04,5.999999999999999474e-05,-2.500000000000000052e-04,6.000000000000000000e+00,2.300000000000000000e+01
5.793000000000000000e+04,-2.000000000000000164e-05,1.000000000000000082e-05,-8.000000000000000654e-05,-2.399999999999999790e-04,-6.400000000000000524e-04,-1.699999999999999851e-04,5.999999999999999474e-05,-2.500000000000000052e-04,6.000000000000000000e+00,2.300000000000000000e+01
5.793100000000000000e+04,-3.299999999999999982e-04,0.000000000000000000e+00,5.000000000000000240e-05,0.000000000000000000e+00,1.199999999999999895e-04,1.300000000000000157e-04,4.000000000000000327e-05,0.000000000000000000e+00,6.000000000000000000e+00,2.300000000000000000e+01
5.793200000000000000e+04,-3.299999999999999982e-04,0.000000000000000000e+00,5.000000000000000240e-05,0.000000000000000000e+00,1.199999999999999895e-04,1.300000000000000157e-04,4.000000000000000327e-05,0.000000000000000000e+00,6.000000000000000000e+00,2.300000000000000000e+01
5.793300000000000000e+04,-3.299999999999999982e-04,0.000000000000000000e+00,5.000000000000000240e-05,0.000000000000000000e+00,1.199999999999999895e-04,1.300000000000000157e-04,4.000000000000000327e-05,0.000000000000000000e+00,6.000000000000000000e+00,2.300000000000000000e+01
5.793400000000000000e+04,-3.299999999999999982e-04,0.000000000000000000e+00,5.000000000000000240e-05,0.000000000000000000e+00,1.199999999999999895e-04,1.300000000000000157e-04,4.000000000000000327e-05,0.000000000000000000e+00,6.000000000000000000e+00,2.300000000000000000e+01
5.793500000000000000e+04,-3.299999999999999982e-04,0.000000000000000000e+00,5.000000000000000240e-05,0.000000000000000000e+00,1.199999999999999895e-04,1.300000000000000157e-04,4.000000000000000327e-05,0.000000000000000000e+00,6.000000000000000000e+00,2.300000000000000000e+01
5.793600000000000000e+04,-3.299999999999999982e-04,0.000000000000000000e+00,5.000000000000000240e-05,0.000000000000000000e+00,1.199999999999999895e-04,1.300000000000000157e-04,4.000000000000000327e-05,0.000000000000000000e+00,6.000000000000000000e+00,2.300000000000000000e+01
5.793700000000000000e+04,-3.299999999999999982e-04,0.000000000000000000e+00,5.000000000000000240e-05,0.000000000000000000e+00,1.199999999999999895e-04,1.300000000000000157e-04,4.000000000000000327e-05,0.000000000000000000e+00,6.000000000000000000e+00,2.300000000000000000e+01
5.793800000000000000e+04,-4.099999999999999912e-04,-9.000000000000000567e-05,-1.199999999999999895e-04,-1.000000000000000082e-05,-1.800000000000000113e-04,-8.000000000000000654e-05,-8.000000000000000654e-05,-1.699999999999999851e-04,6.000000000000000000e+00,2.300000000000000000e+01
5.793900000000000000e+04,-4.099999999999999912e-04,-9.000000000000000567e-05,-1.199999999999999895e-04,-1.000000000000000082e-05,-1.800000000000000113e-04,-8.000000000000000654e-05,-8.000000000000000654e-05,-1.699999999999999851e-04,6.000000000000000000e+00,2.300000000000000000e+01
5.794000000000000000e+04,-4.099999999999999912e-04,-9.000000000000000567e-05,-1.199999999999999895e-04,-1.000000000000000082e-05,-1.800000000000000113e-04,-8.000000000000000654e-05,-8.000000000000000654e-05,-1.699999999999999851e-04,6.000000000000000000e+00,2.300000000000000000e+01
5.794100000000000000e+04,-2.999999999999999737e-04,-1.699999999999999851e-04,-5.999999999999999474e-05,2.000000000000000164e-05,2.299999999999999799e-04,-1.199999999999999895e-04,2.999999999999999737e-05,1.600000000000000131e-04,6.000000000000000000e+00,2.300000000000000000e+01
5.794200000000000000e+04,-2.999999999999999737e-04,-1.699999999999999851e-04,-5.999999999999999474e-05,2.000000000000000164e-05,2.299999999999999799e-04,-1.199999999999999895e-04,2.999999999999999737e-05,1.600000000000000131e-04,6.000000000000000000e+00,2.300000000000000000e+01
5.794300000000000000e+04,-2.999999999999999737e-04,-1.699999999999999851e-04,-5.999999999999999474e-05,2.000000000000000164e-05,2.299999999999999799e-04,-1.199999999999999895e-04,2.999999999999999737e-05,1.600000000000000131e-04,6.000000000000000000e+00,2.300000000000000000e+01
5.794400000000000000e+04,-2.999999999999999737e-04,-1.699999999999999851e-04,-5.999999999999999474e-05,2.000000000000000164e-05,2.299999999999999799e-04,-1.199999999999999895e-04,2.999999999999999737e-05,1.600000000000000131e-04,6.000000000000000000e+00,2.300000000000000000e+01
5.794500000000000000e+04,-2.999999999999999737e-04,-1.699999999999999851e-04,-5.999999999999999474e-05,2.000000000000000164e-05,2.299999999999999799e-04,-1.199999999999999895e-04,2.999999999999999737e-05,1.600000000000000131e-04,6.000000000000000000e+00,2.300000000000000000e+01
5.794600000000000000e+04,-2.999999999999999737e-04,-1.699999999999999851e-04,-5.999999999999999474e-05,2.000000000000000164e-05,2.299999999999999799e-04,-1.199999999999999895e-04,2.999999999999999737e-05,1.600000000000000131e-04,6.000000000000000000e+00,2.300000000000000000e+01
5.794700000000000000e+04,-2.999999999999999737e-04,-1.699999999999999851e-04,-5.999999999999999474e-05,2.000000000000000164e-05,2.299999999999999799e-04,-1.199999999999999895e-04,2.999999999999999737e-05,1.600000000000000131e-04,6.000000000000000000e+00,2.300000000000000000e+01
5.794800000000000000e+04,-2.999999999999999737e-04,-1.699999999999999851e-04,-5.999999999999999474e-05,2.000000000000000164e-05,2.299999999999999799e-04,-1.199999999999999895e-04,2.999999999999999737e-05,1.600000000000000131e-04,6.000000000000000000e+00,2.300000000000000000e+01
5.794900000000000000e+04,-2.999999999999999737e-04,-1.699999999999999851e-04,-5.999999999999999474e-05,2.000000000000000164e-05,2.299999999999999799e-04,-1.199999999999999895e-04,2.999999999999999737e-05,1.600000000000000131e-04,6.000000000000000000e+00,2.300000000000000000e+01
5.795000000000000000e+04,-2.999999999999999737e-04,-1.699999999999999851e-04,-5.999999999999999474e-05,2.000000000000000164e-05,2.299999999999999799e-04,-1.199999999999999895e-04,2.999999999999999737e-05,1.600000000000000131e-04,6.000000000000000000e+00,2.300000000000000000e+01
5.795100000000000000e+04,-2.999999999999999737e-04,-1.699999999999999851e-04,-5.999999999999999474e-05,2.000000000000000164e-05,2.299999999999999799e-04,-1.199999999999999895e-04,2.999999999999999737e-05,1.600000000000000131e-04,6.000000000000000000e+00,2.300000000000000000e+01
5.795200000000000000e+04,-2.999999999999999737e-04,-1.699999999999999851e-04,-5.999999999999999474e-05,2.000000000000000164e-05,2.299999999999999799e-04,-1.199999999999999895e-04,2.999999999999999737e-05,1.600000000000000131e-04,6.000000000000000000e+00,2.300000000000000000e+01
5.795300000000000000e+04,-2.999999999999999737e-04,-1.699999999999999851e-04,-5.999999999999999474e-05,2.000000000000000164e-05,2.299999999999999799e-04,-1.199999999999999895e-04,2.999999999999999737e-05,1.600000000000000131e-04,6.000000000000000000e+00,2.300000000000000000e+01
5.795400000000000000e+04,-2.999999999999999737e-04,-1.699999999999999851e-04,-5.999999999999999474e-05,2.000000000000000164e-05,2.299999999999999799e-04,-1.199999999999999895e-04,2.999999999999999737e-05,1.600000000000000131e-04,6.000000000000000000e+00,2.300000000000000000e+01
5.795500000000000000e+04,-2.999999999999999737e-04,-1.699999999999999851e-04,-5.999999999999999474e-05,2.000000000000000164e-05,2.299999999999999799e-04,-1.199999999999999895e-04,2.999999999999999737e-05,1.600000000000000131e-04,6.000000000000000000e+00,2.300000000000000000e+01
5.795600000000000000e+04,-2.999999999999999737e-04,-1.699999999999999851e-04,-5.999999999999999474e-05,2.000000000000000164e-05,2.299999999999999799e-04,-1.199999999999999895e-04,2.999999999999999737e-05,1.600000000000000131e-04,6.000000000000000000e+00,2.300000000000000000e+01
5.795700000000000000e+04,-2.999999999999999737e-04,-1.699999999999999851e-04,-5.999999999999999474e-05,2.000000000000000164e-05,2.299999999999999799e-04,-1.199999999999999895e-04,2.999999999999999737e-05,1.600000000000000131e-04,6.000000000000000000e+00,2.300000000000000000e+01
5.795800000000000000e+04,-2.999999999999999737e-04,-1.699999999999999851e-04,-5.999999999999999474e-05,2.000000000000000164e-05,2.299999999999999799e-04,-1.199999999999999895e-04,2.999999999999999737e-05,1.600000000000000131e-04,6.000000000000000000e+00,2.300000000000000000e+01
5.796000000000000000e+04,-2.999999999999999737e-04,-1.699999999999999851e-04,-5.999999999999999474e-05,2.000000000000000164e-05,2.299999999999999799e-04,-1.199999999999999895e-04,2.999999999999999737e-05,1.600000000000000131e-04,6.000000000000000000e+00,2.300000000000000000e+01
5.796100000000000000e+04,6.999999999999999387e-05,-9.000000000000000567e-05,-2.999999999999999737e-05,1.000000000000000082e-05,-1.399999999999999877e-04,-3.299999999999999982e-04,-4.000000000000000327e-05,-2.799999999999999755e-04,6.000000000000000000e+00,2.300000000000000000e+01
5.796200000000000000e+04,2.500000000000000052e-04,-8.000000000000000654e-05,0.000000000000000000e+00,-1.000000000000000082e-05,-1.300000000000000157e-04,-2.299999999999999799e-04,-4.099999999999999912e-04,3.799999999999999667e-04,6.000000000000000000e+00,2.300000000000000000e+01
5.796300000000000000e+04,2.500000000000000052e-04,-8.000000000000000654e-05,0.000000000000000000e+00,-1.000000000000000082e-05,-1.300000000000000157e-04,-2.299999999999999799e-04,-4.099999999999999912e-04,3.799999999999999667e-04,6.000000000000000000e+00,2.300000000000000000e+01
5.796400000000000000e+04,2.500000000000000052e-04,-8.000000000000000654e-05,0.000000000000000000e+00,-1.000000000000000082e-05,-1.300000000000000157e-04,-2.299999999999999799e-04,-4.099999999999999912e-04,3.799999999999999667e-04,6.000000000000000000e+00,2.300000000000000000e+01
5.796500000000000000e+04,2.500000000000000052e-04,-8.000000000000000654e-05,0.000000000000000000e+00,-1.000000000000000082e-05,-1.300000000000000157e-04,-2.299999999999999799e-04,-4.099999999999999912e-04,3.799999999999999667e-04,6.000000000000000000e+00,2.300000000000000000e+01
5.796600000000000000e+04,2.500000000000000052e-04,-8.000000000000000654e-05,0.000000000000000000e+00,-1.000000000000000082e-05,-1.300000000000000157e-04,-2.299999999999999799e-04,-4.099999999999999912e-04,3.799999999999999667e-04,6.000000000000000000e+00,2.300000000000000000e+01
5.796700000000000000e+04,2.500000000000000052e-04,-8.000000000000000654e-05,0.000000000000000000e+00,-1.000000000000000082e-05,-1.300000000000000157e-04,-2.299999999999999799e-04,-4.099999999999999912e-04,3.799999999999999667e-04,6.000000000000000000e+00,2.300000000000000000e+01
5.796800000000000000e+04,2.500000000000000052e-04,-8.000000000000000654e-05,0.000000000000000000e+00,-1.000000000000000082e-05,-1.300000000000000157e-04,-2.299999999999999799e-04,-4.099999999999999912e-04,3.799999999999999667e-04,6.000000000000000000e+00,2.300000000000000000e+01
5.796900000000000000e+04,2.500000000000000052e-04,-8.000000000000000654e-05,0.000000000000000000e+00,-1.000000000000000082e-05,-1.300000000000000157e-04,-2.299999999999999799e-04,-4.099999999999999912e-04,3.799999999999999667e-04,6.000000000000000000e+00,2.300000000000000000e+01
5.797000000000000000e+04,2.500000000000000052e-04,-8.000000000000000654e-05,0.000000000000000000e+00,-1.000000000000000082e-05,-1.300000000000000157e-04,-2.299999999999999799e-04,-4.099999999999999912e-04,3.799999999999999667e-04,6.000000000000000000e+00,2.300000000000000000e+01
5.797100000000000000e+04,2.500000000000000052e-04,-8.000000000000000654e-05,0.000000000000000000e+00,-1.000000000000000082e-05,-1.300000000000000157e-04,-2.299999999999999799e-04,-4.099999999999999912e-04,3.799999999999999667e-04,6.000000000000000000e+00,2.300000000000000000e+01
5.797200000000000000e+04,2.500000000000000052e-04,-8.000000000000000654e-05,0.000000000000000000e+00,-1.000000000000000082e-05,-1.300000000000000157e-04,-2.299999999999999799e-04,-4.099999999999999912e-04,3.799999999999999667e-04,6.000000000000000000e+00,2.300000000000000000e+01
5.797300000000000000e+04,2.500000000000000052e-04,-8.000000000000000654e-05,0.000000000000000000e+00,-1.000000000000000082e-05,-1.300000000000000157e-04,-2.299999999999999799e-04,-4.099999999999999912e-04,3.799999999999999667e-04,6.000000000000000000e+00,2.300000000000000000e+01
5.797400000000000000e+04,-8.199999999999999824e-04,-1.399999999999999877e-04,4.000000000000000327e-05,-1.000000000000000048e-04,-2.299999999999999799e-04,-3.399999999999999702e-04,-1.499999999999999869e-04,1.199999999999999895e-04,6.000000000000000000e+00,2.300000000000000000e+01
5.797500000000000000e+04,-8.199999999999999824e-04,-1.399999999999999877e-04,4.000000000000000327e-05,-1.000000000000000048e-04,-2.299999999999999799e-04,-3.399999999999999702e-04,-1.499999999999999869e-04,1.199999999999999895e-04,6.000000000000000000e+00,2.300000000000000000e+01
5.797600000000000000e+04,-8.199999999999999824e-04,-1.399999999999999877e-04,4.000000000000000327e-05,-1.000000000000000048e-04,-2.299999999999999799e-04,-3.399999999999999702e-04,-1.499999999999999869e-04,1.199999999999999895e-04,6.000000000000000000e+00,2.300000000000000000e+01
5.797700000000000000e+04,-8.199999999999999824e-04,-1.399999999999999877e-04,4.000000000000000327e-05,-1.000000000000000048e-04,-2.299999999999999799e-04,-3.399999999999999702e-04,-1.499999999999999869e-04,1.199999999999999895e-04,6.000000000000000000e+00,2.300000000000000000e+01
5.797800000000000000e+04,-8.199999999999999824e-04,-1.399999999999999877e-04,4.000000000000000327e-05,-1.000000000000000048e-04,-2.299999999999999799e-04,-3.399999999999999702e-04,-1.499999999999999869e-04,1.199999999999999895e-04,6.000000000000000000e+00,2.300000000000000000e+01
5.797900000000000000e+04,-8.199999999999999824e-04,-1.399999999999999877e-04,4.000000000000000327e-05,-1.000000000000000048e-04,-2.299999999999999799e-04,-3.399999999999999702e-04,-1.499999999999999869e-04,1.199999999999999895e-04,6.000000000000000000e+00,2.300000000000000000e+01
5.798000000000000000e+04,-8.199999999999999824e-04,-1.399999999999999877e-04,4.000000000000000327e-05,-1.000000000000000048e-04,-2.299999999999999799e-04,-3.399999999999999702e-04,-1.499999999999999869e-04,1.199999999999999895e-04,6.000000000000000000e+00,2.300000000000000000e+01
5.798100000000000000e+04,-8.199999999999999824e-04,-1.399999999999999877e-04,4.000000000000000327e-05,-1.000000000000000048e-04,-2.299999999999999799e-04,-3.399999999999999702e-04,-1.499999999999999869e-04,1.199999999999999895e-04,6.000000000000000000e+00,2.300000000000000000e+01
5.798200000000000000e+04,-8.199999999999999824e-04,-1.399999999999999877e-04,4.000000000000000327e-05,-1.000000000000000048e-04,-2.299999999999999799e-04,-3.399999999999999702e-04,-1.499999999999999869e-04,1.199999999999999895e-04,6.000000000000000000e+00,2.300000000000000000e+01
5.798300000000000000e+04,-8.199999999999999824e-04,-1.399999999999999877e-04,4.000000000000000327e-05,-1.000000000000000048e-04,-2.299999999999999799e-04,-3.399999999999999702e-04,-1.499999999999999869e-04,1.199999999999999895e-04,6.000000000000000000e+00,2.300000000000000000e+01
5.798400000000000000e+04,2.200000000000000078e-04,1.699999999999999851e-04,-5.000000000000000240e-05,-1.100000000000000039e-04,1.000000000000000082e-05,-1.199999999999999895e-04,-2.000000000000000164e-05,3.099999999999999999e-04,6.000000000000000000e+00,2.300000000000000000e+01
5.798500000000000000e+04,2.200000000000000078e-04,1.699999999999999851e-04,-5.000000000000000240e-05,-1.100000000000000039e-04,1.000000000000000082e-05,-1.199999999999999895e-04,-2.000000000000000164e-05,3.099999999999999999e-04,6.000000000000000000e+00,2.300000000000000000e+01
5.798600000000000000e+04,2.200000000000000078e-04,1.699999999999999851e-04,-5.000000000000000240e-05,-1.100000000000000039e-04,1.000000000000000082e-05,-1.199999999999999895e-04,-2.000000000000000164e-05,3.099999999999999999e-04,6.000000000000000000e+00,2.300000000000000000e+01
5.798700000000000000e+04,2.200000000000000078e-04,1.699999999999999851e-04,-5.000000000000000240e-05,-1.100000000000000039e-04,1.000000000000000082e-05,-1.199999999999999895e-04,-2.000000000000000164e-05,3.099999999999999999e-04,6.000000000000000000e+00,2.300000000000000000e+01
5.798800000000000000e+04,2.200000000000000078e-04,1.699999999999999851e-04,-5.000000000000000240e-05,-1.100000000000000039e-04,1.000000000000000082e-05,-1.199999999999999895e-04,-2.000000000000000164e-05,3.099999999999999999e-04,6.000000000000000000e+00,2.300000000000000000e+01
5.798900000000000000e+04,2.200000000000000078e-04,1.699999999999999851e-04,-5.000000000000000240e-05,-1.100000000000000039e-04,1.000000000000000082e-05,-1.199999999999999895e-04,-2.000000000000000164e-05,3.099999999999999999e-04,6.000000000000000000e+00,2.300000000000000000e+01
5.799000000000000000e+04,2.200000000000000078e-04,1.699999999999999851e-04,-5.000000000000000240e-05,-1.100000000000000039e-04,1.000000000000000082e-05,-1.199999999999999895e-04,-2.000000000000000164e-05,3.099999999999999999e-04,6.000000000000000000e+00,2.300000000000000000e+01
5.799100000000000000e+04,2.200000000000000078e-04,1.699999999999999851e-04,-5.000000000000000240e-05,-1.100000000000000039e-04,1.000000000000000082e-05,-1.199999999999999895e-04,-2.000000000000000164e-05,3.099999999999999999e-04,6.000000000000000000e+00,2.300000000000000000e+01
5.799200000000000000e+04,2.200000000000000078e-04,1.699999999999999851e-04,-5.000000000000000240e-05,-1.100000000000000039e-04,1.000000000000000082e-05,-1.199999999999999895e-04,-2.000000000000000164e-05,3.099999999999999999e-04,6.000000000000000000e+00,2.300000000000000000e+01
5.799300000000000000e+04,2.200000000000000078e-04,1.699999999999999851e-04,-5.000000000000000240e-05,-1.100000000000000039e-04,1.000000000000000082e-05,-1.199999999999999895e-04,-2.000000000000000164e-05,3.099999999999999999e-04,6.000000000000000000e+00,2.300000000000000000e+01
5.799400000000000000e+04,2.200000000000000078e-04,1.699999999999999851e-04,-5.000000000000000240e-05,-1.100000000000000039e-04,1.000000000000000082e-05,-1.199999999999999895e-04,-2.000000000000000164e-05,3.099999999999999999e-04,6.000000000000000000e+00,2.300000000000000000e+01
5.799500000000000000e+04,2.200000000000000078e-04,1.699999999999999851e-04,-5.000000000000000240e-05,-1.100000000000000039e-04,1.000000000000000082e-05,-1.199999999999999895e-04,-2.000000000000000164e-05,3.099999999999999999e-04,6.000000000000000000e+00,2.300000000000000000e+01
5.799600000000000000e+04,2.200000000000000078e-04,1.699999999999999851e-04,-5.000000000000000240e-05,-1.100000000000000039e-04,1.000000000000000082e-05,-1.199999999999999895e-04,-2.000000000000000164e-05,3.099999999999999999e-04,6.000000000000000000e+00,2.300000000000000000e+01
5.799700000000000000e+04,2.200000000000000078e-04,1.699999999999999851e-04,-5.000000000000000240e-05,-1.100000000000000039e-04,1.000000000000000082e-05,-1.199999999999999895e-04,-2.000000000000000164e-05,3.099999999999999999e-04,6.000000000000000000e+00,2.300000000000000000e+01
5.799800000000000000e+04,3.099999999999999999e-04,1.199999999999999895e-04,2.999999999999999737e-05,5.999999999999999474e-05,2.500000000000000052e-04,2.000000000000000096e-04,3.200000000000000262e-04,-2.600000000000000314e-04,6.000000000000000000e+00,2.300000000000000000e+01
5.799900000000000000e+04,3.099999999999999999e-04,1.199999999999999895e-04,2.999999999999999737e-05,5.999999999999999474e-05,2.500000000000000052e-04,2.000000000000000096e-04,3.200000000000000262e-04,-2.600000000000000314e-04,6.000000000000000000e+00,2.300000000000000000e+01
5.800000000000000000e+04,1.000000000000000048e-04,5.000000000000000240e-05,-1.000000000000000082e-05,1.499999999999999869e-04,1.000000000000000082e-05,-1.699999999999999851e-04,-1.000000000000000048e-04,-8.000000000000000654e-05,6.000000000000000000e+00,2.300000000000000000e+01
5.800100000000000000e+04,1.000000000000000048e-04,5.000000000000000240e-05,-1.000000000000000082e-05,1.499999999999999869e-04,1.000000000000000082e-05,-1.699999999999999851e-04,-1.000000000000000048e-04,-8.000000000000000654e-05,6.000000000000000000e+00,2.300000000000000000e+01
5.800200000000000000e+04,1.000000000000000048e-04,5.000000000000000240e-05,-1.000000000000000082e-05,1.499999999999999869e-04,1.000000000000000082e-05,-1.699999999999999851e-04,-1.000000000000000048e-04,-8.000000000000000654e-05,6.000000000000000000e+00,2.300000000000000000e+01
5.800300000000000000e+04,1.000000000000000048e-04,5.000000000000000240e-05,-1.000000000000000082e-05,1.499999999999999869e-04,1.000000000000000082e-05,-1.699999999999999851e-04,-1.000000000000000048e-04,-8.000000000000000654e-05,6.000000000000000000e+00,2.300000000000000000e+01
5.800400000000000000e+04,1.000000000000000048e-04,5.000000000000000240e-05,-1.000000000000000082e-05,1.499999999999999869e-04,1.000000000000000082e-05,-1.699999999999999851e-04,-1.000000000000000048e-04,-8.000000000000000654e-05,6.000000000000000000e+00,2.300000000000000000e+01
5.800500000000000000e+04,1.000000000000000048e-04,5.000000000000000240e-05,-1.000000000000000082e-05,1.499999999999999869e-04,1.000000000000000082e-05,-1.699999999999999851e-04,-1.000000000000000048e-04,-8.000000000000000654e-05,6.000000000000000000e+00,2.300000000000000000e+01
5.800700000000000000e+04,1.000000000000000048e-04,5.000000000000000240e-05,-1.000000000000000082e-05,1.499999999999999869e-04,1.000000000000000082e-05,-1.699999999999999851e-04,-1.000000000000000048e-04,-8.000000000000000654e-05,6.000000000000000000e+00,2.300000000000000000e+01
5.800800000000000000e+04,1.000000000000000048e-04,5.000000000000000240e-05,-1.000000000000000082e-05,1.499999999999999869e-04,1.000000000000000082e-05,-1.699999999999999851e-04,-1.000000000000000048e-04,-8.000000000000000654e-05,6.000000000000000000e+00,2.300000000000000000e+01
5.800900000000000000e+04,1.000000000000000048e-04,5.000000000000000240e-05,-1.000000000000000082e-05,1.499999999999999869e-04,1.000000000000000082e-05,-1.699999999999999851e-04,-1.000000000000000048e-04,-8.000000000000000654e-05,6.000000000000000000e+00,2.300000000000000000e+01
5.801000000000000000e+04,1.000000000000000048e-04,5.000000000000000240e-05,-1.000000000000000082e-05,1.499999999999999869e-04,1.000000000000000082e-05,-1.699999999999999851e-04,-1.000000000000000048e-04,-8.000000000000000654e-05,6.000000000000000000e+00,2.300000000000000000e+01
5.801100000000000000e+04,1.000000000000000048e-04,5.000000000000000240e-05,-1.000000000000000082e-05,1.499999999999999869e-04,1.000000000000000082e-05,-1.699999999999999851e-04,-1.000000000000000048e-04,-8.000000000000000654e-05,6.000000000000000000e+00,2.300000000000000000e+01
5.801200000000000000e+04,1.000000000000000048e-04,5.000000000000000240e-05,-1.000000000000000082e-05,1.499999999999999869e-04,1.000000000000000082e-05,-1.699999999999999851e-04,-1.000000000000000048e-04,-8.000000000000000654e-05,6.000000000000000000e+00,2.300000000000000000e+01
5.801300000000000000e+04,1.000000000000000048e-04,5.000000000000000240e-05,-1.000000000000000082e-05,1.499999999999999869e-04,1.000000000000000082e-05,-1.699999999999999851e-04,-1.000000000000000048e-04,-8.000000000000000654e-05,6.000000000000000000e+00,2.300000000000000000e+01
5.801400000000000000e+04,1.000000000000000048e-04,5.000000000000000240e-05,-1.000000000000000082e-05,1.499999999999999869e-04,1.000000000000000082e-05,-1.699999999999999851e-04,-1.000000000000000048e-04,-8.000000000000000654e-05,6.000000000000000000e+00,2.300000000000000000e+01
5.801500000000000000e+04,1.000000000000000048e-04,5.000000000000000240e-05,-1.000000000000000082e-05,1.499999999999999869e-04,1.000000000000000082e-05,-1.699999999999999851e-04,-1.000000000000000048e-04,-8.000000000000000654e-05,6.000000000000000000e+00,2.300000000000000000e+01
5.801600000000000000e+04,1.000000000000000048e-04,5.000000000000000240e-05,-1.000000000000000082e-05,1.499999999999999869e-04,1.000000000000000082e-05,-1.699999999999999851e-04,-1.000000000000000048e-04,-8.000000000000000654e-05,6.000000000000000000e+00,2.300000000000000000e+01
5.801700000000000000e+04,1.000000000000000048e-04,5.000000000000000240e-05,-1.000000000000000082e-05,1.499999999999999869e-04,1.000000000000000082e-05,-1.699999999999999851e-04,-1.000000000000000048e-04,-8.000000000000000654e-05,6.000000000000000000e+00,2.300000000000000000e+01
5.801800000000000000e+04,1.000000000000000048e-04,5.000000000000000240e-05,-1.000000000000000082e-05,1.499999999999999869e-04,1.000000000000000082e-05,-1.699999999999999851e-04,-1.000000000000000048e-04,-8.000000000000000654e-05,6.000000000000000000e+00,2.300000000000000000e+01
5.801900000000000000e+04,1.000000000000000048e-04,5.000000000000000240e-05,-1.000000000000000082e-05,1.499999999999999869e-04,1.000000000000000082e-05,-1.699999999999999851e-04,-1.000000000000000048e-04,-8.000000000000000654e-05,6.000000000000000000e+00,2.300000000000000000e+01
5.802000000000000000e+04,1.000000000000000048e-04,5.000000000000000240e-05,-1.000000000000000082e-05,1.499999999999999869e-04,1.000000000000000082e-05,-1.699999999999999851e-04,-1.000000000000000048e-04,-8.000000000000000654e-05,6.000000000000000000e+00,2.300000000000000000e+01
5.802100000000000000e+04,-5.999999999999999474e-05,-1.000000000000000048e-04,-1.100000000000000039e-04,-5.999999999999999474e-05,2.600000000000000314e-04,3.699999999999999947e-04,1.899999999999999834e-04,1.000000000000000048e-04,6.000000000000000000e+00,2.300000000000000000e+01
5.802200000000000000e+04,-1.600000000000000131e-04,-1.300000000000000157e-04,-9.000000000000000567e-05,1.000000000000000082e-05,2.399999999999999790e-04,4.200000000000000174e-04,1.300000000000000157e-04,-1.000000000000000048e-04,6.000000000000000000e+00,2.300000000000000000e+01
5.802300000000000000e+04,-1.600000000000000131e-04,-1.300000000000000157e-04,-9.000000000000000567e-05,1.000000000000000082e-05,2.399999999999999790e-04,4.200000000000000174e-04,1.300000000000000157e-04,-1.000000000000000048e-04,6.000000000000000000e+00,2.300000000000000000e+01
5.802400000000000000e+04,-1.600000000000000131e-04,-1.300000000000000157e-04,-9.000000000000000567e-05,1.000000000000000082e-05,2.399999999999999790e-04,4.200000000000000174e-04,1.300000000000000157e-04,-1.000000000000000048e-04,6.000000000000000000e+00,2.300000000000000000e+01
5.802500000000000000e+04,-1.600000000000000131e-04,-1.300000000000000157e-04,-9.000000000000000567e-05,1.000000000000000082e-05,2.399999999999999790e-04,4.200000000000000174e-04,1.300000000000000157e-04,-1.000000000000000048e-04,6.000000000000000000e+00,2.300000000000000000e+01
5.802600000000000000e+04,-1.600000000000000131e-04,-1.300000000000000157e-04,-9.000000000000000567e-05,1.000000000000000082e-05,2.399999999999999790e-04,4.200000000000000174e-04,1.300000000000000157e-04,-1.000000000000000048e-04,6.000000000000000000e+00,2.300000000000000000e+01
5.802700000000000000e+04,-1.600000000000000131e-04,-1.300000000000000157e-04,-9.000000000000000567e-05,1.000000000000000082e-05,2.399999999999999790e-04,4.200000000000000174e-04,1.300000000000000157e-04,-1.000000000000000048e-04,6.000000000000000000e+00,2.300000000000000000e+01
5.802800000000000000e+04,-1.600000000000000131e-04,-1.300000000000000157e-04,-9.000000000000000567e-05,1.000000000000000082e-05,2.399999999999999790e-04,4.200000000000000174e-04,1.300000000000000157e-04,-1.000000000000000048e-04,6.000000000000000000e+00,2.300000000000000000e+01
5.802900000000000000e+04,-1.600000000000000131e-04,-1.300000000000000157e-04,-9.000000000000000567e-05,1.000000000000000082e-05,2.399999999999999790e-04,4.200000000000000174e-04,1.300000000000000157e-04,-1.000000000000000048e-04,6.000000000000000000e+00,2.300000000000000000e+01
5.803000000000000000e+04,-1.600000000000000131e-04,-1.300000000000000157e-04,-9.000000000000000567e-05,1.000000000000000082e-05,2.399999999999999790e-04,4.200000000000000174e-04,1.300000000000000157e-04,-1.000000000000000048e-04,6.000000000000000000e+00,2.300000000000000000e+01
5.803100000000000000e+04,-1.600000000000000131e-04,-1.300000000000000157e-04,-9.000000000000000567e-05,1.000000000000000082e-05,2.399999999999999790e-04,4.200000000000000174e-04,1.300000000000000157e-04,-1.000000000000000048e-04,6.000000000000000000e+00,2.300000000000000000e+01
5.803200000000000000e+04,-1.600000000000000131e-04,-1.300000000000000157e-04,-9.000000000000000567e-05,1.000000000000000082e-05,2.399999999999999790e-04,4.200000000000000174e-04,1.300000000000000157e-04,-1.000000000000000048e-04,6.000000000000000000e+00,2.300000000000000000e+01
5.803300000000000000e+04,-1.600000000000000131e-04,-1.300000000000000157e-04,-9.000000000000000567e-05,1.000000000000000082e-05,2.399999999999999790e-04,4.200000000000000174e-04,1.300000000000000157e-04,-1.000000000000000048e-04,6.000000000000000000e+00,2.300000000000000000e+01
5.803400000000000000e+04,1.699999999999999851e-04,1.300000000000000157e-04,1.499999999999999869e-04,2.500000000000000052e-04,2.299999999999999799e-04,1.800000000000000113e-04,-1.300000000000000157e-04,1.000000000000000082e-05,6.000000000000000000e+00,2.300000000000000000e+01
5.803500000000000000e+04,1.699999999999999851e-04,1.300000000000000157e-04,1.499999999999999869e-04,2.500000000000000052e-04,2.299999999999999799e-04,1.800000000000000113e-04,-1.300000000000000157e-04,1.000000000000000082e-05,6.000000000000000000e+00,2.300000000000000000e+01
5.803600000000000000e+04,1.699999999999999851e-04,1.300000000000000157e-04,1.499999999999999869e-04,2.500000000000000052e-04,2.299999999999999799e-04,1.800000000000000113e-04,-1.300000000000000157e-04,1.000000000000000082e-05,6.000000000000000000e+00,2.300000000000000000e+01
5.803700000000000000e+04,1.699999999999999851e-04,1.300000000000000157e-04,1.499999999999999869e-04,2.500000000000000052e-04,2.299999999999999799e-04,1.800000000000000113e-04,-1.300000000000000157e-04,1.000000000000000082e-05,6.000000000000000000e+00,2.300000000000000000e+01
5.803800000000000000e+04,1.699999999999999851e-04,1.300000000000000157e-04,1.499999999999999869e-04,2.500000000000000052e-04,2.299999999999999799e-04,1.800000000000000113e-04,-1.300000000000000157e-04,1.000000000000000082e-05,6.000000000000000000e+00,2.300000000000000000e+01
5.803900000000000000e+04,1.699999999999999851e-04,1.300000000000000157e-04,1.499999999999999869e-04,2.500000000000000052e-04,2.299999999999999799e-04,1.800000000000000113e-04,-1.300000000000000157e-04,1.000000000000000082e-05,6.000000000000000000e+00,2.300000000000000000e+01
5.804000000000000000e+04,1.699999999999999851e-04,1.300000000000000157e-04,1.499999999999999869e-04,2.500000000000000052e-04,2.299999999999999799e-04,1.800000000000000113e-04,-1.300000000000000157e-04,1.000000000000000082e-05,6.000000000000000000e+00,2.300000000000000000e+01
5.804100000000000000e+04,1.699999999999999851e-04,1.300000000000000157e-04,1.499999999999999869e-04,2.500000000000000052e-04,2.299999999999999799e-04,1.800000000000000113e-04,-1.300000000000000157e-04,1.000000000000000082e-05,6.000000000000000000e+00,2.300000000000000000e+01
5.804200000000000000e+04,1.699999999999999851e-04,1.300000000000000157e-04,1.499999999999999869e-04,2.500000000000000052e-04,2.299999999999999799e-04,1.800000000000000113e-04,-1.300000000000000157e-04,1.000000000000000082e-05,6.000000000000000000e+00,2.300000000000000000e+01
5.804300000000000000e+04,1.699999999999999851e-04,1.300000000000000157e-04,1.499999999999999869e-04,2.500000000000000052e-04,2.299999999999999799e-04,1.800000000000000113e-04,-1.300000000000000157e-04,1.000000000000000082e-05,6.000000000000000000e+00,2.300000000000000000e+01
5.804400000000000000e+04,-3.899999999999999929e-04,-5.000000000000000240e-05,-2.000000000000000164e-05,-2.999999999999999737e-05,4.000000000000000327e-05,2.200000000000000078e-04,8.000000000000000654e-05,5.000000000000000240e-05,6.000000000000000000e+00,2.300000000000000000e+01
5.804500000000000000e+04,-3.899999999999999929e-04,-5.000000000000000240e-05,-2.000000000000000164e-05,-2.999999999999999737e-05,4.000000000000000327e-05,2.200000000000000078e-04,8.000000000000000654e-05,5.000000000000000240e-05,6.000000000000000000e+00,2.300000000000000000e+01
5.804600000000000000e+04,-3.899999999999999929e-04,-5.000000000000000240e-05,-2.000000000000000164e-05,-2.999999999999999737e-05,4.000000000000000327e-05,2.200000000000000078e-04,8.000000000000000654e-05,5.000000000000000240e-05,6.000000000000000000e+00,2.300000000000000000e+01
5.804700000000000000e+04,-3.899999999999999929e-04,-5.000000000000000240e-05,-2.000000000000000164e-05,-2.999999999999999737e-05,4.000000000000000327e-05,2.200000000000000078e-04,8.000000000000000654e-05,5.000000000000000240e-05,6.000000000000000000e+00,2.300000000000000000e+01
5.804800000000000000e+04,-3.899999999999999929e-04,-5.000000000000000240e-05,-2.000000000000000164e-05,-2.999999999999999737e-05,4.000000000000000327e-05,2.200000000000000078e-04,8.000000000000000654e-05,5.000000000000000240e-05,6.000000000000000000e+00,2.300000000000000000e+01
5.804900000000000000e+04,-3.899999999999999929e-04,-5.000000000000000240e-05,-2.000000000000000164e-05,-2.999999999999999737e-05,4.000000000000000327e-05,2.200000000000000078e-04,8.000000000000000654e-05,5.000000000000000240e-05,6.000000000000000000e+00,2.300000000000000000e+01
5.805000000000000000e+04,-3.899999999999999929e-04,-5.000000000000000240e-05,-2.000000000000000164e-05,-2.999999999999999737e-05,4.000000000000000327e-05,2.200000000000000078e-04,8.000000000000000654e-05,5.000000000000000240e-05,6.000000000000000000e+00,2.300000000000000000e+01
5.805100000000000000e+04,-3.899999999999999929e-04,-5.000000000000000240e-05,-2.000000000000000164e-05,-2.999999999999999737e-05,4.000000000000000327e-05,2.200000000000000078e-04,8.000000000000000654e-05,5.000000000000000240e-05,6.000000000000000000e+00,2.300000000000000000e+01
5.805200000000000000e+04,-3.899999999999999929e-04,-5.000000000000000240e-05,-2.000000000000000164e-05,-2.999999999999999737e-05,4.000000000000000327e-05,2.200000000000000078e-04,8.000000000000000654e-05,5.000000000000000240e-05,6.000000000000000000e+00,2.300000000000000000e+01
5.805400000000000000e+04,-3.899999999999999929e-04,-5.000000000000000240e-05,-2.000000000000000164e-05,-2.999999999999999737e-05,4.000000000000000327e-05,2.200000000000000078e-04,8.000000000000000654e-05,5.000000000000000240e-05,6.000000000000000000e+00,2.300000000000000000e+01
5.805500000000000000e+04,-3.899999999999999929e-04,-5.000000000000000240e-05,-2.000000000000000164e-05,-2.999999999999999737e-05,4.000000000000000327e-05,2.200000000000000078e-04,8.000000000000000654e-05,5.000000000000000240e-05,6.000000000000000000e+00,2.300000000000000000e+01
5.805600000000000000e+04,-3.899999999999999929e-04,-5.000000000000000240e-05,-2.000000000000000164e-05,-2.999999999999999737e-05,4.000000000000000327e-05,2.200000000000000078e-04,8.000000000000000654e-05,5.000000000000000240e-05,6.000000000000000000e+00,2.300000000000000000e+01
5.805700000000000000e+04,-3.899999999999999929e-04,-5.000000000000000240e-05,-2.000000000000000164e-05,-2.999999999999999737e-05,4.000000000000000327e-05,2.200000000000000078e-04,8.000000000000000654e-05,5.000000000000000240e-05,6.000000000000000000e+00,2.300000000000000000e+01
5.805800000000000000e+04,1.000000000000000082e-05,5.000000000000000240e-05,-1.000000000000000082e-05,5.000000000000000240e-05,-5.999999999999999474e-05,-2.000000000000000096e-04,-1.000000000000000082e-05,-1.399999999999999877e-04,6.000000000000000000e+00,2.300000000000000000e+01
5.805900000000000000e+04,1.000000000000000082e-05,5.000000000000000240e-05,-1.000000000000000082e-05,5.000000000000000240e-05,-5.999999999999999474e-05,-2.000000000000000096e-04,-1.000000000000000082e-05,-1.399999999999999877e-04,6.000000000000000000e+00,2.300000000000000000e+01
5.806000000000000000e+04,-1.600000000000000131e-04,-8.000000000000000654e-05,2.000000000000000164e-05,-2.000000000000000164e-05,-9.000000000000000567e-05,2.100000000000000087e-04,1.399999999999999877e-04,-1.699999999999999851e-04,6.000000000000000000e+00,2.300000000000000000e+01
5.806100000000000000e+04,-1.600000000000000131e-04,-8.000000000000000654e-05,2.000000000000000164e-05,-2.000000000000000164e-05,-9.000000000000000567e-05,2.100000000000000087e-04,1.399999999999999877e-04,-1.699999999999999851e-04,6.000000000000000000e+00,2.300000000000000000e+01
5.806200000000000000e+04,-1.600000000000000131e-04,-8.000000000000000654e-05,2.000000000000000164e-05,-2.000000000000000164e-05,-9.000000000000000567e-05,2.100000000000000087e-04,1.399999999999999877e-04,-1.699999999999999851e-04,6.000000000000000000e+00,2.300000000000000000e+01
5.806300000000000000e+04,-1.600000000000000131e-04,-8.000000000000000654e-05,2.000000000000000164e-05,-2.000000000000000164e-05,-9.000000000000000567e-05,2.100000000000000087e-04,1.399999999999999877e-04,-1.699999999999999851e-04,6.000000000000000000e+00,2.300000000000000000e+01
5.806400000000000000e+04,-1.600000000000000131e-04,-8.000000000000000654e-05,2.000000000000000164e-05,-2.000000000000000164e-05,-9.000000000000000567e-05,2.100000000000000087e-04,1.399999999999999877e-04,-1.699999999999999851e-04,6.000000000000000000e+00,2.300000000000000000e+01
5.806500000000000000e+04,-1.600000000000000131e-04,-8.000000000000000654e-05,2.000000000000000164e-05,-2.000000000000000164e-05,-9.000000000000000567e-05,2.100000000000000087e-04,1.399999999999999877e-04,-1.699999999999999851e-04,6.000000000000000000e+00,2.300000000000000000e+01
5.806600000000000000e+04,-1.600000000000000131e-04,-8.000000000000000654e-05,2.000000000000000164e-05,-2.000000000000000164e-05,-9.000000000000000567e-05,2.100000000000000087e-04,1.399999999999999877e-04,-1.699999999999999851e-04,6.000000000000000000e+00,2.300000000000000000e+01
5.806700000000000000e+04,-1.600000000000000131e-04,-8.000000000000000654e-05,2.000000000000000164e-05,-2.000000000000000164e-05,-9.000000000000000567e-05,2.100000000000000087e-04,1.399999999999999877e-04,-1.699999999999999851e-04,6.000000000000000000e+00,2.300000000000000000e+01
5.806800000000000000e+04,-1.600000000000000131e-04,-8.000000000000000654e-05,2.000000000000000164e-05,-2.000000000000000164e-05,-9.000000000000000567e-05,2.100000000000000087e-04,1.399999999999999877e-04,-1.699999999999999851e-04,6.000000000000000000e+00,2.300000000000000000e+01
5.806900000000000000e+04,-1.600000000000000131e-04,-8.000000000000000654e-05,2.000000000000000164e-05,-2.000000000000000164e-05,-9.000000000000000567e-05,2.100000000000000087e-04,1.399999999999999877e-04,-1.699999999999999851e-04,6.000000000000000000e+00,2.300000000000000000e+01
5.807000000000000000e+04,-1.600000000000000131e-04,-8.000000000000000654e-05,2.000000000000000164e-05,-2.000000000000000164e-05,-9.000000000000000567e-05,2.100000000000000087e-04,1.399999999999999877e-04,-1.699999999999999851e-04,6.000000000000000000e+00,2.300000000000000000e+01
5.807100000000000000e+04,-1.600000000000000131e-04,-8.000000000000000654e-05,2.000000000000000164e-05,-2.000000000000000164e-05,-9.000000000000000567e-05,2.100000000000000087e-04,1.399999999999999877e-04,-1.699999999999999851e-04,6.000000000000000000e+00,2.300000000000000000e+01
5.807200000000000000e+04,-1.600000000000000131e-04,-8.000000000000000654e-05,2.000000000000000164e-05,-2.000000000000000164e-05,-9.000000000000000567e-05,2.100000000000000087e-04,1.399999999999999877e-04,-1.699999999999999851e-04,6.000000000000000000e+00,2.300000000000000000e+01
5.807300000000000000e+04,-1.600000000000000131e-04,-8.000000000000000654e-05,2.000000000000000164e-05,-2.000000000000000164e-05,-9.000000000000000567e-05,2.100000000000000087e-04,1.399999999999999877e-04,-1.699999999999999851e-04,6.000000000000000000e+00,2.300000000000000000e+01
5.807400000000000000e+04,-1.600000000000000131e-04,-8.000000000000000654e-05,2.000000000000000164e-05,-2.000000000000000164e-05,-9.000000000000000567e-05,2.100000000000000087e-04,1.399999999999999877e-04,-1.699999999999999851e-04,6.000000000000000000e+00,2.300000000000000000e+01
5.807500000000000000e+04,-1.600000000000000131e-04,-8.000000000000000654e-05,2.000000000000000164e-05,-2.000000000000000164e-05,-9.000000000000000567e-05,2.100000000000000087e-04,1.399999999999999877e-04,-1.699999999999999851e-04,6.000000000000000000e+00,2.300000000000000000e+01
5.807600000000000000e+04,-1.600000000000000131e-04,-8.000000000000000654e-05,2.000000000000000164e-05,-2.000000000000000164e-05,-9.000000000000000567e-05,2.100000000000000087e-04,1.399999999999999877e-04,-1.699999999999999851e-04,6.000000000000000000e+00,2.300000000000000000e+01
5.807700000000000000e+04,-1.600000000000000131e-04,-8.000000000000000654e-05,2.000000000000000164e-05,-2.000000000000000164e-05,-9.000000000000000567e-05,2.100000000000000087e-04,1.399999999999999877e-04,-1.699999999999999851e-04,6.000000000000000000e+00,2.300000000000000000e+01
5.807800000000000000e+04,-1.600000000000000131e-04,-8.000000000000000654e-05,2.000000000000000164e-05,-2.000000000000000164e-05,-9.000000000000000567e-05,2.100000000000000087e-04,1.399999999999999877e-04,-1.699999999999999851e-04,6.000000000000000000e+00,2.300000000000000000e+01
5.807900000000000000e+04,-1.600000000000000131e-04,-8.000000000000000654e-05,2.000000000000000164e-05,-2.000000000000000164e-05,-9.000000000000000567e-05,2.100000000000000087e-04,1.399999999999999877e-04,-1.699999999999999851e-04,6.000000000000000000e+00,2.300000000000000000e+01
5.808000000000000000e+04,-1.600000000000000131e-04,-8.000000000000000654e-05,2.000000000000000164e-05,-2.000000000000000164e-05,-9.000000000000000567e-05,2.100000000000000087e-04,1.399999999999999877e-04,-1.699999999999999851e-04,6.000000000000000000e+00,2.300000000000000000e+01
5.808100000000000000e+04,-1.600000000000000131e-04,-8.000000000000000654e-05,2.000000000000000164e-05,-2.000000000000000164e-05,-9.000000000000000567e-05,2.100000000000000087e-04,1.399999999999999877e-04,-1.699999999999999851e-04,6.000000000000000000e+00,2.300000000000000000e+01
5.808200000000000000e+04,-1.600000000000000131e-04,-8.000000000000000654e-05,2.000000000000000164e-05,-2.000000000000000164e-05,-9.000000000000000567e-05,2.100000000000000087e-04,1.399999999999999877e-04,-1.699999999999999851e-04,6.000000000000000000e+00,2.300000000000000000e+01
5.808300000000000000e+04,-1.600000000000000131e-04,-8.000000000000000654e-05,2.000000000000000164e-05,-2.000000000000000164e-05,-9.000000000000000567e-05,2.100000000000000087e-04,1.399999999999999877e-04,-1.699999999999999851e-04,6.000000000000000000e+00,2.300000000000000000e+01
5.808400000000000000e+04,-1.600000000000000131e-04,-8.000000000000000654e-05,2.000000000000000164e-05,-2.000000000000000164e-05,-9.000000000000000567e-05,2.100000000000000087e-04,1.399999999999999877e-04,-1.699999999999999851e-04,6.000000000000000000e+00,2.300000000000000000e+01
5.808500000000000000e+04,-1.600000000000000131e-04,-8.000000000000000654e-05,2.000000000000000164e-05,-2.000000000000000164e-05,-9.000000000000000567e-05,2.100000000000000087e-04,1.399999999999999877e-04,-1.699999999999999851e-04,6.000000000000000000e+00,2.300000000000000000e+01
5.808600000000000000e+04,-1.600000000000000131e-04,-8.000000000000000654e-05,2.000000000000000164e-05,-2.000000000000000164e-05,-9.000000000000000567e-05,2.100000000000000087e-04,1.399999999999999877e-04,-1.699999999999999851e-04,6.000000000000000000e+00,2.300000000000000000e+01
5.808700000000000000e+04,-1.600000000000000131e-04,-8.000000000000000654e-05,2.000000000000000164e-05,-2.000000000000000164e-05,-9.000000000000000567e-05,2.100000000000000087e-04,1.399999999999999877e-04,-1.699999999999999851e-04,6.000000000000000000e+00,2.300000000000000000e+01
5.808800000000000000e+04,-2.000000000000000096e-04,-2.200000000000000078e-04,-6.999999999999999387e-05,-2.000000000000000096e-04,-1.100000000000000039e-04,0.000000000000000000e+00,-6.999999999999999387e-05,3.499999999999999964e-04,6.000000000000000000e+00,2.300000000000000000e+01
5.808900000000000000e+04,-2.000000000000000096e-04,-2.200000000000000078e-04,-6.999999999999999387e-05,-2.000000000000000096e-04,-1.100000000000000039e-04,0.000000000000000000e+00,-6.999999999999999387e-05,3.499999999999999964e-04,6.000000000000000000e+00,2.300000000000000000e+01
5.809000000000000000e+04,-2.000000000000000096e-04,-2.200000000000000078e-04,-6.999999999999999387e-05,-2.000000000000000096e-04,-1.100000000000000039e-04,0.000000000000000000e+00,-6.999999999999999387e-05,3.499999999999999964e-04,6.000000000000000000e+00,2.300000000000000000e+01
5.809100000000000000e+04,-1.499999999999999869e-04,8.000000000000000654e-05,-1.000000000000000082e-05,9.000000000000000567e-05,4.200000000000000174e-04,2.700000000000000035e-04,4.000000000000000327e-05,-1.699999999999999851e-04,6.000000000000000000e+00,2.300000000000000000e+01
5.809200000000000000e+04,-1.499999999999999869e-04,8.000000000000000654e-05,-1.000000000000000082e-05,9.000000000000000567e-05,4.200000000000000174e-04,2.700000000000000035e-04,4.000000000000000327e-05,-1.699999999999999851e-04,6.000000000000000000e+00,2.300000000000000000e+01
5.809300000000000000e+04,-1.499999999999999869e-04,8.000000000000000654e-05,-1.000000000000000082e-05,9.000000000000000567e-05,4.200000000000000174e-04,2.700000000000000035e-04,4.000000000000000327e-05,-1.699999999999999851e-04,6.000000000000000000e+00,2.300000000000000000e+01
5.809400000000000000e+04,-1.499999999999999869e-04,8.000000000000000654e-05,-1.000000000000000082e-05,9.000000000000000567e-05,4.200000000000000174e-04,2.700000000000000035e-04,4.000000000000000327e-05,-1.699999999999999851e-04,6.000000000000000000e+00,2.300000000000000000e+01
5.809500000000000000e+04,1.499999999999999869e-04,-2.000000000000000164e-05,9.000000000000000567e-05,-9.000000000000000567e-05,6.999999999999999387e-05,1.100000000000000039e-04,-1.199999999999999895e-04,-4.000000000000000327e-05,6.000000000000000000e+00,2.300000000000000000e+01
5.809600000000000000e+04,1.499999999999999869e-04,-2.000000000000000164e-05,9.000000000000000567e-05,-9.000000000000000567e-05,6.999999999999999387e-05,1.100000000000000039e-04,-1.199999999999999895e-04,-4.000000000000000327e-05,6.000000000000000000e+00,2.300000000000000000e+01
5.809700000000000000e+04,1.499999999999999869e-04,-2.000000000000000164e-05,9.000000000000000567e-05,-9.000000000000000567e-05,6.999999999999999387e-05,1.100000000000000039e-04,-1.199999999999999895e-04,-4.000000000000000327e-05,6.000000000000000000e+00,2.300000000000000000e+01
5.809800000000000000e+04,1.499999999999999869e-04,-2.000000000000000164e-05,9.000000000000000567e-05,-9.000000000000000567e-05,6.999999999999999387e-05,1.100000000000000039e-04,-1.199999999999999895e-04,-4.000000000000000327e-05,6.000000000000000000e+00,2.300000000000000000e+01
5.810000000000000000e+04,1.499999999999999869e-04,-2.000000000000000164e-05,9.000000000000000567e-05,-9.000000000000000567e-05,6.999999999999999387e-05,1.100000000000000039e-04,-1.199999999999999895e-04,-4.000000000000000327e-05,6.000000000000000000e+00,2.300000000000000000e+01
5.810100000000000000e+04,1.499999999999999869e-04,-2.000000000000000164e-05,9.000000000000000567e-05,-9.000000000000000567e-05,6.999999999999999387e-05,1.100000000000000039e-04,-1.199999999999999895e-04,-4.000000000000000327e-05,6.000000000000000000e+00,2.300000000000000000e+01
5.810200000000000000e+04,1.499999999999999869e-04,-2.000000000000000164e-05,9.000000000000000567e-05,-9.000000000000000567e-05,6.999999999999999387e-05,1.100000000000000039e-04,-1.199999999999999895e-04,-4.000000000000000327e-05,6.000000000000000000e+00,2.300000000000000000e+01
5.810300000000000000e+04,2.000000000000000164e-05,-4.000000000000000327e-05,2.000000000000000164e-05,1.000000000000000048e-04,3.600000000000000227e-04,-2.000000000000000164e-05,-5.000000000000000240e-05,-1.600000000000000131e-04,6.000000000000000000e+00,2.300000000000000000e+01
5.810400000000000000e+04,2.000000000000000164e-05,-4.000000000000000327e-05,2.000000000000000164e-05,1.000000000000000048e-04,3.600000000000000227e-04,-2.000000000000000164e-05,-5.000000000000000240e-05,-1.600000000000000131e-04,6.000000000000000000e+00,2.300000000000000000e+01
5.810500000000000000e+04,2.000000000000000164e-05,-4.000000000000000327e-05,2.000000000000000164e-05,1.000000000000000048e-04,3.600000000000000227e-04,-2.000000000000000164e-05,-5.000000000000000240e-05,-1.600000000000000131e-04,6.000000000000000000e+00,2.300000000000000000e+01
5.810600000000000000e+04,2.000000000000000164e-05,-4.000000000000000327e-05,2.000000000000000164e-05,1.000000000000000048e-04,3.600000000000000227e-04,-2.000000000000000164e-05,-5.000000000000000240e-05,-1.600000000000000131e-04,6.000000000000000000e+00,2.300000000000000000e+01
5.810700000000000000e+04,2.000000000000000164e-05,-4.000000000000000327e-05,2.000000000000000164e-05,1.000000000000000048e-04,3.600000000000000227e-04,-2.000000000000000164e-05,-5.000000000000000240e-05,-1.600000000000000131e-04,6.000000000000000000e+00,2.300000000000000000e+01
5.810800000000000000e+04,2.000000000000000164e-05,-4.000000000000000327e-05,2.000000000000000164e-05,1.000000000000000048e-04,3.600000000000000227e-04,-2.000000000000000164e-05,-5.000000000000000240e-05,-1.600000000000000131e-04,6.000000000000000000e+00,2.300000000000000000e+01
5.810900000000000000e+04,2.000000000000000164e-05,-4.000000000000000327e-05,2.000000000000000164e-05,1.000000000000000048e-04,3.600000000000000227e-04,-2.000000000000000164e-05,-5.000000000000000240e-05,-1.600000000000000131e-04,6.000000000000000000e+00,2.300000000000000000e+01
5.811000000000000000e+04,2.000000000000000164e-05,-4.000000000000000327e-05,2.000000000000000164e-05,1.000000000000000048e-04,3.600000000000000227e-04,-2.000000000000000164e-05,-5.000000000000000240e-05,-1.600000000000000131e-04,6.000000000000000000e+00,2.300000000000000000e+01
5.811100000000000000e+04,2.000000000000000164e-05,-4.000000000000000327e-05,2.000000000000000164e-05,1.000000000000000048e-04,3.600000000000000227e-04,-2.000000000000000164e-05,-5.000000000000000240e-05,-1.600000000000000131e-04,6.000000000000000000e+00,2.300000000000000000e+01
5.811200000000000000e+04,2.000000000000000164e-05,-4.000000000000000327e-05,2.000000000000000164e-05,1.000000000000000048e-04,3.600000000000000227e-04,-2.000000000000000164e-05,-5.000000000000000240e-05,-1.600000000000000131e-04,6.000000000000000000e+00,2.300000000000000000e+01
5.811300000000000000e+04,2.000000000000000164e-05,-4.000000000000000327e-05,2.000000000000000164e-05,1.000000000000000048e-04,3.600000000000000227e-04,-2.000000000000000164e-05,-5.000000000000000240e-05,-1.600000000000000131e-04,6.000000000000000000e+00,2.300000000000000000e+01
5.811400000000000000e+04,2.000000000000000164e-05,-4.000000000000000327e-05,2.000000000000000164e-05,1.000000000000000048e-04,3.600000000000000227e-04,-2.000000000000000164e-05,-5.000000000000000240e-05,-1.600000000000000131e-04,6.000000000000000000e+00,2.300000000000000000e+01
5.811500000000000000e+04,2.000000000000000164e-05,-4.000000000000000327e-05,2.000000000000000164e-05,1.000000000000000048e-04,3.600000000000000227e-04,-2.000000000000000164e-05,-5.000000000000000240e-05,-1.600000000000000131e-04,6.000000000000000000e+00,2.300000000000000000e+01
5.811600000000000000e+04,2.000000000000000164e-05,-4.000000000000000327e-05,2.000000000000000164e-05,1.000000000000000048e-04,3.600000000000000227e-04,-2.000000000000000164e-05,-5.000000000000000240e-05,-1.600000000000000131e-04,6.000000000000000000e+00,2.300000000000000000e+01
5.811700000000000000e+04,2.000000000000000164e-05,-4.000000000000000327e-05,2.000000000000000164e-05,1.000000000000000048e-04,3.600000000000000227e-04,-2.000000000000000164e-05,-5.000000000000000240e-05,-1.600000000000000131e-04,6.000000000000000000e+00,2.300000000000000000e+01
5.811800000000000000e+04,4.400000000000000157e-04,1.800000000000000113e-04,-1.000000000000000082e-05,2.000000000000000164e-05,9.000000000000000567e-05,2.500000000000000052e-04,5.000000000000000240e-05,-4.000000000000000327e-05,6.000000000000000000e+00,2.300000000000000000e+01
5.811900000000000000e+04,4.400000000000000157e-04,1.800000000000000113e-04,-1.000000000000000082e-05,2.000000000000000164e-05,9.000000000000000567e-05,2.500000000000000052e-04,5.000000000000000240e-05,-4.000000000000000327e-05,6.000000000000000000e+00,2.300000000000000000e+01
5.812000000000000000e+04,-2.999999999999999737e-05,1.000000000000000082e-05,-2.999999999999999737e-05,5.000000000000000240e-05,-2.299999999999999799e-04,-8.000000000000000654e-05,2.000000000000000164e-05,-1.499999999999999869e-04,6.000000000000000000e+00,2.300000000000000000e+01
5.812100000000000000e+04,-2.999999999999999737e-05,1.000000000000000082e-05,-2.999999999999999737e-05,5.000000000000000240e-05,-2.299999999999999799e-04,-8.000000000000000654e-05,2.000000000000000164e-05,-1.499999999999999869e-04,6.000000000000000000e+00,2.300000000000000000e+01
5.812200000000000000e+04,-2.999999999999999737e-05,1.000000000000000082e-05,-2.999999999999999737e-05,5.000000000000000240e-05,-2.299999999999999799e-04,-8.000000000000000654e-05,2.000000000000000164e-05,-1.499999999999999869e-04,6.000000000000000000e+00,2.300000000000000000e+01
5.812300000000000000e+04,-2.999999999999999737e-05,1.000000000000000082e-05,-2.999999999999999737e-05,5.000000000000000240e-05,-2.299999999999999799e-04,-8.000000000000000654e-05,2.000000000000000164e-05,-1.499999999999999869e-04,6.000000000000000000e+00,2.300000000000000000e+01
5.812400000000000000e+04,-2.999999999999999737e-05,1.000000000000000082e-05,-2.999999999999999737e-05,5.000000000000000240e-05,-2.299999999999999799e-04,-8.000000000000000654e-05,2.000000000000000164e-05,-1.499999999999999869e-04,6.000000000000000000e+00,2.300000000000000000e+01
5.812500000000000000e+04,-2.999999999999999737e-05,1.000000000000000082e-05,-2.999999999999999737e-05,5.000000000000000240e-05,-2.299999999999999799e-04,-8.000000000000000654e-05,2.000000000000000164e-05,-1.499999999999999869e-04,6.000000000000000000e+00,2.300000000000000000e+01
5.812600000000000000e+04,-2.999999999999999737e-05,1.000000000000000082e-05,-2.999999999999999737e-05,5.000000000000000240e-05,-2.299999999999999799e-04,-8.000000000000000654e-05,2.000000000000000164e-05,-1.499999999999999869e-04,6.000000000000000000e+00,2.300000000000000000e+01
5.812700000000000000e+04,-2.999999999999999737e-05,1.000000000000000082e-05,-2.999999999999999737e-05,5.000000000000000240e-05,-2.299999999999999799e-04,-8.000000000000000654e-05,2.000000000000000164e-05,-1.499999999999999869e-04,6.000000000000000000e+00,2.300000000000000000e+01
5.812800000000000000e+04,-2.999999999999999737e-05,1.000000000000000082e-05,-2.999999999999999737e-05,5.000000000000000240e-05,-2.299999999999999799e-04,-8.000000000000000654e-05,2.000000000000000164e-05,-1.499999999999999869e-04,6.000000000000000000e+00,2.300000000000000000e+01
5.812900000000000000e+04,-2.999999999999999737e-05,1.000000000000000082e-05,-2.999999999999999737e-05,5.000000000000000240e-05,-2.299999999999999799e-04,-8.000000000000000654e-05,2.000000000000000164e-05,-1.499999999999999869e-04,6.000000000000000000e+00,2.300000000000000000e+01
5.813000000000000000e+04,-2.999999999999999737e-05,1.000000000000000082e-05,-2.999999999999999737e-05,5.000000000000000240e-05,-2.299999999999999799e-04,-8.000000000000000654e-05,2.000000000000000164e-05,-1.499999999999999869e-04,6.000000000000000000e+00,2.300000000000000000e+01
5.813100000000000000e+04,-2.999999999999999737e-05,1.000000000000000082e-05,-2.999999999999999737e-05,5.000000000000000240e-05,-2.299999999999999799e-04,-8.000000000000000654e-05,2.000000000000000164e-05,-1.499999999999999869e-04,6.000000000000000000e+00,2.300000000000000000e+01
5.813200000000000000e+04,-2.999999999999999737e-05,1.000000000000000082e-05,-2.999999999999999737e-05,5.000000000000000240e-05,-2.299999999999999799e-04,-8.000000000000000654e-05,2.000000000000000164e-05,-1.499999999999999869e-04,6.000000000000000000e+00,2.300000000000000000e+01
5.813300000000000000e+04,-2.999999999999999737e-05,1.000000000000000082e-05,-2.999999999999999737e-05,5.000000000000000240e-05,-2.299999999999999799e-04,-8.000000000000000654e-05,2.000000000000000164e-05,-1.499999999999999869e-04,6.000000000000000000e+00,2.300000000000000000e+01
5.813400000000000000e+04,-2.999999999999999737e-05,1.000000000000000082e-05,-2.999999999999999737e-05,5.000000000000000240e-05,-2.299999999999999799e-04,-8.000000000000000654e-05,2.000000000000000164e-05,-1.499999999999999869e-04,6.000000000000000000e+00,2.300000000000000000e+01
5.813500000000000000e+04,-2.999999999999999737e-05,1.000000000000000082e-05,-2.999999999999999737e-05,5.000000000000000240e-05,-2.299999999999999799e-04,-8.000000000000000654e-05,2.000000000000000164e-05,-1.499999999999999869e-04,6.000000000000000000e+00,2.300000000000000000e+01
5.813600000000000000e+04,-2.999999999999999737e-05,1.000000000000000082e-05,-2.999999999999999737e-05,5.000000000000000240e-05,-2.299999999999999799e-04,-8.000000000000000654e-05,2.000000000000000164e-05,-1.499999999999999869e-04,6.000000000000000000e+00,2.300000000000000000e+01
5.813700000000000000e+04,-2.999999999999999737e-05,1.000000000000000082e-05,-2.999999999999999737e-05,5.000000000000000240e-05,-2.299999999999999799e-04,-8.000000000000000654e-05,2.000000000000000164e-05,-1.499999999999999869e-04,6.000000000000000000e+00,2.300000000000000000e+01
5.813800000000000000e+04,-2.999999999999999737e-05,1.000000000000000082e-05,-2.999999999999999737e-05,5.000000000000000240e-05,-2.299999999999999799e-04,-8.000000000000000654e-05,2.000000000000000164e-05,-1.499999999999999869e-04,6.000000000000000000e+00,2.300000000000000000e+01
5.813900000000000000e+04,-2.999999999999999737e-05,1.000000000000000082e-05,-2.999999999999999737e-05,5.000000000000000240e-05,-2.299999999999999799e-04,-8.000000000000000654e-05,2.000000000000000164e-05,-1.499999999999999869e-04,6.000000000000000000e+00,2.300000000000000000e+01
5.814000000000000000e+04,-2.999999999999999737e-05,1.000000000000000082e-05,-2.999999999999999737e-05,5.000000000000000240e-05,-2.299999999999999799e-04,-8.000000000000000654e-05,2.000000000000000164e-05,-1.499999999999999869e-04,6.000000000000000000e+00,2.300000000000000000e+01
5.814100000000000000e+04,-6.999999999999999387e-05,-9.000000000000000567e-05,0.000000000000000000e+00,8.000000000000000654e-05,2.500000000000000052e-04,1.399999999999999877e-04,-1.699999999999999851e-04,4.099999999999999912e-04,6.000000000000000000e+00,2.300000000000000000e+01
5.814200000000000000e+04,1.399999999999999877e-04,5.999999999999999474e-05,-2.999999999999999737e-05,-5.000000000000000240e-05,-3.399999999999999702e-04,-4.000000000000000327e-05,2.000000000000000164e-05,-1.000000000000000082e-05,6.000000000000000000e+00,2.300000000000000000e+01
5.814300000000000000e+04,1.399999999999999877e-04,5.999999999999999474e-05,-2.999999999999999737e-05,-5.000000000000000240e-05,-3.399999999999999702e-04,-4.000000000000000327e-05,2.000000000000000164e-05,-1.000000000000000082e-05,6.000000000000000000e+00,2.300000000000000000e+01
5.814400000000000000e+04,1.399999999999999877e-04,5.999999999999999474e-05,-2.999999999999999737e-05,-5.000000000000000240e-05,-3.399999999999999702e-04,-4.000000000000000327e-05,2.000000000000000164e-05,-1.000000000000000082e-05,6.000000000000000000e+00,2.300000000000000000e+01
5.814500000000000000e+04,1.399999999999999877e-04,5.999999999999999474e-05,-2.999999999999999737e-05,-5.000000000000000240e-05,-3.399999999999999702e-04,-4.000000000000000327e-05,2.000000000000000164e-05,-1.000000000000000082e-05,6.000000000000000000e+00,2.300000000000000000e+01
5.814600000000000000e+04,1.399999999999999877e-04,5.999999999999999474e-05,-2.999999999999999737e-05,-5.000000000000000240e-05,-3.399999999999999702e-04,-4.000000000000000327e-05,2.000000000000000164e-05,-1.000000000000000082e-05,6.000000000000000000e+00,2.300000000000000000e+01
5.814800000000000000e+04,1.399999999999999877e-04,5.999999999999999474e-05,-2.999999999999999737e-05,-5.000000000000000240e-05,-3.399999999999999702e-04,-4.000000000000000327e-05,2.000000000000000164e-05,-1.000000000000000082e-05,6.000000000000000000e+00,2.300000000000000000e+01
5.814900000000000000e+04,1.399999999999999877e-04,5.999999999999999474e-05,-2.999999999999999737e-05,-5.000000000000000240e-05,-3.399999999999999702e-04,-4.000000000000000327e-05,2.000000000000000164e-05,-1.000000000000000082e-05,6.000000000000000000e+00,2.300000000000000000e+01
5.815000000000000000e+04,1.399999999999999877e-04,5.999999999999999474e-05,-2.999999999999999737e-05,-5.000000000000000240e-05,-3.399999999999999702e-04,-4.000000000000000327e-05,2.000000000000000164e-05,-1.000000000000000082e-05,6.000000000000000000e+00,2.300000000000000000e+01
5.815100000000000000e+04,1.399999999999999877e-04,5.999999999999999474e-05,-2.999999999999999737e-05,-5.000000000000000240e-05,-3.399999999999999702e-04,-4.000000000000000327e-05,2.000000000000000164e-05,-1.000000000000000082e-05,6.000000000000000000e+00,2.300000000000000000e+01
5.815200000000000000e+04,1.399999999999999877e-04,5.999999999999999474e-05,-2.999999999999999737e-05,-5.000000000000000240e-05,-3.399999999999999702e-04,-4.000000000000000327e-05,2.000000000000000164e-05,-1.000000000000000082e-05,6.000000000000000000e+00,2.300000000000000000e+01
5.815300000000000000e+04,1.399999999999999877e-04,5.999999999999999474e-05,-2.999999999999999737e-05,-5.000000000000000240e-05,-3.399999999999999702e-04,-4.000000000000000327e-05,2.000000000000000164e-05,-1.000000000000000082e-05,6.000000000000000000e+00,2.300000000000000000e+01
5.815400000000000000e+04,1.399999999999999877e-04,5.999999999999999474e-05,-2.999999999999999737e-05,-5.000000000000000240e-05,-3.399999999999999702e-04,-4.000000000000000327e-05,2.000000000000000164e-05,-1.000000000000000082e-05,6.000000000000000000e+00,2.300000000000000000e+01
5.815500000000000000e+04,-1.000000000000000048e-04,-2.100000000000000087e-04,-1.300000000000000157e-04,-6.999999999999999387e-05,-1.399999999999999877e-04,-1.699999999999999851e-04,-1.300000000000000157e-04,1.800000000000000113e-04,6.000000000000000000e+00,2.300000000000000000e+01
5.815600000000000000e+04,-1.000000000000000048e-04,-2.100000000000000087e-04,-1.300000000000000157e-04,-6.999999999999999387e-05,-1.399999999999999877e-04,-1.699999999999999851e-04,-1.300000000000000157e-04,1.800000000000000113e-04,6.000000000000000000e+00,2.300000000000000000e+01
5.815700000000000000e+04,-1.000000000000000048e-04,-2.100000000000000087e-04,-1.300000000000000157e-04,-6.999999999999999387e-05,-1.399999999999999877e-04,-1.699999999999999851e-04,-1.300000000000000157e-04,1.800000000000000113e-04,6.000000000000000000e+00,2.300000000000000000e+01
5.815800000000000000e+04,-1.000000000000000048e-04,-2.100000000000000087e-04,-1.300000000000000157e-04,-6.999999999999999387e-05,-1.399999999999999877e-04,-1.699999999999999851e-04,-1.300000000000000157e-04,1.800000000000000113e-04,6.000000000000000000e+00,2.300000000000000000e+01
5.815900000000000000e+04,-1.000000000000000048e-04,-2.100000000000000087e-04,-1.300000000000000157e-04,-6.999999999999999387e-05,-1.399999999999999877e-04,-1.699999999999999851e-04,-1.300000000000000157e-04,1.800000000000000113e-04,6.000000000000000000e+00,2.300000000000000000e+01
5.816000000000000000e+04,-1.000000000000000048e-04,-2.100000000000000087e-04,-1.300000000000000157e-04,-6.999999999999999387e-05,-1.399999999999999877e-04,-1.699999999999999851e-04,-1.300000000000000157e-04,1.800000000000000113e-04,6.000000000000000000e+00,2.300000000000000000e+01
5.816100000000000000e+04,-1.000000000000000048e-04,-2.100000000000000087e-04,-1.300000000000000157e-04,-6.999999999999999387e-05,-1.399999999999999877e-04,-1.699999999999999851e-04,-1.300000000000000157e-04,1.800000000000000113e-04,6.000000000000000000e+00,2.300000000000000000e+01
5.816200000000000000e+04,-1.000000000000000048e-04,-2.100000000000000087e-04,-1.300000000000000157e-04,-6.999999999999999387e-05,-1.399999999999999877e-04,-1.699999999999999851e-04,-1.300000000000000157e-04,1.800000000000000113e-04,6.000000000000000000e+00,2.300000000000000000e+01
5.816300000000000000e+04,-1.000000000000000048e-04,-2.100000000000000087e-04,-1.300000000000000157e-04,-6.999999999999999387e-05,-1.399999999999999877e-04,-1.699999999999999851e-04,-1.300000000000000157e-04,1.800000000000000113e-04,6.000000000000000000e+00,2.300000000000000000e+01
5.816400000000000000e+04,4.899999999999999842e-04,6.999999999999999387e-05,8.000000000000000654e-05,-2.999999999999999737e-05,-2.999999999999999737e-05,-1.499999999999999869e-04,-1.199999999999999895e-04,9.000000000000000567e-05,6.000000000000000000e+00,2.300000000000000000e+01
5.816500000000000000e+04,4.899999999999999842e-04,6.999999999999999387e-05,8.000000000000000654e-05,-2.999999999999999737e-05,-2.999999999999999737e-05,-1.499999999999999869e-04,-1.199999999999999895e-04,9.000000000000000567e-05,6.000000000000000000e+00,2.300000000000000000e+01
5.816600000000000000e+04,4.899999999999999842e-04,6.999999999999999387e-05,8.000000000000000654e-05,-2.999999999999999737e-05,-2.999999999999999737e-05,-1.499999999999999869e-04,-1.199999999999999895e-04,9.000000000000000567e-05,6.000000000000000000e+00,2.300000000000000000e+01
5.816700000000000000e+04,4.899999999999999842e-04,6.999999999999999387e-05,8.000000000000000654e-05,-2.999999999999999737e-05,-2.999999999999999737e-05,-1.499999999999999869e-04,-1.199999999999999895e-04,9.000000000000000567e-05,6.000000000000000000e+00,2.300000000000000000e+01
5.816800000000000000e+04,4.899999999999999842e-04,6.999999999999999387e-05,8.000000000000000654e-05,-2.999999999999999737e-05,-2.999999999999999737e-05,-1.499999999999999869e-04,-1.199999999999999895e-04,9.000000000000000567e-05,6.000000000000000000e+00,2.300000000000000000e+01
5.816900000000000000e+04,4.899999999999999842e-04,6.999999999999999387e-05,8.000000000000000654e-05,-2.999999999999999737e-05,-2.999999999999999737e-05,-1.499999999999999869e-04,-1.199999999999999895e-04,9.000000000000000567e-05,6.000000000000000000e+00,2.300000000000000000e+01
5.817000000000000000e+04,4.899999999999999842e-04,6.999999999999999387e-05,8.000000000000000654e-05,-2.999999999999999737e-05,-2.999999999999999737e-05,-1.499999999999999869e-04,-1.199999999999999895e-04,9.000000000000000567e-05,6.000000000000000000e+00,2.300000000000000000e+01
5.817100000000000000e+04,4.899999999999999842e-04,6.999999999999999387e-05,8.000000000000000654e-05,-2.999999999999999737e-05,-2.999999999999999737e-05,-1.499999999999999869e-04,-1.199999999999999895e-04,9.000000000000000567e-05,6.000000000000000000e+00,2.300000000000000000e+01
5.817200000000000000e+04,4.899999999999999842e-04,6.999999999999999387e-05,8.000000000000000654e-05,-2.999999999999999737e-05,-2.999999999999999737e-05,-1.499999999999999869e-04,-1.199999999999999895e-04,9.000000000000000567e-05,6.000000000000000000e+00,2.300000000000000000e+01
5.817300000000000000e+04,4.899999999999999842e-04,6.999999999999999387e-05,8.000000000000000654e-05,-2.999999999999999737e-05,-2.999999999999999737e-05,-1.499999999999999869e-04,-1.199999999999999895e-04,9.000000000000000567e-05,6.000000000000000000e+00,2.300000000000000000e+01
5.817400000000000000e+04,4.899999999999999842e-04,6.999999999999999387e-05,8.000000000000000654e-05,-2.999999999999999737e-05,-2.999999999999999737e-05,-1.499999999999999869e-04,-1.199999999999999895e-04,9.000000000000000567e-05,6.000000000000000000e+00,2.300000000000000000e+01
5.817500000000000000e+04,4.899999999999999842e-04,6.999999999999999387e-05,8.000000000000000654e-05,-2.999999999999999737e-05,-2.999999999999999737e-05,-1.499999999999999869e-04,-1.199999999999999895e-04,9.000000000000000567e-05,6.000000000000000000e+00,2.300000000000000000e+01
5.817600000000000000e+04,4.899999999999999842e-04,6.999999999999999387e-05,8.000000000000000654e-05,-2.999999999999999737e-05,-2.999999999999999737e-05,-1.499999999999999869e-04,-1.199999999999999895e-04,9.000000000000000567e-05,6.000000000000000000e+00,2.300000000000000000e+01
5.817700000000000000e+04,4.899999999999999842e-04,6.999999999999999387e-05,8.000000000000000654e-05,-2.999999999999999737e-05,-2.999999999999999737e-05,-1.499999999999999869e-04,-1.199999999999999895e-04,9.000000000000000567e-05,6.000000000000000000e+00,2.300000000000000000e+01
5.817800000000000000e+04,-4.700000000000000401e-04,-4.000000000000000327e-05,-1.600000000000000131e-04,1.100000000000000039e-04,2.200000000000000078e-04,-1.800000000000000113e-04,2.999999999999999737e-05,-4.299999999999999894e-04,6.000000000000000000e+00,2.300000000000000000e+01
5.817900000000000000e+04,-4.700000000000000401e-04,-4.000000000000000327e-05,-1.600000000000000131e-04,1.100000000000000039e-04,2.200000000000000078e-04,-1.800000000000000113e-04,2.999999999999999737e-05,-4.299999999999999894e-04,6.000000000000000000e+00,2.300000000000000000e+01
5.818000000000000000e+04,-5.999999999999999474e-05,1.000000000000000082e-05,-2.999999999999999737e-05,-1.199999999999999895e-04,-4.000000000000000192e-04,-1.199999999999999895e-04,-2.600000000000000314e-04,1.000000000000000082e-05,6.000000000000000000e+00,2.300000000000000000e+01
5.818100000000000000e+04,-5.999999999999999474e-05,1.000000000000000082e-05,-2.999999999999999737e-05,-1.199999999999999895e-04,-4.000000000000000192e-04,-1.199999999999999895e-04,-2.600000000000000314e-04,1.000000000000000082e-05,6.000000000000000000e+00,2.300000000000000000e+01
5.818200000000000000e+04,-5.999999999999999474e-05,1.000000000000000082e-05,-2.999999999999999737e-05,-1.199999999999999895e-04,-4.000000000000000192e-04,-1.199999999999999895e-04,-2.600000000000000314e-04,1.000000000000000082e-05,6.000000000000000000e+00,2.300000000000000000e+01
5.818300000000000000e+04,-5.999999999999999474e-05,1.000000000000000082e-05,-2.999999999999999737e-05,-1.199999999999999895e-04,-4.000000000000000192e-04,-1.199999999999999895e-04,-2.600000000000000314e-04,1.000000000000000082e-05,6.000000000000000000e+00,2.300000000000000000e+01
5.818400000000000000e+04,-5.999999999999999474e-05,1.000000000000000082e-05,-2.999999999999999737e-05,-1.199999999999999895e-04,-4.000000000000000192e-04,-1.199999999999999895e-04,-2.600000000000000314e-04,1.000000000000000082e-05,6.000000000000000000e+00,2.300000000000000000e+01
5.818500000000000000e+04,-5.999999999999999474e-05,1.000000000000000082e-05,-2.999999999999999737e-05,-1.199999999999999895e-04,-4.000000000000000192e-04,-1.199999999999999895e-04,-2.600000000000000314e-04,1.000000000000000082e-05,6.000000000000000000e+00,2.300000000000000000e+01
5.818600000000000000e+04,-5.999999999999999474e-05,1.000000000000000082e-05,-2.999999999999999737e-05,-1.199999999999999895e-04,-4.000000000000000192e-04,-1.199999999999999895e-04,-2.600000000000000314e-04,1.000000000000000082e-05,6.000000000000000000e+00,2.300000000000000000e+01
5.818700000000000000e+04,-5.999999999999999474e-05,1.000000000000000082e-05,-2.999999999999999737e-05,-1.199999999999999895e-04,-4.000000000000000192e-04,-1.199999999999999895e-04,-2.600000000000000314e-04,1.000000000000000082e-05,6.000000000000000000e+00,2.300000000000000000e+01
5.818800000000000000e+04,-5.999999999999999474e-05,1.000000000000000082e-05,-2.999999999999999737e-05,-1.199999999999999895e-04,-4.000000000000000192e-04,-1.199999999999999895e-04,-2.600000000000000314e-04,1.000000000000000082e-05,6.000000000000000000e+00,2.300000000000000000e+01
5.818900000000000000e+04,-5.999999999999999474e-05,1.000000000000000082e-05,-2.999999999999999737e-05,-1.199999999999999895e-04,-4.000000000000000192e-04,-1.199999999999999895e-04,-2.600000000000000314e-04,1.000000000000000082e-05,6.000000000000000000e+00,2.300000000000000000e+01
5.819000000000000000e+04,-5.999999999999999474e-05,1.000000000000000082e-05,-2.999999999999999737e-05,-1.199999999999999895e-04,-4.000000000000000192e-04,-1.199999999999999895e-04,-2.600000000000000314e-04,1.000000000000000082e-05,6.000000000000000000e+00,2.300000000000000000e+01
5.819100000000000000e+04,-5.999999999999999474e-05,1.000000000000000082e-05,-2.999999999999999737e-05,-1.199999999999999895e-04,-4.000000000000000192e-04,-1.199999999999999895e-04,-2.600000000000000314e-04,1.000000000000000082e-05,6.000000000000000000e+00,2.300000000000000000e+01
5.819200000000000000e+04,-5.999999999999999474e-05,1.000000000000000082e-05,-2.999999999999999737e-05,-1.199999999999999895e-04,-4.000000000000000192e-04,-1.199999999999999895e-04,-2.600000000000000314e-04,1.000000000000000082e-05,6.000000000000000000e+00,2.300000000000000000e+01
5.819300000000000000e+04,-5.999999999999999474e-05,1.000000000000000082e-05,-2.999999999999999737e-05,-1.199999999999999895e-04,-4.000000000000000192e-04,-1.199999999999999895e-04,-2.600000000000000314e-04,1.000000000000000082e-05,6.000000000000000000e+00,2.300000000000000000e+01
5.819500000000000000e+04,-5.999999999999999474e-05,1.000000000000000082e-05,-2.999999999999999737e-05,-1.199999999999999895e-04,-4.000000000000000192e-04,-1.199999999999999895e-04,-2.600000000000000314e-04,1.000000000000000082e-05,6.000000000000000000e+00,2.300000000000000000e+01
5.819600000000000000e+04,-5.999999999999999474e-05,1.000000000000000082e-05,-2.999999999999999737e-05,-1.199999999999999895e-04,-4.000000000000000192e-04,-1.199999999999999895e-04,-2.600000000000000314e-04,1.000000000000000082e-05,6.000000000000000000e+00,2.300000000000000000e+01
5.819700000000000000e+04,-5.999999999999999474e-05,1.000000000000000082e-05,-2.999999999999999737e-05,-1.199999999999999895e-04,-4.000000000000000192e-04,-1.199999999999999895e-04,-2.600000000000000314e-04,1.000000000000000082e-05,6.000000000000000000e+00,2.300000000000000000e+01
5.819800000000000000e+04,-5.999999999999999474e-05,1.000000000000000082e-05,-2.999999999999999737e-05,-1.199999999999999895e-04,-4.000000000000000192e-04,-1.199999999999999895e-04,-2.600000000000000314e-04,1.000000000000000082e-05,6.000000000000000000e+00,2.300000000000000000e+01
5.819900000000000000e+04,-5.999999999999999474e-05,1.000000000000000082e-05,-2.999999999999999737e-05,-1.199999999999999895e-04,-4.000000000000000192e-04,-1.199999999999999895e-04,-2.600000000000000314e-04,1.000000000000000082e-05,6.000000000000000000e+00,2.300000000000000000e+01
5.820000000000000000e+04,-5.999999999999999474e-05,1.000000000000000082e-05,-2.999999999999999737e-05,-1.199999999999999895e-04,-4.000000000000000192e-04,-1.199999999999999895e-04,-2.600000000000000314e-04,1.000000000000000082e-05,6.000000000000000000e+00,2.300000000000000000e+01
5.820100000000000000e+04,-1.699999999999999851e-04,5.999999999999999474e-05,1.000000000000000082e-05,-2.000000000000000164e-05,-3.899999999999999929e-04,-1.899999999999999834e-04,1.199999999999999895e-04,-1.699999999999999851e-04,6.000000000000000000e+00,2.300000000000000000e+01
5.820200000000000000e+04,-1.800000000000000113e-04,-1.000000000000000048e-04,0.000000000000000000e+00,-5.000000000000000240e-05,4.000000000000000327e-05,-2.999999999999999737e-05,-8.000000000000000654e-05,-5.999999999999999474e-05,6.000000000000000000e+00,2.300000000000000000e+01
5.820300000000000000e+04,-1.800000000000000113e-04,-1.000000000000000048e-04,0.000000000000000000e+00,-5.000000000000000240e-05,4.000000000000000327e-05,-2.999999999999999737e-05,-8.000000000000000654e-05,-5.999999999999999474e-05,6.000000000000000000e+00,2.300000000000000000e+01
5.820400000000000000e+04,-1.800000000000000113e-04,-1.000000000000000048e-04,0.000000000000000000e+00,-5.000000000000000240e-05,4.000000000000000327e-05,-2.999999999999999737e-05,-8.000000000000000654e-05,-5.999999999999999474e-05,6.000000000000000000e+00,2.300000000000000000e+01
5.820500000000000000e+04,-1.800000000000000113e-04,-1.000000000000000048e-04,0.000000000000000000e+00,-5.000000000000000240e-05,4.000000000000000327e-05,-2.999999999999999737e-05,-8.000000000000000654e-05,-5.999999999999999474e-05,6.000000000000000000e+00,2.300000000000000000e+01
5.820600000000000000e+04,-1.800000000000000113e-04,-1.000000000000000048e-04,0.000000000000000000e+00,-5.000000000000000240e-05,4.000000000000000327e-05,-2.999999999999999737e-05,-8.000000000000000654e-05,-5.999999999999999474e-05,6.000000000000000000e+00,2.300000000000000000e+01
5.820700000000000000e+04,-1.800000000000000113e-04,-1.000000000000000048e-04,0.000000000000000000e+00,-5.000000000000000240e-05,4.000000000000000327e-05,-2.999999999999999737e-05,-8.000000000000000654e-05,-5.999999999999999474e-05,6.000000000000000000e+00,2.300000000000000000e+01
5.820800000000000000e+04,-1.800000000000000113e-04,-1.000000000000000048e-04,0.000000000000000000e+00,-5.000000000000000240e-05,4.000000000000000327e-05,-2.999999999999999737e-05,-8.000000000000000654e-05,-5.999999999999999474e-05,6.000000000000000000e+00,2.300000000000000000e+01
5.820900000000000000e+04,-1.800000000000000113e-04,-1.000000000000000048e-04,0.000000000000000000e+00,-5.000000000000000240e-05,4.000000000000000327e-05,-2.999999999999999737e-05,-8.000000000000000654e-05,-5.999999999999999474e-05,6.000000000000000000e+00,2.300000000000000000e+01
5.821000000000000000e+04,-1.800000000000000113e-04,-1.000000000000000048e-04,0.000000000000000000e+00,-5.000000000000000240e-05,4.000000000000000327e-05,-2.999999999999999737e-05,-8.000000000000000654e-05,-5.999999999999999474e-05,6.000000000000000000e+00,2.300000000000000000e+01
5.821100000000000000e+04,-1.800000000000000113e-04,-1.000000000000000048e-04,0.000000000000000000e+00,-5.000000000000000240e-05,4.000000000000000327e-05,-2.999999999999999737e-05,-8.000000000000000654e-05,-5.999999999999999474e-05,6.000000000000000000e+00,2.300000000000000000e+01
5.821200000000000000e+04,-1.800000000000000113e-04,-1.000000000000000048e-04,0.000000000000000000e+00,-5.000000000000000240e-05,4.000000000000000327e-05,-2.999999999999999737e-05,-8.000000000000000654e-05,-5.999999999999999474e-05,6.000000000000000000e+00,2.300000000000000000e+01
5.821300000000000000e+04,-1.800000000000000113e-04,-1.000000000000000048e-04,0.000000000000000000e+00,-5.000000000000000240e-05,4.000000000000000327e-05,-2.999999999999999737e-05,-8.000000000000000654e-05,-5.999999999999999474e-05,6.000000000000000000e+00,2.300000000000000000e+01
5.821400000000000000e+04,-1.199999999999999895e-04,-4.000000000000000327e-05,5.999999999999999474e-05,-2.999999999999999737e-05,-4.799999999999999580e-04,-1.800000000000000113e-04,0.000000000000000000e+00,5.500000000000000331e-04,6.000000000000000000e+00,2.300000000000000000e+01
5.821500000000000000e+04,-1.199999999999999895e-04,-4.000000000000000327e-05,5.999999999999999474e-05,-2.999999999999999737e-05,-4.799999999999999580e-04,-1.800000000000000113e-04,0.000000000000000000e+00,5.500000000000000331e-04,6.000000000000000000e+00,2.300000000000000000e+01
5.821600000000000000e+04,-1.199999999999999895e-04,-4.000000000000000327e-05,5.999999999999999474e-05,-2.999999999999999737e-05,-4.799999999999999580e-04,-1.800000000000000113e-04,0.000000000000000000e+00,5.500000000000000331e-04,6.000000000000000000e+00,2.300000000000000000e+01
5.821700000000000000e+04,-1.199999999999999895e-04,-4.000000000000000327e-05,5.999999999999999474e-05,-2.999999999999999737e-05,-4.799999999999999580e-04,-1.800000000000000113e-04,0.000000000000000000e+00,5.500000000000000331e-04,6.000000000000000000e+00,2.300000000000000000e+01
5.821800000000000000e+04,-1.199999999999999895e-04,-4.000000000000000327e-05,5.999999999999999474e-05,-2.999999999999999737e-05,-4.799999999999999580e-04,-1.800000000000000113e-04,0.000000000000000000e+00,5.500000000000000331e-04,6.000000000000000000e+00,2.300000000000000000e+01
5.821900000000000000e+04,-1.199999999999999895e-04,-4.000000000000000327e-05,5.999999999999999474e-05,-2.999999999999999737e-05,-4.799999999999999580e-04,-1.800000000000000113e-04,0.000000000000000000e+00,5.500000000000000331e-04,6.000000000000000000e+00,2.300000000000000000e+01
5.822000000000000000e+04,-1.199999999999999895e-04,-4.000000000000000327e-05,5.999999999999999474e-05,-2.999999999999999737e-05,-4.799999999999999580e-04,-1.800000000000000113e-04,0.000000000000000000e+00,5.500000000000000331e-04,6.000000000000000000e+00,2.300000000000000000e+01
5.822100000000000000e+04,-1.199999999999999895e-04,-4.000000000000000327e-05,5.999999999999999474e-05,-2.999999999999999737e-05,-4.799999999999999580e-04,-1.800000000000000113e-04,0.000000000000000000e+00,5.500000000000000331e-04,6.000000000000000000e+00,2.300000000000000000e+01
5.822200000000000000e+04,-1.199999999999999895e-04,-4.000000000000000327e-05,5.999999999999999474e-05,-2.999999999999999737e-05,-4.799999999999999580e-04,-1.800000000000000113e-04,0.000000000000000000e+00,5.500000000000000331e-04,6.000000000000000000e+00,2.300000000000000000e+01
5.822300000000000000e+04,4.400000000000000157e-04,1.800000000000000113e-04,9.000000000000000567e-05,2.999999999999999737e-05,5.000000000000000240e-05,-2.399999999999999790e-04,-2.999999999999999737e-05,-2.799999999999999755e-04,6.000000000000000000e+00,2.300000000000000000e+01
5.822400000000000000e+04,4.400000000000000157e-04,1.800000000000000113e-04,9.000000000000000567e-05,2.999999999999999737e-05,5.000000000000000240e-05,-2.399999999999999790e-04,-2.999999999999999737e-05,-2.799999999999999755e-04,6.000000000000000000e+00,2.300000000000000000e+01
5.822500000000000000e+04,4.400000000000000157e-04,1.800000000000000113e-04,9.000000000000000567e-05,2.999999999999999737e-05,5.000000000000000240e-05,-2.399999999999999790e-04,-2.999999999999999737e-05,-2.799999999999999755e-04,6.000000000000000000e+00,2.300000000000000000e+01
5.822600000000000000e+04,4.400000000000000157e-04,1.800000000000000113e-04,9.000000000000000567e-05,2.999999999999999737e-05,5.000000000000000240e-05,-2.399999999999999790e-04,-2.999999999999999737e-05,-2.799999999999999755e-04,6.000000000000000000e+00,2.300000000000000000e+01
5.822700000000000000e+04,4.400000000000000157e-04,1.800000000000000113e-04,9.000000000000000567e-05,2.999999999999999737e-05,5.000000000000000240e-05,-2.399999999999999790e-04,-2.999999999999999737e-05,-2.799999999999999755e-04,6.000000000000000000e+00,2.300000000000000000e+01
5.822800000000000000e+04,4.400000000000000157e-04,1.800000000000000113e-04,9.000000000000000567e-05,2.999999999999999737e-05,5.000000000000000240e-05,-2.399999999999999790e-04,-2.999999999999999737e-05,-2.799999999999999755e-04,6.000000000000000000e+00,2.300000000000000000e+01
5.822900000000000000e+04,4.400000000000000157e-04,1.800000000000000113e-04,9.000000000000000567e-05,2.999999999999999737e-05,5.000000000000000240e-05,-2.399999999999999790e-04,-2.999999999999999737e-05,-2.799999999999999755e-04,6.000000000000000000e+00,2.300000000000000000e+01
5.823000000000000000e+04,4.400000000000000157e-04,1.800000000000000113e-04,9.000000000000000567e-05,2.999999999999999737e-05,5.000000000000000240e-05,-2.399999999999999790e-04,-2.999999999999999737e-05,-2.799999999999999755e-04,6.000000000000000000e+00,2.300000000000000000e+01
5.823100000000000000e+04,4.400000000000000157e-04,1.800000000000000113e-04,9.000000000000000567e-05,2.999999999999999737e-05,5.000000000000000240e-05,-2.399999999999999790e-04,-2.999999999999999737e-05,-2.799999999999999755e-04,6.000000000000000000e+00,2.300000000000000000e+01
5.823200000000000000e+04,4.400000000000000157e-04,1.800000000000000113e-04,9.000000000000000567e-05,2.999999999999999737e-05,5.000000000000000240e-05,-2.399999999999999790e-04,-2.999999999999999737e-05,-2.799999999999999755e-04,6.000000000000000000e+00,2.300000000000000000e+01
5.823300000000000000e+04,4.400000000000000157e-04,1.800000000000000113e-04,9.000000000000000567e-05,2.999999999999999737e-05,5.000000000000000240e-05,-2.399999999999999790e-04,-2.999999999999999737e-05,-2.799999999999999755e-04,6.000000000000000000e+00,2.300000000000000000e+01
5.823400000000000000e+04,4.400000000000000157e-04,1.800000000000000113e-04,9.000000000000000567e-05,2.999999999999999737e-05,5.000000000000000240e-05,-2.399999999999999790e-04,-2.999999999999999737e-05,-2.799999999999999755e-04,6.000000000000000000e+00,2.300000000000000000e+01
5.823500000000000000e+04,4.400000000000000157e-04,1.800000000000000113e-04,9.000000000000000567e-05,2.999999999999999737e-05,5.000000000000000240e-05,-2.399999999999999790e-04,-2.999999999999999737e-05,-2.799999999999999755e-04,6.000000000000000000e+00,2.300000000000000000e+01
5.823600000000000000e+04,4.400000000000000157e-04,1.800000000000000113e-04,9.000000000000000567e-05,2.999999999999999737e-05,5.000000000000000240e-05,-2.399999999999999790e-04,-2.999999999999999737e-05,-2.799999999999999755e-04,6.000000000000000000e+00,2.300000000000000000e+01
5.823700000000000000e+04,4.400000000000000157e-04,1.800000000000000113e-04,9.000000000000000567e-05,2.999999999999999737e-05,5.000000000000000240e-05,-2.399999999999999790e-04,-2.999999999999999737e-05,-2.799999999999999755e-04,6.000000000000000000e+00,2.300000000000000000e+01
5.823800000000000000e+04,1.199999999999999895e-04,2.999999999999999737e-05,-5.999999999999999474e-05,-2.000000000000000164e-05,2.000000000000000096e-04,-5.999999999999999474e-05,1.399999999999999877e-04,-1.600000000000000131e-04,6.000000000000000000e+00,2.300000000000000000e+01
5.823900000000000000e+04,1.199999999999999895e-04,2.999999999999999737e-05,-5.999999999999999474e-05,-2.000000000000000164e-05,2.000000000000000096e-04,-5.999999999999999474e-05,1.399999999999999877e-04,-1.600000000000000131e-04,6.000000000000000000e+00,2.300000000000000000e+01
5.824200000000000000e+04,-1.199999999999999895e-04,-2.999999999999999737e-05,2.999999999999999737e-05,-1.000000000000000082e-05,1.000000000000000048e-04,-6.999999999999999387e-05,8.000000000000000654e-05,-8.000000000000000654e-05,6.000000000000000000e+00,2.300000000000000000e+01
5.824300000000000000e+04,-1.199999999999999895e-04,-2.999999999999999737e-05,2.999999999999999737e-05,-1.000000000000000082e-05,1.000000000000000048e-04,-6.999999999999999387e-05,8.000000000000000654e-05,-8.000000000000000654e-05,6.000000000000000000e+00,2.300000000000000000e+01
5.824400000000000000e+04,-1.199999999999999895e-04,-2.999999999999999737e-05,2.999999999999999737e-05,-1.000000000000000082e-05,1.000000000000000048e-04,-6.999999999999999387e-05,8.000000000000000654e-05,-8.000000000000000654e-05,6.000000000000000000e+00,2.300000000000000000e+01
5.824500000000000000e+04,-1.199999999999999895e-04,-2.999999999999999737e-05,2.999999999999999737e-05,-1.000000000000000082e-05,1.000000000000000048e-04,-6.999999999999999387e-05,8.000000000000000654e-05,-8.000000000000000654e-05,6.000000000000000000e+00,2.300000000000000000e+01
5.824600000000000000e+04,-1.199999999999999895e-04,-2.999999999999999737e-05,2.999999999999999737e-05,-1.000000000000000082e-05,1.000000000000000048e-04,-6.999999999999999387e-05,8.000000000000000654e-05,-8.000000000000000654e-05,6.000000000000000000e+00,2.300000000000000000e+01
5.824700000000000000e+04,-1.199999999999999895e-04,-2.999999999999999737e-05,2.999999999999999737e-05,-1.000000000000000082e-05,1.000000000000000048e-04,-6.999999999999999387e-05,8.000000000000000654e-05,-8.000000000000000654e-05,6.000000000000000000e+00,2.300000000000000000e+01
5.824800000000000000e+04,-1.199999999999999895e-04,-2.999999999999999737e-05,2.999999999999999737e-05,-1.000000000000000082e-05,1.000000000000000048e-04,-6.999999999999999387e-05,8.000000000000000654e-05,-8.000000000000000654e-05,6.000000000000000000e+00,2.300000000000000000e+01
5.824900000000000000e+04,-1.199999999999999895e-04,-2.999999999999999737e-05,2.999999999999999737e-05,-1.000000000000000082e-05,1.000000000000000048e-04,-6.999999999999999387e-05,8.000000000000000654e-05,-8.000000000000000654e-05,6.000000000000000000e+00,2.300000000000000000e+01
5.825000000000000000e+04,-1.199999999999999895e-04,-2.999999999999999737e-05,2.999999999999999737e-05,-1.000000000000000082e-05,1.000000000000000048e-04,-6.999999999999999387e-05,8.000000000000000654e-05,-8.000000000000000654e-05,6.000000000000000000e+00,2.300000000000000000e+01
5.825100000000000000e+04,-1.199999999999999895e-04,-2.999999999999999737e-05,2.999999999999999737e-05,-1.000000000000000082e-05,1.000000000000000048e-04,-6.999999999999999387e-05,8.000000000000000654e-05,-8.000000000000000654e-05,6.000000000000000000e+00,2.300000000000000000e+01
5.825200000000000000e+04,-1.199999999999999895e-04,-2.999999999999999737e-05,2.999999999999999737e-05,-1.000000000000000082e-05,1.000000000000000048e-04,-6.999999999999999387e-05,8.000000000000000654e-05,-8.000000000000000654e-05,6.000000000000000000e+00,2.300000000000000000e+01
5.825300000000000000e+04,-1.199999999999999895e-04,-2.999999999999999737e-05,2.999999999999999737e-05,-1.000000000000000082e-05,1.000000000000000048e-04,-6.999999999999999387e-05,8.000000000000000654e-05,-8.000000000000000654e-05,6.000000000000000000e+00,2.300000000000000000e+01
5.825400000000000000e+04,-1.199999999999999895e-04,-2.999999999999999737e-05,2.999999999999999737e-05,-1.000000000000000082e-05,1.000000000000000048e-04,-6.999999999999999387e-05,8.000000000000000654e-05,-8.000000000000000654e-05,6.000000000000000000e+00,2.300000000000000000e+01
5.825500000000000000e+04,-1.199999999999999895e-04,-2.999999999999999737e-05,2.999999999999999737e-05,-1.000000000000000082e-05,1.000000000000000048e-04,-6.999999999999999387e-05,8.000000000000000654e-05,-8.000000000000000654e-05,6.000000000000000000e+00,2.300000000000000000e+01
5.825600000000000000e+04,-1.199999999999999895e-04,-2.999999999999999737e-05,2.999999999999999737e-05,-1.000000000000000082e-05,1.000000000000000048e-04,-6.999999999999999387e-05,8.000000000000000654e-05,-8.000000000000000654e-05,6.000000000000000000e+00,2.300000000000000000e+01
5.825700000000000000e+04,-1.199999999999999895e-04,-2.999999999999999737e-05,2.999999999999999737e-05,-1.000000000000000082e-05,1.000000000000000048e-04,-6.999999999999999387e-05,8.000000000000000654e-05,-8.000000000000000654e-05,6.000000000000000000e+00,2.300000000000000000e+01
5.825800000000000000e+04,-1.199999999999999895e-04,-2.999999999999999737e-05,2.999999999999999737e-05,-1.000000000000000082e-05,1.000000000000000048e-04,-6.999999999999999387e-05,8.000000000000000654e-05,-8.000000000000000654e-05,6.000000000000000000e+00,2.300000000000000000e+01
5.825900000000000000e+04,-1.199999999999999895e-04,-2.999999999999999737e-05,2.999999999999999737e-05,-1.000000000000000082e-05,1.000000000000000048e-04,-6.999999999999999387e-05,8.000000000000000654e-05,-8.000000000000000654e-05,6.000000000000000000e+00,2.300000000000000000e+01
5.826000000000000000e+04,-1.199999999999999895e-04,-2.999999999999999737e-05,2.999999999999999737e-05,-1.000000000000000082e-05,1.000000000000000048e-04,-6.999999999999999387e-05,8.000000000000000654e-05,-8.000000000000000654e-05,6.000000000000000000e+00,2.300000000000000000e+01
5.826100000000000000e+04,-2.900000000000000017e-04,-4.000000000000000327e-05,-5.000000000000000240e-05,-2.999999999999999737e-05,-2.600000000000000314e-04,-5.099999999999999282e-04,-1.100000000000000039e-04,-3.600000000000000227e-04,6.000000000000000000e+00,2.300000000000000000e+01
5.826200000000000000e+04,5.999999999999999474e-05,9.000000000000000567e-05,4.000000000000000327e-05,2.000000000000000164e-05,2.100000000000000087e-04,-2.600000000000000314e-04,5.999999999999999474e-05,1.000000000000000048e-04,6.000000000000000000e+00,2.300000000000000000e+01
5.826300000000000000e+04,5.999999999999999474e-05,9.000000000000000567e-05,4.000000000000000327e-05,2.000000000000000164e-05,2.100000000000000087e-04,-2.600000000000000314e-04,5.999999999999999474e-05,1.000000000000000048e-04,6.000000000000000000e+00,2.300000000000000000e+01
5.826400000000000000e+04,5.999999999999999474e-05,9.000000000000000567e-05,4.000000000000000327e-05,2.000000000000000164e-05,2.100000000000000087e-04,-2.600000000000000314e-04,5.999999999999999474e-05,1.000000000000000048e-04,6.000000000000000000e+00,2.300000000000000000e+01
5.826500000000000000e+04,5.999999999999999474e-05,9.000000000000000567e-05,4.000000000000000327e-05,2.000000000000000164e-05,2.100000000000000087e-04,-2.600000000000000314e-04,5.999999999999999474e-05,1.000000000000000048e-04,6.000000000000000000e+00,2.300000000000000000e+01
5.826600000000000000e+04,5.999999999999999474e-05,9.000000000000000567e-05,4.000000000000000327e-05,2.000000000000000164e-05,2.100000000000000087e-04,-2.600000000000000314e-04,5.999999999999999474e-05,1.000000000000000048e-04,6.000000000000000000e+00,2.300000000000000000e+01
5.826700000000000000e+04,5.999999999999999474e-05,9.000000000000000567e-05,4.000000000000000327e-05,2.000000000000000164e-05,2.100000000000000087e-04,-2.600000000000000314e-04,5.999999999999999474e-05,1.000000000000000048e-04,6.000000000000000000e+00,2.300000000000000000e+01
5.826800000000000000e+04,5.999999999999999474e-05,9.000000000000000567e-05,4.000000000000000327e-05,2.000000000000000164e-05,2.100000000000000087e-04,-2.600000000000000314e-04,5.999999999999999474e-05,1.000000000000000048e-04,6.000000000000000000e+00,2.300000000000000000e+01
5.826900000000000000e+04,5.999999999999999474e-05,9.000000000000000567e-05,4.000000000000000327e-05,2.000000000000000164e-05,2.100000000000000087e-04,-2.600000000000000314e-04,5.999999999999999474e-05,1.000000000000000048e-04,6.000000000000000000e+00,2.300000000000000000e+01
5.827000000000000000e+04,5.999999999999999474e-05,9.000000000000000567e-05,4.000000000000000327e-05,2.000000000000000164e-05,2.100000000000000087e-04,-2.600000000000000314e-04,5.999999999999999474e-05,1.000000000000000048e-04,6.000000000000000000e+00,2.300000000000000000e+01
5.827100000000000000e+04,5.999999999999999474e-05,9.000000000000000567e-05,4.000000000000000327e-05,2.000000000000000164e-05,2.100000000000000087e-04,-2.600000000000000314e-04,5.999999999999999474e-05,1.000000000000000048e-04,6.000000000000000000e+00,2.300000000000000000e+01
5.827200000000000000e+04,5.999999999999999474e-05,9.000000000000000567e-05,4.000000000000000327e-05,2.000000000000000164e-05,2.100000000000000087e-04,-2.600000000000000314e-04,5.999999999999999474e-05,1.000000000000000048e-04,6.000000000000000000e+00,2.300000000000000000e+01
5.827300000000000000e+04,5.999999999999999474e-05,9.000000000000000567e-05,4.000000000000000327e-05,2.000000000000000164e-05,2.100000000000000087e-04,-2.600000000000000314e-04,5.999999999999999474e-05,1.000000000000000048e-04,6.000000000000000000e+00,2.300000000000000000e+01
5.827400000000000000e+04,5.999999999999999474e-05,9.000000000000000567e-05,4.000000000000000327e-05,2.000000000000000164e-05,2.100000000000000087e-04,-2.600000000000000314e-04,5.999999999999999474e-05,1.000000000000000048e-04,6.000000000000000000e+00,2.300000000000000000e+01
5.827500000000000000e+04,5.999999999999999474e-05,9.000000000000000567e-05,4.000000000000000327e-05,2.000000000000000164e-05,2.100000000000000087e-04,-2.600000000000000314e-04,5.999999999999999474e-05,1.000000000000000048e-04,6.000000000000000000e+00,2.300000000000000000e+01
5.827600000000000000e+04,5.999999999999999474e-05,9.000000000000000567e-05,4.000000000000000327e-05,2.000000000000000164e-05,2.100000000000000087e-04,-2.600000000000000314e-04,5.999999999999999474e-05,1.000000000000000048e-04,6.000000000000000000e+00,2.300000000000000000e+01
5.827700000000000000e+04,5.999999999999999474e-05,9.000000000000000567e-05,4.000000000000000327e-05,2.000000000000000164e-05,2.100000000000000087e-04,-2.600000000000000314e-04,5.999999999999999474e-05,1.000000000000000048e-04,6.000000000000000000e+00,2.300000000000000000e+01
5.827800000000000000e+04,5.999999999999999474e-05,9.000000000000000567e-05,4.000000000000000327e-05,2.000000000000000164e-05,2.100000000000000087e-04,-2.600000000000000314e-04,5.999999999999999474e-05,1.000000000000000048e-04,6.000000000000000000e+00,2.300000000000000000e+01
5.827900000000000000e+04,5.999999999999999474e-05,9.000000000000000567e-05,4.000000000000000327e-05,2.000000000000000164e-05,2.100000000000000087e-04,-2.600000000000000314e-04,5.999999999999999474e-05,1.000000000000000048e-04,6.000000000000000000e+00,2.300000000000000000e+01
5.828000000000000000e+04,5.999999999999999474e-05,9.000000000000000567e-05,4.000000000000000327e-05,2.000000000000000164e-05,2.100000000000000087e-04,-2.600000000000000314e-04,5.999999999999999474e-05,1.000000000000000048e-04,6.000000000000000000e+00,2.300000000000000000e+01
5.828100000000000000e+04,5.999999999999999474e-05,9.000000000000000567e-05,4.000000000000000327e-05,2.000000000000000164e-05,2.100000000000000087e-04,-2.600000000000000314e-04,5.999999999999999474e-05,1.000000000000000048e-04,6.000000000000000000e+00,2.300000000000000000e+01
5.828200000000000000e+04,5.999999999999999474e-05,9.000000000000000567e-05,4.000000000000000327e-05,2.000000000000000164e-05,2.100000000000000087e-04,-2.600000000000000314e-04,5.999999999999999474e-05,1.000000000000000048e-04,6.000000000000000000e+00,2.300000000000000000e+01
5.828300000000000000e+04,1.699999999999999851e-04,1.000000000000000082e-05,2.999999999999999737e-05,-4.000000000000000327e-05,-1.399999999999999877e-04,3.899999999999999929e-04,0.000000000000000000e+00,-1.399999999999999877e-04,6.000000000000000000e+00,2.300000000000000000e+01
5.828400000000000000e+04,1.699999999999999851e-04,1.000000000000000082e-05,2.999999999999999737e-05,-4.000000000000000327e-05,-1.399999999999999877e-04,3.899999999999999929e-04,0.000000000000000000e+00,-1.399999999999999877e-04,6.000000000000000000e+00,2.300000000000000000e+01
5.828500000000000000e+04,6.999999999999999387e-05,-1.000000000000000082e-05,-5.000000000000000240e-05,8.000000000000000654e-05,2.500000000000000052e-04,3.799999999999999667e-04,5.000000000000000240e-05,-8.000000000000000654e-05,6.000000000000000000e+00,2.300000000000000000e+01
5.828700000000000000e+04,6.999999999999999387e-05,-1.000000000000000082e-05,-5.000000000000000240e-05,8.000000000000000654e-05,2.500000000000000052e-04,3.799999999999999667e-04,5.000000000000000240e-05,-8.000000000000000654e-05,6.000000000000000000e+00,2.300000000000000000e+01
5.828800000000000000e+04,6.999999999999999387e-05,-1.000000000000000082e-05,-5.000000000000000240e-05,8.000000000000000654e-05,2.500000000000000052e-04,3.799999999999999667e-04,5.000000000000000240e-05,-8.000000000000000654e-05,6.000000000000000000e+00,2.300000000000000000e+01
5.828900000000000000e+04,6.999999999999999387e-05,-1.000000000000000082e-05,-5.000000000000000240e-05,8.000000000000000654e-05,2.500000000000000052e-04,3.799999999999999667e-04,5.000000000000000240e-05,-8.000000000000000654e-05,6.000000000000000000e+00,2.300000000000000000e+01
5.829100000000000000e+04,6.999999999999999387e-05,-1.000000000000000082e-05,-5.000000000000000240e-05,8.000000000000000654e-05,2.500000000000000052e-04,3.799999999999999667e-04,5.000000000000000240e-05,-8.000000000000000654e-05,6.000000000000000000e+00,2.300000000000000000e+01
5.829200000000000000e+04,6.999999999999999387e-05,-1.000000000000000082e-05,-5.000000000000000240e-05,8.000000000000000654e-05,2.500000000000000052e-04,3.799999999999999667e-04,5.000000000000000240e-05,-8.000000000000000654e-05,6.000000000000000000e+00,2.300000000000000000e+01
5.829300000000000000e+04,6.999999999999999387e-05,-1.000000000000000082e-05,-5.000000000000000240e-05,8.000000000000000654e-05,2.500000000000000052e-04,3.799999999999999667e-04,5.000000000000000240e-05,-8.000000000000000654e-05,6.000000000000000000e+00,2.300000000000000000e+01
5.829400000000000000e+04,6.999999999999999387e-05,-1.000000000000000082e-05,-5.000000000000000240e-05,8.000000000000000654e-05,2.500000000000000052e-04,3.799999999999999667e-04,5.000000000000000240e-05,-8.000000000000000654e-05,6.000000000000000000e+00,2.300000000000000000e+01
5.829500000000000000e+04,6.999999999999999387e-05,-1.000000000000000082e-05,-5.000000000000000240e-05,8.000000000000000654e-05,2.500000000000000052e-04,3.799999999999999667e-04,5.000000000000000240e-05,-8.000000000000000654e-05,6.000000000000000000e+00,2.300000000000000000e+01
5.829600000000000000e+04,6.999999999999999387e-05,-1.000000000000000082e-05,-5.000000000000000240e-05,8.000000000000000654e-05,2.500000000000000052e-04,3.799999999999999667e-04,5.000000000000000240e-05,-8.000000000000000654e-05,6.000000000000000000e+00,2.300000000000000000e+01
5.829700000000000000e+04,6.999999999999999387e-05,-1.000000000000000082e-05,-5.000000000000000240e-05,8.000000000000000654e-05,2.500000000000000052e-04,3.799999999999999667e-04,5.000000000000000240e-05,-8.000000000000000654e-05,6.000000000000000000e+00,2.300000000000000000e+01
