5.960700000000000000e+04,-1.000000000000000082e-05,-5.000000000000000240e-05,-4.000000000000000327e-05,-1.699999999999999851e-04,2.299999999999999799e-04,1.199999999999999895e-04,-8.000000000000000654e-05,-2.000000000000000164e-05,5.000000000000000000e+00,2.100000000000000000e+01
5.960800000000000000e+04,-1.000000000000000082e-05,-5.000000000000000240e-05,-4.000000000000000327e-05,-1.699999999999999851e-04,2.299999999999999799e-04,1.199999999999999895e-04,-8.000000000000000654e-05,-2.000000000000000164e-05,5.000000000000000000e+00,2.100000000000000000e+01
5.960900000000000000e+04,-1.000000000000000082e-05,-5.000000000000000240e-05,-4.000000000000000327e-05,-1.699999999999999851e-04,2.299999999999999799e-04,1.199999999999999895e-04,-8.000000000000000654e-05,-2.000000000000000164e-05,5.000000000000000000e+00,2.100000000000000000e+01
5.961000000000000000e+04,-1.000000000000000082e-05,-5.000000000000000240e-05,-4.000000000000000327e-05,-1.699999999999999851e-04,2.299999999999999799e-04,1.199999999999999895e-04,-8.000000000000000654e-05,-2.000000000000000164e-05,5.000000000000000000e+00,2.100000000000000000e+01
5.961100000000000000e+04,-1.000000000000000082e-05,-5.000000000000000240e-05,-4.000000000000000327e-05,-1.699999999999999851e-04,2.299999999999999799e-04,1.199999999999999895e-04,-8.000000000000000654e-05,-2.000000000000000164e-05,5.000000000000000000e+00,2.100000000000000000e+01
5.961200000000000000e+04,-1.000000000000000082e-05,-5.000000000000000240e-05,-4.000000000000000327e-05,-1.699999999999999851e-04,2.299999999999999799e-04,1.199999999999999895e-04,-8.000000000000000654e-05,-2.000000000000000164e-05,5.000000000000000000e+00,2.100000000000000000e+01
5.961300000000000000e+04,4.000000000000000327e-05,1.199999999999999895e-04,3.600000000000000227e-04,8.400000000000000348e-04,5.500000000000000331e-04,1.100000000000000039e-04,1.000000000000000082e-05,1.000000000000000082e-05,5.000000000000000000e+00,2.100000000000000000e+01
5.961400000000000000e+04,0.000000000000000000e+00,-4.000000000000000327e-05,-2.000000000000000164e-05,2.700000000000000035e-04,-8.000000000000000654e-05,-1.000000000000000082e-05,-1.100000000000000039e-04,0.000000000000000000e+00,5.000000000000000000e+00,2.100000000000000000e+01
5.961500000000000000e+04,0.000000000000000000e+00,-4.000000000000000327e-05,-2.000000000000000164e-05,2.700000000000000035e-04,-8.000000000000000654e-05,-1.000000000000000082e-05,-1.100000000000000039e-04,0.000000000000000000e+00,5.000000000000000000e+00,2.100000000000000000e+01
5.961600000000000000e+04,0.000000000000000000e+00,-4.000000000000000327e-05,-2.000000000000000164e-05,2.700000000000000035e-04,-8.000000000000000654e-05,-1.000000000000000082e-05,-1.100000000000000039e-04,0.000000000000000000e+00,5.000000000000000000e+00,2.100000000000000000e+01
5.961700000000000000e+04,0.000000000000000000e+00,-4.000000000000000327e-05,-2.000000000000000164e-05,2.700000000000000035e-04,-8.000000000000000654e-05,-1.000000000000000082e-05,-1.100000000000000039e-04,0.000000000000000000e+00,5.000000000000000000e+00,2.100000000000000000e+01
5.961800000000000000e+04,0.000000000000000000e+00,-4.000000000000000327e-05,-2.000000000000000164e-05,2.700000000000000035e-04,-8.000000000000000654e-05,-1.000000000000000082e-05,-1.100000000000000039e-04,0.000000000000000000e+00,5.000000000000000000e+00,2.100000000000000000e+01
5.961900000000000000e+04,-1.000000000000000048e-04,-2.200000000000000078e-04,-3.499999999999999964e-04,-2.900000000000000017e-04,4.000000000000000327e-05,-5.999999999999999474e-05,-1.000000000000000082e-05,-9.000000000000000567e-05,5.000000000000000000e+00,2.100000000000000000e+01
5.962000000000000000e+04,-2.000000000000000164e-05,1.100000000000000039e-04,1.600000000000000131e-04,1.800000000000000113e-04,-1.000000000000000082e-05,1.100000000000000039e-04,-1.000000000000000082e-05,0.000000000000000000e+00,5.000000000000000000e+00,2.100000000000000000e+01
5.962100000000000000e+04,-2.000000000000000164e-05,1.100000000000000039e-04,1.600000000000000131e-04,1.800000000000000113e-04,-1.000000000000000082e-05,1.100000000000000039e-04,-1.000000000000000082e-05,0.000000000000000000e+00,5.000000000000000000e+00,2.100000000000000000e+01
5.962200000000000000e+04,-2.000000000000000164e-05,1.100000000000000039e-04,1.600000000000000131e-04,1.800000000000000113e-04,-1.000000000000000082e-05,1.100000000000000039e-04,-1.000000000000000082e-05,0.000000000000000000e+00,5.000000000000000000e+00,2.100000000000000000e+01
5.962300000000000000e+04,-2.000000000000000164e-05,1.100000000000000039e-04,1.600000000000000131e-04,1.800000000000000113e-04,-1.000000000000000082e-05,1.100000000000000039e-04,-1.000000000000000082e-05,0.000000000000000000e+00,5.000000000000000000e+00,2.100000000000000000e+01
5.962400000000000000e+04,-2.000000000000000164e-05,1.100000000000000039e-04,1.600000000000000131e-04,1.800000000000000113e-04,-1.000000000000000082e-05,1.100000000000000039e-04,-1.000000000000000082e-05,0.000000000000000000e+00,5.000000000000000000e+00,2.100000000000000000e+01
5.962500000000000000e+04,-2.000000000000000164e-05,1.100000000000000039e-04,1.600000000000000131e-04,1.800000000000000113e-04,-1.000000000000000082e-05,1.100000000000000039e-04,-1.000000000000000082e-05,0.000000000000000000e+00,5.000000000000000000e+00,2.100000000000000000e+01
5.962600000000000000e+04,-2.000000000000000164e-05,1.100000000000000039e-04,1.600000000000000131e-04,1.800000000000000113e-04,-1.000000000000000082e-05,1.100000000000000039e-04,-1.000000000000000082e-05,0.000000000000000000e+00,5.000000000000000000e+00,2.100000000000000000e+01
5.962700000000000000e+04,-2.000000000000000164e-05,1.100000000000000039e-04,1.600000000000000131e-04,1.800000000000000113e-04,-1.000000000000000082e-05,1.100000000000000039e-04,-1.000000000000000082e-05,0.000000000000000000e+00,5.000000000000000000e+00,2.100000000000000000e+01
5.962800000000000000e+04,-2.000000000000000164e-05,1.100000000000000039e-04,1.600000000000000131e-04,1.800000000000000113e-04,-1.000000000000000082e-05,1.100000000000000039e-04,-1.000000000000000082e-05,0.000000000000000000e+00,5.000000000000000000e+00,2.100000000000000000e+01
5.962900000000000000e+04,-2.000000000000000164e-05,1.100000000000000039e-04,1.600000000000000131e-04,1.800000000000000113e-04,-1.000000000000000082e-05,1.100000000000000039e-04,-1.000000000000000082e-05,0.000000000000000000e+00,5.000000000000000000e+00,2.100000000000000000e+01
5.963000000000000000e+04,-2.000000000000000164e-05,1.100000000000000039e-04,1.600000000000000131e-04,1.800000000000000113e-04,-1.000000000000000082e-05,1.100000000000000039e-04,-1.000000000000000082e-05,0.000000000000000000e+00,5.000000000000000000e+00,2.100000000000000000e+01
5.963100000000000000e+04,-2.000000000000000164e-05,1.100000000000000039e-04,1.600000000000000131e-04,1.800000000000000113e-04,-1.000000000000000082e-05,1.100000000000000039e-04,-1.000000000000000082e-05,0.000000000000000000e+00,5.000000000000000000e+00,2.100000000000000000e+01
5.963200000000000000e+04,-2.000000000000000164e-05,1.100000000000000039e-04,1.600000000000000131e-04,1.800000000000000113e-04,-1.000000000000000082e-05,1.100000000000000039e-04,-1.000000000000000082e-05,0.000000000000000000e+00,5.000000000000000000e+00,2.100000000000000000e+01
5.963300000000000000e+04,-2.000000000000000164e-05,1.100000000000000039e-04,1.600000000000000131e-04,1.800000000000000113e-04,-1.000000000000000082e-05,1.100000000000000039e-04,-1.000000000000000082e-05,0.000000000000000000e+00,5.000000000000000000e+00,2.100000000000000000e+01
5.963400000000000000e+04,-5.999999999999999474e-05,-2.999999999999999737e-05,1.399999999999999877e-04,5.000000000000000240e-05,-6.700000000000000226e-04,-4.000000000000000192e-04,-1.199999999999999895e-04,-8.000000000000000654e-05,5.000000000000000000e+00,2.100000000000000000e+01
5.963500000000000000e+04,2.000000000000000164e-05,2.000000000000000164e-05,1.000000000000000082e-05,-1.000000000000000082e-05,1.899999999999999834e-04,-3.499999999999999964e-04,1.699999999999999851e-04,5.000000000000000240e-05,5.000000000000000000e+00,2.100000000000000000e+01
5.963600000000000000e+04,2.000000000000000164e-05,2.000000000000000164e-05,1.000000000000000082e-05,-1.000000000000000082e-05,1.899999999999999834e-04,-3.499999999999999964e-04,1.699999999999999851e-04,5.000000000000000240e-05,5.000000000000000000e+00,2.100000000000000000e+01
5.963800000000000000e+04,2.000000000000000164e-05,2.000000000000000164e-05,1.000000000000000082e-05,-1.000000000000000082e-05,1.899999999999999834e-04,-3.499999999999999964e-04,1.699999999999999851e-04,5.000000000000000240e-05,5.000000000000000000e+00,2.100000000000000000e+01
5.963900000000000000e+04,2.000000000000000164e-05,2.000000000000000164e-05,1.000000000000000082e-05,-1.000000000000000082e-05,1.899999999999999834e-04,-3.499999999999999964e-04,1.699999999999999851e-04,5.000000000000000240e-05,5.000000000000000000e+00,2.100000000000000000e+01
5.964000000000000000e+04,2.000000000000000164e-05,2.000000000000000164e-05,1.000000000000000082e-05,-1.000000000000000082e-05,1.899999999999999834e-04,-3.499999999999999964e-04,1.699999999999999851e-04,5.000000000000000240e-05,5.000000000000000000e+00,2.100000000000000000e+01
5.964100000000000000e+04,2.000000000000000164e-05,2.000000000000000164e-05,1.000000000000000082e-05,-1.000000000000000082e-05,1.899999999999999834e-04,-3.499999999999999964e-04,1.699999999999999851e-04,5.000000000000000240e-05,5.000000000000000000e+00,2.100000000000000000e+01
5.964200000000000000e+04,2.000000000000000164e-05,2.000000000000000164e-05,1.000000000000000082e-05,-1.000000000000000082e-05,1.899999999999999834e-04,-3.499999999999999964e-04,1.699999999999999851e-04,5.000000000000000240e-05,5.000000000000000000e+00,2.100000000000000000e+01
5.964300000000000000e+04,2.000000000000000164e-05,2.000000000000000164e-05,1.000000000000000082e-05,-1.000000000000000082e-05,1.899999999999999834e-04,-3.499999999999999964e-04,1.699999999999999851e-04,5.000000000000000240e-05,5.000000000000000000e+00,2.100000000000000000e+01
5.964400000000000000e+04,2.000000000000000164e-05,2.000000000000000164e-05,1.000000000000000082e-05,-1.000000000000000082e-05,1.899999999999999834e-04,-3.499999999999999964e-04,1.699999999999999851e-04,5.000000000000000240e-05,5.000000000000000000e+00,2.100000000000000000e+01
5.964500000000000000e+04,2.000000000000000164e-05,2.000000000000000164e-05,1.000000000000000082e-05,-1.000000000000000082e-05,1.899999999999999834e-04,-3.499999999999999964e-04,1.699999999999999851e-04,5.000000000000000240e-05,5.000000000000000000e+00,2.100000000000000000e+01
5.964600000000000000e+04,2.000000000000000164e-05,2.000000000000000164e-05,1.000000000000000082e-05,-1.000000000000000082e-05,1.899999999999999834e-04,-3.499999999999999964e-04,1.699999999999999851e-04,5.000000000000000240e-05,5.000000000000000000e+00,2.100000000000000000e+01
5.964700000000000000e+04,2.000000000000000164e-05,2.000000000000000164e-05,1.000000000000000082e-05,-1.000000000000000082e-05,1.899999999999999834e-04,-3.499999999999999964e-04,1.699999999999999851e-04,5.000000000000000240e-05,5.000000000000000000e+00,2.100000000000000000e+01
5.964800000000000000e+04,2.000000000000000164e-05,2.000000000000000164e-05,1.000000000000000082e-05,-1.000000000000000082e-05,1.899999999999999834e-04,-3.499999999999999964e-04,1.699999999999999851e-04,5.000000000000000240e-05,5.000000000000000000e+00,2.100000000000000000e+01
5.964900000000000000e+04,2.000000000000000164e-05,2.000000000000000164e-05,1.000000000000000082e-05,-1.000000000000000082e-05,1.899999999999999834e-04,-3.499999999999999964e-04,1.699999999999999851e-04,5.000000000000000240e-05,5.000000000000000000e+00,2.100000000000000000e+01
5.965000000000000000e+04,2.000000000000000164e-05,2.000000000000000164e-05,1.000000000000000082e-05,-1.000000000000000082e-05,1.899999999999999834e-04,-3.499999999999999964e-04,1.699999999999999851e-04,5.000000000000000240e-05,5.000000000000000000e+00,2.100000000000000000e+01
5.965100000000000000e+04,2.000000000000000164e-05,2.000000000000000164e-05,1.000000000000000082e-05,-1.000000000000000082e-05,1.899999999999999834e-04,-3.499999999999999964e-04,1.699999999999999851e-04,5.000000000000000240e-05,5.000000000000000000e+00,2.100000000000000000e+01
5.965200000000000000e+04,2.000000000000000164e-05,2.000000000000000164e-05,1.000000000000000082e-05,-1.000000000000000082e-05,1.899999999999999834e-04,-3.499999999999999964e-04,1.699999999999999851e-04,5.000000000000000240e-05,5.000000000000000000e+00,2.100000000000000000e+01
5.965300000000000000e+04,2.000000000000000164e-05,2.000000000000000164e-05,1.000000000000000082e-05,-1.000000000000000082e-05,1.899999999999999834e-04,-3.499999999999999964e-04,1.699999999999999851e-04,5.000000000000000240e-05,5.000000000000000000e+00,2.100000000000000000e+01
5.965400000000000000e+04,2.000000000000000164e-05,2.000000000000000164e-05,1.000000000000000082e-05,-1.000000000000000082e-05,1.899999999999999834e-04,-3.499999999999999964e-04,1.699999999999999851e-04,5.000000000000000240e-05,5.000000000000000000e+00,2.100000000000000000e+01
5.965500000000000000e+04,2.000000000000000164e-05,2.000000000000000164e-05,1.000000000000000082e-05,-1.000000000000000082e-05,1.899999999999999834e-04,-3.499999999999999964e-04,1.699999999999999851e-04,5.000000000000000240e-05,5.000000000000000000e+00,2.100000000000000000e+01
5.965600000000000000e+04,2.000000000000000164e-05,2.000000000000000164e-05,1.000000000000000082e-05,-1.000000000000000082e-05,1.899999999999999834e-04,-3.499999999999999964e-04,1.699999999999999851e-04,5.000000000000000240e-05,5.000000000000000000e+00,2.100000000000000000e+01
5.965700000000000000e+04,2.000000000000000164e-05,2.000000000000000164e-05,1.000000000000000082e-05,-1.000000000000000082e-05,1.899999999999999834e-04,-3.499999999999999964e-04,1.699999999999999851e-04,5.000000000000000240e-05,5.000000000000000000e+00,2.100000000000000000e+01
5.965800000000000000e+04,2.000000000000000164e-05,2.000000000000000164e-05,1.000000000000000082e-05,-1.000000000000000082e-05,1.899999999999999834e-04,-3.499999999999999964e-04,1.699999999999999851e-04,5.000000000000000240e-05,5.000000000000000000e+00,2.100000000000000000e+01
5.965900000000000000e+04,2.000000000000000164e-05,2.000000000000000164e-05,1.000000000000000082e-05,-1.000000000000000082e-05,1.899999999999999834e-04,-3.499999999999999964e-04,1.699999999999999851e-04,5.000000000000000240e-05,5.000000000000000000e+00,2.100000000000000000e+01
5.966000000000000000e+04,2.000000000000000164e-05,2.000000000000000164e-05,1.000000000000000082e-05,-1.000000000000000082e-05,1.899999999999999834e-04,-3.499999999999999964e-04,1.699999999999999851e-04,5.000000000000000240e-05,5.000000000000000000e+00,2.100000000000000000e+01
5.966100000000000000e+04,2.000000000000000164e-05,2.000000000000000164e-05,1.000000000000000082e-05,-1.000000000000000082e-05,1.899999999999999834e-04,-3.499999999999999964e-04,1.699999999999999851e-04,5.000000000000000240e-05,5.000000000000000000e+00,2.100000000000000000e+01
5.966200000000000000e+04,2.000000000000000164e-05,2.000000000000000164e-05,1.000000000000000082e-05,-1.000000000000000082e-05,1.899999999999999834e-04,-3.499999999999999964e-04,1.699999999999999851e-04,5.000000000000000240e-05,5.000000000000000000e+00,2.100000000000000000e+01
5.966300000000000000e+04,2.000000000000000164e-05,2.000000000000000164e-05,1.000000000000000082e-05,-1.000000000000000082e-05,1.899999999999999834e-04,-3.499999999999999964e-04,1.699999999999999851e-04,5.000000000000000240e-05,5.000000000000000000e+00,2.100000000000000000e+01
5.966400000000000000e+04,2.000000000000000164e-05,2.000000000000000164e-05,1.000000000000000082e-05,-1.000000000000000082e-05,1.899999999999999834e-04,-3.499999999999999964e-04,1.699999999999999851e-04,5.000000000000000240e-05,5.000000000000000000e+00,2.100000000000000000e+01
5.966500000000000000e+04,-4.000000000000000327e-05,-2.999999999999999737e-05,-1.000000000000000082e-05,2.000000000000000096e-04,2.299999999999999799e-04,3.600000000000000227e-04,-4.000000000000000327e-05,-2.999999999999999737e-05,5.000000000000000000e+00,2.100000000000000000e+01
5.966600000000000000e+04,-4.000000000000000327e-05,-2.999999999999999737e-05,-1.000000000000000082e-05,2.000000000000000096e-04,2.299999999999999799e-04,3.600000000000000227e-04,-4.000000000000000327e-05,-2.999999999999999737e-05,5.000000000000000000e+00,2.100000000000000000e+01
5.966700000000000000e+04,-4.000000000000000327e-05,-2.999999999999999737e-05,-1.000000000000000082e-05,2.000000000000000096e-04,2.299999999999999799e-04,3.600000000000000227e-04,-4.000000000000000327e-05,-2.999999999999999737e-05,5.000000000000000000e+00,2.100000000000000000e+01
5.966800000000000000e+04,-4.000000000000000327e-05,-2.999999999999999737e-05,-1.000000000000000082e-05,2.000000000000000096e-04,2.299999999999999799e-04,3.600000000000000227e-04,-4.000000000000000327e-05,-2.999999999999999737e-05,5.000000000000000000e+00,2.100000000000000000e+01
5.966900000000000000e+04,-4.000000000000000327e-05,-2.999999999999999737e-05,-1.000000000000000082e-05,2.000000000000000096e-04,2.299999999999999799e-04,3.600000000000000227e-04,-4.000000000000000327e-05,-2.999999999999999737e-05,5.000000000000000000e+00,2.100000000000000000e+01
5.967000000000000000e+04,-4.000000000000000327e-05,-2.999999999999999737e-05,-1.000000000000000082e-05,2.000000000000000096e-04,2.299999999999999799e-04,3.600000000000000227e-04,-4.000000000000000327e-05,-2.999999999999999737e-05,5.000000000000000000e+00,2.100000000000000000e+01
5.967100000000000000e+04,1.000000000000000082e-05,8.000000000000000654e-05,2.600000000000000314e-04,-2.000000000000000164e-05,-2.799999999999999755e-04,-2.900000000000000017e-04,-2.000000000000000164e-05,-1.000000000000000082e-05,5.000000000000000000e+00,2.100000000000000000e+01
5.967200000000000000e+04,-2.000000000000000164e-05,-1.699999999999999851e-04,-6.999999999999999387e-05,1.800000000000000113e-04,-5.999999999999999474e-05,-6.999999999999999387e-05,1.000000000000000082e-05,-1.000000000000000082e-05,5.000000000000000000e+00,2.100000000000000000e+01
5.967300000000000000e+04,-2.000000000000000164e-05,-1.699999999999999851e-04,-6.999999999999999387e-05,1.800000000000000113e-04,-5.999999999999999474e-05,-6.999999999999999387e-05,1.000000000000000082e-05,-1.000000000000000082e-05,5.000000000000000000e+00,2.100000000000000000e+01
5.967400000000000000e+04,-2.000000000000000164e-05,-1.699999999999999851e-04,-6.999999999999999387e-05,1.800000000000000113e-04,-5.999999999999999474e-05,-6.999999999999999387e-05,1.000000000000000082e-05,-1.000000000000000082e-05,5.000000000000000000e+00,2.100000000000000000e+01
5.967500000000000000e+04,-2.000000000000000164e-05,-1.699999999999999851e-04,-6.999999999999999387e-05,1.800000000000000113e-04,-5.999999999999999474e-05,-6.999999999999999387e-05,1.000000000000000082e-05,-1.000000000000000082e-05,5.000000000000000000e+00,2.100000000000000000e+01
5.967600000000000000e+04,-2.000000000000000164e-05,-1.699999999999999851e-04,-6.999999999999999387e-05,1.800000000000000113e-04,-5.999999999999999474e-05,-6.999999999999999387e-05,1.000000000000000082e-05,-1.000000000000000082e-05,5.000000000000000000e+00,2.100000000000000000e+01
5.967700000000000000e+04,-2.000000000000000164e-05,-1.699999999999999851e-04,-6.999999999999999387e-05,1.800000000000000113e-04,-5.999999999999999474e-05,-6.999999999999999387e-05,1.000000000000000082e-05,-1.000000000000000082e-05,5.000000000000000000e+00,2.100000000000000000e+01
5.967800000000000000e+04,-2.000000000000000164e-05,-1.699999999999999851e-04,-6.999999999999999387e-05,1.800000000000000113e-04,-5.999999999999999474e-05,-6.999999999999999387e-05,1.000000000000000082e-05,-1.000000000000000082e-05,5.000000000000000000e+00,2.100000000000000000e+01
5.967900000000000000e+04,-2.000000000000000164e-05,-1.699999999999999851e-04,-6.999999999999999387e-05,1.800000000000000113e-04,-5.999999999999999474e-05,-6.999999999999999387e-05,1.000000000000000082e-05,-1.000000000000000082e-05,5.000000000000000000e+00,2.100000000000000000e+01
5.968000000000000000e+04,-2.000000000000000164e-05,-1.699999999999999851e-04,-6.999999999999999387e-05,1.800000000000000113e-04,-5.999999999999999474e-05,-6.999999999999999387e-05,1.000000000000000082e-05,-1.000000000000000082e-05,5.000000000000000000e+00,2.100000000000000000e+01
5.968100000000000000e+04,-2.000000000000000164e-05,-1.699999999999999851e-04,-6.999999999999999387e-05,1.800000000000000113e-04,-5.999999999999999474e-05,-6.999999999999999387e-05,1.000000000000000082e-05,-1.000000000000000082e-05,5.000000000000000000e+00,2.100000000000000000e+01
5.968200000000000000e+04,-2.000000000000000164e-05,-1.699999999999999851e-04,-6.999999999999999387e-05,1.800000000000000113e-04,-5.999999999999999474e-05,-6.999999999999999387e-05,1.000000000000000082e-05,-1.000000000000000082e-05,5.000000000000000000e+00,2.100000000000000000e+01
5.968300000000000000e+04,-2.000000000000000164e-05,-1.699999999999999851e-04,-6.999999999999999387e-05,1.800000000000000113e-04,-5.999999999999999474e-05,-6.999999999999999387e-05,1.000000000000000082e-05,-1.000000000000000082e-05,5.000000000000000000e+00,2.100000000000000000e+01
5.968400000000000000e+04,-2.000000000000000164e-05,-1.699999999999999851e-04,-6.999999999999999387e-05,1.800000000000000113e-04,-5.999999999999999474e-05,-6.999999999999999387e-05,1.000000000000000082e-05,-1.000000000000000082e-05,5.000000000000000000e+00,2.100000000000000000e+01
5.968500000000000000e+04,-2.000000000000000164e-05,-1.699999999999999851e-04,-6.999999999999999387e-05,1.800000000000000113e-04,-5.999999999999999474e-05,-6.999999999999999387e-05,1.000000000000000082e-05,-1.000000000000000082e-05,5.000000000000000000e+00,2.100000000000000000e+01
5.968600000000000000e+04,-2.000000000000000164e-05,-1.699999999999999851e-04,-6.999999999999999387e-05,1.800000000000000113e-04,-5.999999999999999474e-05,-6.999999999999999387e-05,1.000000000000000082e-05,-1.000000000000000082e-05,5.000000000000000000e+00,2.100000000000000000e+01
5.968900000000000000e+04,-2.000000000000000164e-05,-1.699999999999999851e-04,-6.999999999999999387e-05,1.800000000000000113e-04,-5.999999999999999474e-05,-6.999999999999999387e-05,1.000000000000000082e-05,-1.000000000000000082e-05,5.000000000000000000e+00,2.100000000000000000e+01
5.969000000000000000e+04,-2.000000000000000164e-05,-1.699999999999999851e-04,-6.999999999999999387e-05,1.800000000000000113e-04,-5.999999999999999474e-05,-6.999999999999999387e-05,1.000000000000000082e-05,-1.000000000000000082e-05,5.000000000000000000e+00,2.100000000000000000e+01
5.969100000000000000e+04,-2.000000000000000164e-05,-1.699999999999999851e-04,-6.999999999999999387e-05,1.800000000000000113e-04,-5.999999999999999474e-05,-6.999999999999999387e-05,1.000000000000000082e-05,-1.000000000000000082e-05,5.000000000000000000e+00,2.100000000000000000e+01
5.969200000000000000e+04,-2.000000000000000164e-05,-1.699999999999999851e-04,-6.999999999999999387e-05,1.800000000000000113e-04,-5.999999999999999474e-05,-6.999999999999999387e-05,1.000000000000000082e-05,-1.000000000000000082e-05,5.000000000000000000e+00,2.100000000000000000e+01
5.969300000000000000e+04,-2.000000000000000164e-05,-1.699999999999999851e-04,-6.999999999999999387e-05,1.800000000000000113e-04,-5.999999999999999474e-05,-6.999999999999999387e-05,1.000000000000000082e-05,-1.000000000000000082e-05,5.000000000000000000e+00,2.100000000000000000e+01
5.969400000000000000e+04,-2.000000000000000164e-05,-1.699999999999999851e-04,-6.999999999999999387e-05,1.800000000000000113e-04,-5.999999999999999474e-05,-6.999999999999999387e-05,1.000000000000000082e-05,-1.000000000000000082e-05,5.000000000000000000e+00,2.100000000000000000e+01
5.969500000000000000e+04,-2.000000000000000164e-05,-1.699999999999999851e-04,-6.999999999999999387e-05,1.800000000000000113e-04,-5.999999999999999474e-05,-6.999999999999999387e-05,1.000000000000000082e-05,-1.000000000000000082e-05,5.000000000000000000e+00,2.100000000000000000e+01
5.969600000000000000e+04,5.000000000000000240e-05,1.000000000000000048e-04,6.999999999999999387e-05,-1.399999999999999877e-04,1.499999999999999869e-04,1.300000000000000157e-04,0.000000000000000000e+00,2.000000000000000164e-05,5.000000000000000000e+00,2.100000000000000000e+01
5.969700000000000000e+04,5.000000000000000240e-05,1.000000000000000048e-04,6.999999999999999387e-05,-1.399999999999999877e-04,1.499999999999999869e-04,1.300000000000000157e-04,0.000000000000000000e+00,2.000000000000000164e-05,5.000000000000000000e+00,2.100000000000000000e+01
5.969800000000000000e+04,5.000000000000000240e-05,1.000000000000000048e-04,6.999999999999999387e-05,-1.399999999999999877e-04,1.499999999999999869e-04,1.300000000000000157e-04,0.000000000000000000e+00,2.000000000000000164e-05,5.000000000000000000e+00,2.100000000000000000e+01
5.969900000000000000e+04,5.000000000000000240e-05,1.000000000000000048e-04,6.999999999999999387e-05,-1.399999999999999877e-04,1.499999999999999869e-04,1.300000000000000157e-04,0.000000000000000000e+00,2.000000000000000164e-05,5.000000000000000000e+00,2.100000000000000000e+01
5.970000000000000000e+04,5.000000000000000240e-05,1.000000000000000048e-04,6.999999999999999387e-05,-1.399999999999999877e-04,1.499999999999999869e-04,1.300000000000000157e-04,0.000000000000000000e+00,2.000000000000000164e-05,5.000000000000000000e+00,2.100000000000000000e+01
5.970100000000000000e+04,5.000000000000000240e-05,1.000000000000000048e-04,6.999999999999999387e-05,-1.399999999999999877e-04,1.499999999999999869e-04,1.300000000000000157e-04,0.000000000000000000e+00,2.000000000000000164e-05,5.000000000000000000e+00,2.100000000000000000e+01
5.970200000000000000e+04,5.000000000000000240e-05,1.000000000000000048e-04,6.999999999999999387e-05,-1.399999999999999877e-04,1.499999999999999869e-04,1.300000000000000157e-04,0.000000000000000000e+00,2.000000000000000164e-05,5.000000000000000000e+00,2.100000000000000000e+01
5.970300000000000000e+04,5.000000000000000240e-05,1.000000000000000048e-04,6.999999999999999387e-05,-1.399999999999999877e-04,1.499999999999999869e-04,1.300000000000000157e-04,0.000000000000000000e+00,2.000000000000000164e-05,5.000000000000000000e+00,2.100000000000000000e+01
5.970400000000000000e+04,5.000000000000000240e-05,1.000000000000000048e-04,6.999999999999999387e-05,-1.399999999999999877e-04,1.499999999999999869e-04,1.300000000000000157e-04,0.000000000000000000e+00,2.000000000000000164e-05,5.000000000000000000e+00,2.100000000000000000e+01
5.970500000000000000e+04,5.000000000000000240e-05,1.000000000000000048e-04,6.999999999999999387e-05,-1.399999999999999877e-04,1.499999999999999869e-04,1.300000000000000157e-04,0.000000000000000000e+00,2.000000000000000164e-05,5.000000000000000000e+00,2.100000000000000000e+01
5.970600000000000000e+04,5.000000000000000240e-05,1.000000000000000048e-04,6.999999999999999387e-05,-1.399999999999999877e-04,1.499999999999999869e-04,1.300000000000000157e-04,0.000000000000000000e+00,2.000000000000000164e-05,5.000000000000000000e+00,2.100000000000000000e+01
5.970700000000000000e+04,5.000000000000000240e-05,1.000000000000000048e-04,6.999999999999999387e-05,-1.399999999999999877e-04,1.499999999999999869e-04,1.300000000000000157e-04,0.000000000000000000e+00,2.000000000000000164e-05,5.000000000000000000e+00,2.100000000000000000e+01
5.970800000000000000e+04,5.000000000000000240e-05,1.000000000000000048e-04,6.999999999999999387e-05,-1.399999999999999877e-04,1.499999999999999869e-04,1.300000000000000157e-04,0.000000000000000000e+00,2.000000000000000164e-05,5.000000000000000000e+00,2.100000000000000000e+01
5.970900000000000000e+04,5.000000000000000240e-05,1.000000000000000048e-04,6.999999999999999387e-05,-1.399999999999999877e-04,1.499999999999999869e-04,1.300000000000000157e-04,0.000000000000000000e+00,2.000000000000000164e-05,5.000000000000000000e+00,2.100000000000000000e+01
5.971000000000000000e+04,5.000000000000000240e-05,1.000000000000000048e-04,6.999999999999999387e-05,-1.399999999999999877e-04,1.499999999999999869e-04,1.300000000000000157e-04,0.000000000000000000e+00,2.000000000000000164e-05,5.000000000000000000e+00,2.100000000000000000e+01
5.971100000000000000e+04,-5.999999999999999474e-05,-6.999999999999999387e-05,5.999999999999999474e-05,2.200000000000000078e-04,-1.199999999999999895e-04,1.100000000000000039e-04,1.000000000000000082e-05,-2.999999999999999737e-05,5.000000000000000000e+00,2.100000000000000000e+01
5.971200000000000000e+04,-2.999999999999999737e-05,5.999999999999999474e-05,9.000000000000000567e-05,2.000000000000000164e-05,1.800000000000000113e-04,9.000000000000000567e-05,-5.000000000000000240e-05,-5.999999999999999474e-05,5.000000000000000000e+00,2.100000000000000000e+01
5.971300000000000000e+04,2.999999999999999737e-05,2.999999999999999737e-05,5.999999999999999474e-05,3.299999999999999982e-04,1.499999999999999869e-04,5.999999999999999474e-05,-1.000000000000000082e-05,-1.000000000000000082e-05,5.000000000000000000e+00,2.100000000000000000e+01
5.971400000000000000e+04,2.999999999999999737e-05,2.999999999999999737e-05,5.999999999999999474e-05,3.299999999999999982e-04,1.499999999999999869e-04,5.999999999999999474e-05,-1.000000000000000082e-05,-1.000000000000000082e-05,5.000000000000000000e+00,2.100000000000000000e+01
5.971500000000000000e+04,2.999999999999999737e-05,2.999999999999999737e-05,5.999999999999999474e-05,3.299999999999999982e-04,1.499999999999999869e-04,5.999999999999999474e-05,-1.000000000000000082e-05,-1.000000000000000082e-05,5.000000000000000000e+00,2.100000000000000000e+01
5.971600000000000000e+04,2.999999999999999737e-05,2.999999999999999737e-05,5.999999999999999474e-05,3.299999999999999982e-04,1.499999999999999869e-04,5.999999999999999474e-05,-1.000000000000000082e-05,-1.000000000000000082e-05,5.000000000000000000e+00,2.100000000000000000e+01
5.971700000000000000e+04,2.999999999999999737e-05,2.999999999999999737e-05,5.999999999999999474e-05,3.299999999999999982e-04,1.499999999999999869e-04,5.999999999999999474e-05,-1.000000000000000082e-05,-1.000000000000000082e-05,5.000000000000000000e+00,2.100000000000000000e+01
5.971800000000000000e+04,2.999999999999999737e-05,2.999999999999999737e-05,5.999999999999999474e-05,3.299999999999999982e-04,1.499999999999999869e-04,5.999999999999999474e-05,-1.000000000000000082e-05,-1.000000000000000082e-05,5.000000000000000000e+00,2.100000000000000000e+01
5.971900000000000000e+04,2.999999999999999737e-05,2.999999999999999737e-05,5.999999999999999474e-05,3.299999999999999982e-04,1.499999999999999869e-04,5.999999999999999474e-05,-1.000000000000000082e-05,-1.000000000000000082e-05,5.000000000000000000e+00,2.100000000000000000e+01
5.972000000000000000e+04,2.999999999999999737e-05,2.999999999999999737e-05,5.999999999999999474e-05,3.299999999999999982e-04,1.499999999999999869e-04,5.999999999999999474e-05,-1.000000000000000082e-05,-1.000000000000000082e-05,5.000000000000000000e+00,2.100000000000000000e+01
5.972100000000000000e+04,2.999999999999999737e-05,2.999999999999999737e-05,5.999999999999999474e-05,3.299999999999999982e-04,1.499999999999999869e-04,5.999999999999999474e-05,-1.000000000000000082e-05,-1.000000000000000082e-05,5.000000000000000000e+00,2.100000000000000000e+01
5.972200000000000000e+04,2.999999999999999737e-05,2.999999999999999737e-05,5.999999999999999474e-05,3.299999999999999982e-04,1.499999999999999869e-04,5.999999999999999474e-05,-1.000000000000000082e-05,-1.000000000000000082e-05,5.000000000000000000e+00,2.100000000000000000e+01
5.972300000000000000e+04,2.999999999999999737e-05,2.999999999999999737e-05,5.999999999999999474e-05,3.299999999999999982e-04,1.499999999999999869e-04,5.999999999999999474e-05,-1.000000000000000082e-05,-1.000000000000000082e-05,5.000000000000000000e+00,2.100000000000000000e+01
5.972400000000000000e+04,2.999999999999999737e-05,2.999999999999999737e-05,5.999999999999999474e-05,3.299999999999999982e-04,1.499999999999999869e-04,5.999999999999999474e-05,-1.000000000000000082e-05,-1.000000000000000082e-05,5.000000000000000000e+00,2.100000000000000000e+01
5.972500000000000000e+04,2.999999999999999737e-05,2.999999999999999737e-05,5.999999999999999474e-05,3.299999999999999982e-04,1.499999999999999869e-04,5.999999999999999474e-05,-1.000000000000000082e-05,-1.000000000000000082e-05,5.000000000000000000e+00,2.100000000000000000e+01
5.972600000000000000e+04,2.999999999999999737e-05,2.999999999999999737e-05,5.999999999999999474e-05,3.299999999999999982e-04,1.499999999999999869e-04,5.999999999999999474e-05,-1.000000000000000082e-05,-1.000000000000000082e-05,5.000000000000000000e+00,2.100000000000000000e+01
5.972700000000000000e+04,2.999999999999999737e-05,2.999999999999999737e-05,5.999999999999999474e-05,3.299999999999999982e-04,1.499999999999999869e-04,5.999999999999999474e-05,-1.000000000000000082e-05,-1.000000000000000082e-05,5.000000000000000000e+00,2.100000000000000000e+01
5.972800000000000000e+04,2.999999999999999737e-05,2.999999999999999737e-05,5.999999999999999474e-05,3.299999999999999982e-04,1.499999999999999869e-04,5.999999999999999474e-05,-1.000000000000000082e-05,-1.000000000000000082e-05,5.000000000000000000e+00,2.100000000000000000e+01
5.972900000000000000e+04,2.999999999999999737e-05,2.999999999999999737e-05,5.999999999999999474e-05,3.299999999999999982e-04,1.499999999999999869e-04,5.999999999999999474e-05,-1.000000000000000082e-05,-1.000000000000000082e-05,5.000000000000000000e+00,2.100000000000000000e+01
5.973000000000000000e+04,2.999999999999999737e-05,2.999999999999999737e-05,5.999999999999999474e-05,3.299999999999999982e-04,1.499999999999999869e-04,5.999999999999999474e-05,-1.000000000000000082e-05,-1.000000000000000082e-05,5.000000000000000000e+00,2.100000000000000000e+01
5.973100000000000000e+04,2.999999999999999737e-05,2.999999999999999737e-05,5.999999999999999474e-05,3.299999999999999982e-04,1.499999999999999869e-04,5.999999999999999474e-05,-1.000000000000000082e-05,-1.000000000000000082e-05,5.000000000000000000e+00,2.100000000000000000e+01
5.973200000000000000e+04,2.999999999999999737e-05,2.999999999999999737e-05,5.999999999999999474e-05,3.299999999999999982e-04,1.499999999999999869e-04,5.999999999999999474e-05,-1.000000000000000082e-05,-1.000000000000000082e-05,5.000000000000000000e+00,2.100000000000000000e+01
5.973300000000000000e+04,2.999999999999999737e-05,2.999999999999999737e-05,5.999999999999999474e-05,3.299999999999999982e-04,1.499999999999999869e-04,5.999999999999999474e-05,-1.000000000000000082e-05,-1.000000000000000082e-05,5.000000000000000000e+00,2.100000000000000000e+01
5.973400000000000000e+04,2.999999999999999737e-05,2.999999999999999737e-05,5.999999999999999474e-05,3.299999999999999982e-04,1.499999999999999869e-04,5.999999999999999474e-05,-1.000000000000000082e-05,-1.000000000000000082e-05,5.000000000000000000e+00,2.100000000000000000e+01
5.973500000000000000e+04,2.999999999999999737e-05,2.999999999999999737e-05,5.999999999999999474e-05,3.299999999999999982e-04,1.499999999999999869e-04,5.999999999999999474e-05,-1.000000000000000082e-05,-1.000000000000000082e-05,5.000000000000000000e+00,2.100000000000000000e+01
5.973600000000000000e+04,2.999999999999999737e-05,2.999999999999999737e-05,5.999999999999999474e-05,3.299999999999999982e-04,1.499999999999999869e-04,5.999999999999999474e-05,-1.000000000000000082e-05,-1.000000000000000082e-05,5.000000000000000000e+00,2.100000000000000000e+01
5.973800000000000000e+04,2.999999999999999737e-05,2.999999999999999737e-05,5.999999999999999474e-05,3.299999999999999982e-04,1.499999999999999869e-04,5.999999999999999474e-05,-1.000000000000000082e-05,-1.000000000000000082e-05,5.000000000000000000e+00,2.100000000000000000e+01
5.973900000000000000e+04,2.999999999999999737e-05,2.999999999999999737e-05,5.999999999999999474e-05,3.299999999999999982e-04,1.499999999999999869e-04,5.999999999999999474e-05,-1.000000000000000082e-05,-1.000000000000000082e-05,5.000000000000000000e+00,2.100000000000000000e+01
5.974000000000000000e+04,-5.999999999999999474e-05,-5.999999999999999474e-05,-5.000000000000000240e-05,1.800000000000000113e-04,6.999999999999999387e-05,2.100000000000000087e-04,-4.000000000000000327e-05,-1.000000000000000082e-05,5.000000000000000000e+00,2.100000000000000000e+01
5.974100000000000000e+04,1.300000000000000157e-04,1.100000000000000039e-04,-2.999999999999999737e-05,-4.099999999999999912e-04,-1.499999999999999869e-04,2.200000000000000078e-04,1.800000000000000113e-04,1.600000000000000131e-04,5.000000000000000000e+00,2.100000000000000000e+01
5.974200000000000000e+04,1.300000000000000157e-04,1.100000000000000039e-04,-2.999999999999999737e-05,-4.099999999999999912e-04,-1.499999999999999869e-04,2.200000000000000078e-04,1.800000000000000113e-04,1.600000000000000131e-04,5.000000000000000000e+00,2.100000000000000000e+01
5.974300000000000000e+04,1.300000000000000157e-04,1.100000000000000039e-04,-2.999999999999999737e-05,-4.099999999999999912e-04,-1.499999999999999869e-04,2.200000000000000078e-04,1.800000000000000113e-04,1.600000000000000131e-04,5.000000000000000000e+00,2.100000000000000000e+01
5.974400000000000000e+04,1.300000000000000157e-04,1.100000000000000039e-04,-2.999999999999999737e-05,-4.099999999999999912e-04,-1.499999999999999869e-04,2.200000000000000078e-04,1.800000000000000113e-04,1.600000000000000131e-04,5.000000000000000000e+00,2.100000000000000000e+01
5.974500000000000000e+04,1.300000000000000157e-04,1.100000000000000039e-04,-2.999999999999999737e-05,-4.099999999999999912e-04,-1.499999999999999869e-04,2.200000000000000078e-04,1.800000000000000113e-04,1.600000000000000131e-04,5.000000000000000000e+00,2.100000000000000000e+01
5.974600000000000000e+04,1.300000000000000157e-04,1.100000000000000039e-04,-2.999999999999999737e-05,-4.099999999999999912e-04,-1.499999999999999869e-04,2.200000000000000078e-04,1.800000000000000113e-04,1.600000000000000131e-04,5.000000000000000000e+00,2.100000000000000000e+01
5.974700000000000000e+04,1.300000000000000157e-04,1.100000000000000039e-04,-2.999999999999999737e-05,-4.099999999999999912e-04,-1.499999999999999869e-04,2.200000000000000078e-04,1.800000000000000113e-04,1.600000000000000131e-04,5.000000000000000000e+00,2.100000000000000000e+01
5.974800000000000000e+04,1.300000000000000157e-04,1.100000000000000039e-04,-2.999999999999999737e-05,-4.099999999999999912e-04,-1.499999999999999869e-04,2.200000000000000078e-04,1.800000000000000113e-04,1.600000000000000131e-04,5.000000000000000000e+00,2.100000000000000000e+01
5.974900000000000000e+04,1.300000000000000157e-04,1.100000000000000039e-04,-2.999999999999999737e-05,-4.099999999999999912e-04,-1.499999999999999869e-04,2.200000000000000078e-04,1.800000000000000113e-04,1.600000000000000131e-04,5.000000000000000000e+00,2.100000000000000000e+01
5.975000000000000000e+04,1.300000000000000157e-04,1.100000000000000039e-04,-2.999999999999999737e-05,-4.099999999999999912e-04,-1.499999999999999869e-04,2.200000000000000078e-04,1.800000000000000113e-04,1.600000000000000131e-04,5.000000000000000000e+00,2.100000000000000000e+01
5.975100000000000000e+04,1.300000000000000157e-04,1.100000000000000039e-04,-2.999999999999999737e-05,-4.099999999999999912e-04,-1.499999999999999869e-04,2.200000000000000078e-04,1.800000000000000113e-04,1.600000000000000131e-04,5.000000000000000000e+00,2.100000000000000000e+01
5.975200000000000000e+04,1.300000000000000157e-04,1.100000000000000039e-04,-2.999999999999999737e-05,-4.099999999999999912e-04,-1.499999999999999869e-04,2.200000000000000078e-04,1.800000000000000113e-04,1.600000000000000131e-04,5.000000000000000000e+00,2.100000000000000000e+01
5.975300000000000000e+04,1.300000000000000157e-04,1.100000000000000039e-04,-2.999999999999999737e-05,-4.099999999999999912e-04,-1.499999999999999869e-04,2.200000000000000078e-04,1.800000000000000113e-04,1.600000000000000131e-04,5.000000000000000000e+00,2.100000000000000000e+01
5.975400000000000000e+04,1.300000000000000157e-04,1.100000000000000039e-04,-2.999999999999999737e-05,-4.099999999999999912e-04,-1.499999999999999869e-04,2.200000000000000078e-04,1.800000000000000113e-04,1.600000000000000131e-04,5.000000000000000000e+00,2.100000000000000000e+01
5.975500000000000000e+04,1.300000000000000157e-04,1.100000000000000039e-04,-2.999999999999999737e-05,-4.099999999999999912e-04,-1.499999999999999869e-04,2.200000000000000078e-04,1.800000000000000113e-04,1.600000000000000131e-04,5.000000000000000000e+00,2.100000000000000000e+01
5.975600000000000000e+04,-1.000000000000000082e-05,-4.000000000000000327e-05,-1.899999999999999834e-04,-2.999999999999999737e-04,-2.299999999999999799e-04,-1.399999999999999877e-04,-5.000000000000000240e-05,-2.999999999999999737e-05,5.000000000000000000e+00,2.100000000000000000e+01
5.975700000000000000e+04,1.000000000000000082e-05,1.000000000000000082e-05,-5.000000000000000240e-05,-3.799999999999999667e-04,-2.399999999999999790e-04,-1.399999999999999877e-04,-1.199999999999999895e-04,-4.000000000000000327e-05,5.000000000000000000e+00,2.100000000000000000e+01
5.975800000000000000e+04,1.000000000000000082e-05,1.000000000000000082e-05,-5.000000000000000240e-05,-3.799999999999999667e-04,-2.399999999999999790e-04,-1.399999999999999877e-04,-1.199999999999999895e-04,-4.000000000000000327e-05,5.000000000000000000e+00,2.100000000000000000e+01
5.975900000000000000e+04,1.000000000000000082e-05,1.000000000000000082e-05,-5.000000000000000240e-05,-3.799999999999999667e-04,-2.399999999999999790e-04,-1.399999999999999877e-04,-1.199999999999999895e-04,-4.000000000000000327e-05,5.000000000000000000e+00,2.100000000000000000e+01
5.976000000000000000e+04,1.000000000000000082e-05,1.000000000000000082e-05,-5.000000000000000240e-05,-3.799999999999999667e-04,-2.399999999999999790e-04,-1.399999999999999877e-04,-1.199999999999999895e-04,-4.000000000000000327e-05,5.000000000000000000e+00,2.100000000000000000e+01
5.976100000000000000e+04,1.000000000000000082e-05,1.000000000000000082e-05,-5.000000000000000240e-05,-3.799999999999999667e-04,-2.399999999999999790e-04,-1.399999999999999877e-04,-1.199999999999999895e-04,-4.000000000000000327e-05,5.000000000000000000e+00,2.100000000000000000e+01
5.976200000000000000e+04,1.000000000000000082e-05,1.000000000000000082e-05,-5.000000000000000240e-05,-3.799999999999999667e-04,-2.399999999999999790e-04,-1.399999999999999877e-04,-1.199999999999999895e-04,-4.000000000000000327e-05,5.000000000000000000e+00,2.100000000000000000e+01
5.976300000000000000e+04,1.000000000000000082e-05,1.000000000000000082e-05,-5.000000000000000240e-05,-3.799999999999999667e-04,-2.399999999999999790e-04,-1.399999999999999877e-04,-1.199999999999999895e-04,-4.000000000000000327e-05,5.000000000000000000e+00,2.100000000000000000e+01
5.976400000000000000e+04,1.000000000000000082e-05,1.000000000000000082e-05,-5.000000000000000240e-05,-3.799999999999999667e-04,-2.399999999999999790e-04,-1.399999999999999877e-04,-1.199999999999999895e-04,-4.000000000000000327e-05,5.000000000000000000e+00,2.100000000000000000e+01
5.976500000000000000e+04,1.000000000000000082e-05,1.000000000000000082e-05,-5.000000000000000240e-05,-3.799999999999999667e-04,-2.399999999999999790e-04,-1.399999999999999877e-04,-1.199999999999999895e-04,-4.000000000000000327e-05,5.000000000000000000e+00,2.100000000000000000e+01
5.976600000000000000e+04,1.000000000000000082e-05,1.000000000000000082e-05,-5.000000000000000240e-05,-3.799999999999999667e-04,-2.399999999999999790e-04,-1.399999999999999877e-04,-1.199999999999999895e-04,-4.000000000000000327e-05,5.000000000000000000e+00,2.100000000000000000e+01
5.976700000000000000e+04,1.000000000000000082e-05,1.000000000000000082e-05,-5.000000000000000240e-05,-3.799999999999999667e-04,-2.399999999999999790e-04,-1.399999999999999877e-04,-1.199999999999999895e-04,-4.000000000000000327e-05,5.000000000000000000e+00,2.100000000000000000e+01
5.976800000000000000e+04,1.000000000000000082e-05,1.000000000000000082e-05,-5.000000000000000240e-05,-3.799999999999999667e-04,-2.399999999999999790e-04,-1.399999999999999877e-04,-1.199999999999999895e-04,-4.000000000000000327e-05,5.000000000000000000e+00,2.100000000000000000e+01
5.976900000000000000e+04,4.000000000000000327e-05,1.000000000000000048e-04,1.199999999999999895e-04,-1.000000000000000082e-05,-3.099999999999999999e-04,8.000000000000000654e-05,4.000000000000000327e-05,4.000000000000000327e-05,5.000000000000000000e+00,2.100000000000000000e+01
5.977000000000000000e+04,-5.999999999999999474e-05,-6.999999999999999387e-05,-9.000000000000000567e-05,-1.499999999999999869e-04,1.600000000000000131e-04,-4.000000000000000327e-05,-1.100000000000000039e-04,-6.999999999999999387e-05,5.000000000000000000e+00,2.100000000000000000e+01
5.977100000000000000e+04,-5.999999999999999474e-05,-6.999999999999999387e-05,-9.000000000000000567e-05,-1.499999999999999869e-04,1.600000000000000131e-04,-4.000000000000000327e-05,-1.100000000000000039e-04,-6.999999999999999387e-05,5.000000000000000000e+00,2.100000000000000000e+01
5.977200000000000000e+04,-5.999999999999999474e-05,-6.999999999999999387e-05,-9.000000000000000567e-05,-1.499999999999999869e-04,1.600000000000000131e-04,-4.000000000000000327e-05,-1.100000000000000039e-04,-6.999999999999999387e-05,5.000000000000000000e+00,2.100000000000000000e+01
5.977300000000000000e+04,-5.999999999999999474e-05,-6.999999999999999387e-05,-9.000000000000000567e-05,-1.499999999999999869e-04,1.600000000000000131e-04,-4.000000000000000327e-05,-1.100000000000000039e-04,-6.999999999999999387e-05,5.000000000000000000e+00,2.100000000000000000e+01
5.977400000000000000e+04,-5.999999999999999474e-05,-6.999999999999999387e-05,-9.000000000000000567e-05,-1.499999999999999869e-04,1.600000000000000131e-04,-4.000000000000000327e-05,-1.100000000000000039e-04,-6.999999999999999387e-05,5.000000000000000000e+00,2.100000000000000000e+01
5.977500000000000000e+04,-5.999999999999999474e-05,-6.999999999999999387e-05,-9.000000000000000567e-05,-1.499999999999999869e-04,1.600000000000000131e-04,-4.000000000000000327e-05,-1.100000000000000039e-04,-6.999999999999999387e-05,5.000000000000000000e+00,2.100000000000000000e+01
5.977600000000000000e+04,-5.999999999999999474e-05,-6.999999999999999387e-05,-9.000000000000000567e-05,-1.499999999999999869e-04,1.600000000000000131e-04,-4.000000000000000327e-05,-1.100000000000000039e-04,-6.999999999999999387e-05,5.000000000000000000e+00,2.100000000000000000e+01
5.977700000000000000e+04,-5.999999999999999474e-05,-6.999999999999999387e-05,-9.000000000000000567e-05,-1.499999999999999869e-04,1.600000000000000131e-04,-4.000000000000000327e-05,-1.100000000000000039e-04,-6.999999999999999387e-05,5.000000000000000000e+00,2.100000000000000000e+01
5.977800000000000000e+04,-5.999999999999999474e-05,-6.999999999999999387e-05,-9.000000000000000567e-05,-1.499999999999999869e-04,1.600000000000000131e-04,-4.000000000000000327e-05,-1.100000000000000039e-04,-6.999999999999999387e-05,5.000000000000000000e+00,2.100000000000000000e+01
5.977900000000000000e+04,-5.999999999999999474e-05,-6.999999999999999387e-05,-9.000000000000000567e-05,-1.499999999999999869e-04,1.600000000000000131e-04,-4.000000000000000327e-05,-1.100000000000000039e-04,-6.999999999999999387e-05,5.000000000000000000e+00,2.100000000000000000e+01
5.978000000000000000e+04,-5.999999999999999474e-05,-6.999999999999999387e-05,-9.000000000000000567e-05,-1.499999999999999869e-04,1.600000000000000131e-04,-4.000000000000000327e-05,-1.100000000000000039e-04,-6.999999999999999387e-05,5.000000000000000000e+00,2.100000000000000000e+01
5.978100000000000000e+04,-5.999999999999999474e-05,-6.999999999999999387e-05,-9.000000000000000567e-05,-1.499999999999999869e-04,1.600000000000000131e-04,-4.000000000000000327e-05,-1.100000000000000039e-04,-6.999999999999999387e-05,5.000000000000000000e+00,2.100000000000000000e+01
5.978200000000000000e+04,-5.999999999999999474e-05,-6.999999999999999387e-05,-9.000000000000000567e-05,-1.499999999999999869e-04,1.600000000000000131e-04,-4.000000000000000327e-05,-1.100000000000000039e-04,-6.999999999999999387e-05,5.000000000000000000e+00,2.100000000000000000e+01
5.978300000000000000e+04,-5.999999999999999474e-05,-6.999999999999999387e-05,-9.000000000000000567e-05,-1.499999999999999869e-04,1.600000000000000131e-04,-4.000000000000000327e-05,-1.100000000000000039e-04,-6.999999999999999387e-05,5.000000000000000000e+00,2.100000000000000000e+01
5.978400000000000000e+04,-5.999999999999999474e-05,-6.999999999999999387e-05,-9.000000000000000567e-05,-1.499999999999999869e-04,1.600000000000000131e-04,-4.000000000000000327e-05,-1.100000000000000039e-04,-6.999999999999999387e-05,5.000000000000000000e+00,2.100000000000000000e+01
5.978500000000000000e+04,-5.999999999999999474e-05,-6.999999999999999387e-05,-9.000000000000000567e-05,-1.499999999999999869e-04,1.600000000000000131e-04,-4.000000000000000327e-05,-1.100000000000000039e-04,-6.999999999999999387e-05,5.000000000000000000e+00,2.100000000000000000e+01
5.978600000000000000e+04,-5.999999999999999474e-05,-6.999999999999999387e-05,-9.000000000000000567e-05,-1.499999999999999869e-04,1.600000000000000131e-04,-4.000000000000000327e-05,-1.100000000000000039e-04,-6.999999999999999387e-05,5.000000000000000000e+00,2.100000000000000000e+01
5.978900000000000000e+04,-5.999999999999999474e-05,-6.999999999999999387e-05,-9.000000000000000567e-05,-1.499999999999999869e-04,1.600000000000000131e-04,-4.000000000000000327e-05,-1.100000000000000039e-04,-6.999999999999999387e-05,5.000000000000000000e+00,2.100000000000000000e+01
5.979000000000000000e+04,-5.999999999999999474e-05,-6.999999999999999387e-05,-9.000000000000000567e-05,-1.499999999999999869e-04,1.600000000000000131e-04,-4.000000000000000327e-05,-1.100000000000000039e-04,-6.999999999999999387e-05,5.000000000000000000e+00,2.100000000000000000e+01
5.979100000000000000e+04,-5.999999999999999474e-05,-6.999999999999999387e-05,-9.000000000000000567e-05,-1.499999999999999869e-04,1.600000000000000131e-04,-4.000000000000000327e-05,-1.100000000000000039e-04,-6.999999999999999387e-05,5.000000000000000000e+00,2.100000000000000000e+01
5.979200000000000000e+04,-5.999999999999999474e-05,-6.999999999999999387e-05,-9.000000000000000567e-05,-1.499999999999999869e-04,1.600000000000000131e-04,-4.000000000000000327e-05,-1.100000000000000039e-04,-6.999999999999999387e-05,5.000000000000000000e+00,2.100000000000000000e+01
5.979300000000000000e+04,-5.999999999999999474e-05,-6.999999999999999387e-05,-9.000000000000000567e-05,-1.499999999999999869e-04,1.600000000000000131e-04,-4.000000000000000327e-05,-1.100000000000000039e-04,-6.999999999999999387e-05,5.000000000000000000e+00,2.100000000000000000e+01
5.979400000000000000e+04,-5.999999999999999474e-05,-6.999999999999999387e-05,-9.000000000000000567e-05,-1.499999999999999869e-04,1.600000000000000131e-04,-4.000000000000000327e-05,-1.100000000000000039e-04,-6.999999999999999387e-05,5.000000000000000000e+00,2.100000000000000000e+01
5.979500000000000000e+04,-5.999999999999999474e-05,-6.999999999999999387e-05,-9.000000000000000567e-05,-1.499999999999999869e-04,1.600000000000000131e-04,-4.000000000000000327e-05,-1.100000000000000039e-04,-6.999999999999999387e-05,5.000000000000000000e+00,2.100000000000000000e+01
5.979600000000000000e+04,-5.999999999999999474e-05,-6.999999999999999387e-05,-9.000000000000000567e-05,-1.499999999999999869e-04,1.600000000000000131e-04,-4.000000000000000327e-05,-1.100000000000000039e-04,-6.999999999999999387e-05,5.000000000000000000e+00,2.100000000000000000e+01
5.979700000000000000e+04,-5.999999999999999474e-05,-6.999999999999999387e-05,-9.000000000000000567e-05,-1.499999999999999869e-04,1.600000000000000131e-04,-4.000000000000000327e-05,-1.100000000000000039e-04,-6.999999999999999387e-05,5.000000000000000000e+00,2.100000000000000000e+01
5.979800000000000000e+04,-5.999999999999999474e-05,-6.999999999999999387e-05,-9.000000000000000567e-05,-1.499999999999999869e-04,1.600000000000000131e-04,-4.000000000000000327e-05,-1.100000000000000039e-04,-6.999999999999999387e-05,5.000000000000000000e+00,2.100000000000000000e+01
5.979900000000000000e+04,-5.999999999999999474e-05,-6.999999999999999387e-05,-9.000000000000000567e-05,-1.499999999999999869e-04,1.600000000000000131e-04,-4.000000000000000327e-05,-1.100000000000000039e-04,-6.999999999999999387e-05,5.000000000000000000e+00,2.100000000000000000e+01
5.980000000000000000e+04,-5.999999999999999474e-05,-6.999999999999999387e-05,-9.000000000000000567e-05,-1.499999999999999869e-04,1.600000000000000131e-04,-4.000000000000000327e-05,-1.100000000000000039e-04,-6.999999999999999387e-05,5.000000000000000000e+00,2.100000000000000000e+01
5.980100000000000000e+04,-5.000000000000000240e-05,-1.499999999999999869e-04,-3.299999999999999982e-04,-5.000000000000000104e-04,-1.800000000000000113e-04,-2.999999999999999737e-05,4.000000000000000327e-05,-2.000000000000000164e-05,5.000000000000000000e+00,2.100000000000000000e+01
5.980200000000000000e+04,-8.000000000000000654e-05,-1.399999999999999877e-04,-1.800000000000000113e-04,-2.999999999999999737e-05,1.000000000000000082e-05,1.100000000000000039e-04,-5.000000000000000240e-05,-5.000000000000000240e-05,5.000000000000000000e+00,2.100000000000000000e+01
5.980300000000000000e+04,-8.000000000000000654e-05,-1.399999999999999877e-04,-1.800000000000000113e-04,-2.999999999999999737e-05,1.000000000000000082e-05,1.100000000000000039e-04,-5.000000000000000240e-05,-5.000000000000000240e-05,5.000000000000000000e+00,2.100000000000000000e+01
5.980400000000000000e+04,-8.000000000000000654e-05,-1.399999999999999877e-04,-1.800000000000000113e-04,-2.999999999999999737e-05,1.000000000000000082e-05,1.100000000000000039e-04,-5.000000000000000240e-05,-5.000000000000000240e-05,5.000000000000000000e+00,2.100000000000000000e+01
5.980500000000000000e+04,-8.000000000000000654e-05,-1.399999999999999877e-04,-1.800000000000000113e-04,-2.999999999999999737e-05,1.000000000000000082e-05,1.100000000000000039e-04,-5.000000000000000240e-05,-5.000000000000000240e-05,5.000000000000000000e+00,2.100000000000000000e+01
5.980600000000000000e+04,-8.000000000000000654e-05,-1.399999999999999877e-04,-1.800000000000000113e-04,-2.999999999999999737e-05,1.000000000000000082e-05,1.100000000000000039e-04,-5.000000000000000240e-05,-5.000000000000000240e-05,5.000000000000000000e+00,2.100000000000000000e+01
5.980700000000000000e+04,-8.000000000000000654e-05,-1.399999999999999877e-04,-1.800000000000000113e-04,-2.999999999999999737e-05,1.000000000000000082e-05,1.100000000000000039e-04,-5.000000000000000240e-05,-5.000000000000000240e-05,5.000000000000000000e+00,2.100000000000000000e+01
5.980800000000000000e+04,-8.000000000000000654e-05,-1.399999999999999877e-04,-1.800000000000000113e-04,-2.999999999999999737e-05,1.000000000000000082e-05,1.100000000000000039e-04,-5.000000000000000240e-05,-5.000000000000000240e-05,5.000000000000000000e+00,2.100000000000000000e+01
5.980900000000000000e+04,-8.000000000000000654e-05,-1.399999999999999877e-04,-1.800000000000000113e-04,-2.999999999999999737e-05,1.000000000000000082e-05,1.100000000000000039e-04,-5.000000000000000240e-05,-5.000000000000000240e-05,5.000000000000000000e+00,2.100000000000000000e+01
5.981000000000000000e+04,-8.000000000000000654e-05,-1.399999999999999877e-04,-1.800000000000000113e-04,-2.999999999999999737e-05,1.000000000000000082e-05,1.100000000000000039e-04,-5.000000000000000240e-05,-5.000000000000000240e-05,5.000000000000000000e+00,2.100000000000000000e+01
5.981100000000000000e+04,-8.000000000000000654e-05,-1.399999999999999877e-04,-1.800000000000000113e-04,-2.999999999999999737e-05,1.000000000000000082e-05,1.100000000000000039e-04,-5.000000000000000240e-05,-5.000000000000000240e-05,5.000000000000000000e+00,2.100000000000000000e+01
5.981200000000000000e+04,-8.000000000000000654e-05,-1.399999999999999877e-04,-1.800000000000000113e-04,-2.999999999999999737e-05,1.000000000000000082e-05,1.100000000000000039e-04,-5.000000000000000240e-05,-5.000000000000000240e-05,5.000000000000000000e+00,2.100000000000000000e+01
5.981300000000000000e+04,-8.000000000000000654e-05,-1.399999999999999877e-04,-1.800000000000000113e-04,-2.999999999999999737e-05,1.000000000000000082e-05,1.100000000000000039e-04,-5.000000000000000240e-05,-5.000000000000000240e-05,5.000000000000000000e+00,2.100000000000000000e+01
5.981400000000000000e+04,2.000000000000000164e-05,4.000000000000000327e-05,1.899999999999999834e-04,-1.300000000000000157e-04,-1.399999999999999877e-04,-9.000000000000000567e-05,1.000000000000000048e-04,5.999999999999999474e-05,5.000000000000000000e+00,2.100000000000000000e+01
5.981500000000000000e+04,-2.999999999999999737e-05,-6.999999999999999387e-05,-1.199999999999999895e-04,-2.200000000000000078e-04,-2.000000000000000164e-05,1.000000000000000048e-04,0.000000000000000000e+00,-1.000000000000000082e-05,5.000000000000000000e+00,2.100000000000000000e+01
5.981600000000000000e+04,-2.999999999999999737e-05,-6.999999999999999387e-05,-1.199999999999999895e-04,-2.200000000000000078e-04,-2.000000000000000164e-05,1.000000000000000048e-04,0.000000000000000000e+00,-1.000000000000000082e-05,5.000000000000000000e+00,2.100000000000000000e+01
5.981700000000000000e+04,-2.999999999999999737e-05,-6.999999999999999387e-05,-1.199999999999999895e-04,-2.200000000000000078e-04,-2.000000000000000164e-05,1.000000000000000048e-04,0.000000000000000000e+00,-1.000000000000000082e-05,5.000000000000000000e+00,2.100000000000000000e+01
5.981800000000000000e+04,-2.999999999999999737e-05,-6.999999999999999387e-05,-1.199999999999999895e-04,-2.200000000000000078e-04,-2.000000000000000164e-05,1.000000000000000048e-04,0.000000000000000000e+00,-1.000000000000000082e-05,5.000000000000000000e+00,2.100000000000000000e+01
5.981900000000000000e+04,-2.999999999999999737e-05,-6.999999999999999387e-05,-1.199999999999999895e-04,-2.200000000000000078e-04,-2.000000000000000164e-05,1.000000000000000048e-04,0.000000000000000000e+00,-1.000000000000000082e-05,5.000000000000000000e+00,2.100000000000000000e+01
5.982000000000000000e+04,-2.999999999999999737e-05,-6.999999999999999387e-05,-1.199999999999999895e-04,-2.200000000000000078e-04,-2.000000000000000164e-05,1.000000000000000048e-04,0.000000000000000000e+00,-1.000000000000000082e-05,5.000000000000000000e+00,2.100000000000000000e+01
5.982100000000000000e+04,-2.999999999999999737e-05,-6.999999999999999387e-05,-1.199999999999999895e-04,-2.200000000000000078e-04,-2.000000000000000164e-05,1.000000000000000048e-04,0.000000000000000000e+00,-1.000000000000000082e-05,5.000000000000000000e+00,2.100000000000000000e+01
5.982200000000000000e+04,-2.999999999999999737e-05,-6.999999999999999387e-05,-1.199999999999999895e-04,-2.200000000000000078e-04,-2.000000000000000164e-05,1.000000000000000048e-04,0.000000000000000000e+00,-1.000000000000000082e-05,5.000000000000000000e+00,2.100000000000000000e+01
5.982300000000000000e+04,-2.999999999999999737e-05,-6.999999999999999387e-05,-1.199999999999999895e-04,-2.200000000000000078e-04,-2.000000000000000164e-05,1.000000000000000048e-04,0.000000000000000000e+00,-1.000000000000000082e-05,5.000000000000000000e+00,2.100000000000000000e+01
5.982400000000000000e+04,-2.999999999999999737e-05,-6.999999999999999387e-05,-1.199999999999999895e-04,-2.200000000000000078e-04,-2.000000000000000164e-05,1.000000000000000048e-04,0.000000000000000000e+00,-1.000000000000000082e-05,5.000000000000000000e+00,2.100000000000000000e+01
5.982500000000000000e+04,-2.999999999999999737e-05,-6.999999999999999387e-05,-1.199999999999999895e-04,-2.200000000000000078e-04,-2.000000000000000164e-05,1.000000000000000048e-04,0.000000000000000000e+00,-1.000000000000000082e-05,5.000000000000000000e+00,2.100000000000000000e+01
5.982600000000000000e+04,-2.999999999999999737e-05,-6.999999999999999387e-05,-1.199999999999999895e-04,-2.200000000000000078e-04,-2.000000000000000164e-05,1.000000000000000048e-04,0.000000000000000000e+00,-1.000000000000000082e-05,5.000000000000000000e+00,2.100000000000000000e+01
5.982700000000000000e+04,-2.999999999999999737e-05,-6.999999999999999387e-05,-1.199999999999999895e-04,-2.200000000000000078e-04,-2.000000000000000164e-05,1.000000000000000048e-04,0.000000000000000000e+00,-1.000000000000000082e-05,5.000000000000000000e+00,2.100000000000000000e+01
5.982800000000000000e+04,-2.999999999999999737e-05,-6.999999999999999387e-05,-1.199999999999999895e-04,-2.200000000000000078e-04,-2.000000000000000164e-05,1.000000000000000048e-04,0.000000000000000000e+00,-1.000000000000000082e-05,5.000000000000000000e+00,2.100000000000000000e+01
5.982900000000000000e+04,-2.999999999999999737e-05,-5.000000000000000240e-05,-9.000000000000000567e-05,-8.000000000000000654e-05,-2.999999999999999737e-05,-4.000000000000000327e-05,0.000000000000000000e+00,-2.000000000000000164e-05,5.000000000000000000e+00,2.100000000000000000e+01
5.983000000000000000e+04,-2.999999999999999737e-05,-5.000000000000000240e-05,-9.000000000000000567e-05,-8.000000000000000654e-05,-2.999999999999999737e-05,-4.000000000000000327e-05,0.000000000000000000e+00,-2.000000000000000164e-05,5.000000000000000000e+00,2.100000000000000000e+01
5.983100000000000000e+04,-2.999999999999999737e-05,-5.000000000000000240e-05,-9.000000000000000567e-05,-8.000000000000000654e-05,-2.999999999999999737e-05,-4.000000000000000327e-05,0.000000000000000000e+00,-2.000000000000000164e-05,5.000000000000000000e+00,2.100000000000000000e+01
5.983200000000000000e+04,-2.999999999999999737e-05,-5.000000000000000240e-05,-9.000000000000000567e-05,-8.000000000000000654e-05,-2.999999999999999737e-05,-4.000000000000000327e-05,0.000000000000000000e+00,-2.000000000000000164e-05,5.000000000000000000e+00,2.100000000000000000e+01
5.983300000000000000e+04,-2.999999999999999737e-05,-5.000000000000000240e-05,-9.000000000000000567e-05,-8.000000000000000654e-05,-2.999999999999999737e-05,-4.000000000000000327e-05,0.000000000000000000e+00,-2.000000000000000164e-05,5.000000000000000000e+00,2.100000000000000000e+01
5.983400000000000000e+04,-2.999999999999999737e-05,-5.000000000000000240e-05,-9.000000000000000567e-05,-8.000000000000000654e-05,-2.999999999999999737e-05,-4.000000000000000327e-05,0.000000000000000000e+00,-2.000000000000000164e-05,5.000000000000000000e+00,2.100000000000000000e+01
5.983500000000000000e+04,-2.999999999999999737e-05,-5.000000000000000240e-05,-9.000000000000000567e-05,-8.000000000000000654e-05,-2.999999999999999737e-05,-4.000000000000000327e-05,0.000000000000000000e+00,-2.000000000000000164e-05,5.000000000000000000e+00,2.100000000000000000e+01
5.983600000000000000e+04,-2.999999999999999737e-05,-5.000000000000000240e-05,-9.000000000000000567e-05,-8.000000000000000654e-05,-2.999999999999999737e-05,-4.000000000000000327e-05,0.000000000000000000e+00,-2.000000000000000164e-05,5.000000000000000000e+00,2.100000000000000000e+01
5.983800000000000000e+04,-2.999999999999999737e-05,-5.000000000000000240e-05,-9.000000000000000567e-05,-8.000000000000000654e-05,-2.999999999999999737e-05,-4.000000000000000327e-05,0.000000000000000000e+00,-2.000000000000000164e-05,5.000000000000000000e+00,2.100000000000000000e+01
5.984000000000000000e+04,-2.999999999999999737e-05,-5.000000000000000240e-05,-9.000000000000000567e-05,-8.000000000000000654e-05,-2.999999999999999737e-05,-4.000000000000000327e-05,0.000000000000000000e+00,-2.000000000000000164e-05,5.000000000000000000e+00,2.100000000000000000e+01
5.984100000000000000e+04,-2.999999999999999737e-05,-5.000000000000000240e-05,-9.000000000000000567e-05,-8.000000000000000654e-05,-2.999999999999999737e-05,-4.000000000000000327e-05,0.000000000000000000e+00,-2.000000000000000164e-05,5.000000000000000000e+00,2.100000000000000000e+01
5.984200000000000000e+04,-2.999999999999999737e-05,-5.000000000000000240e-05,-9.000000000000000567e-05,-8.000000000000000654e-05,-2.999999999999999737e-05,-4.000000000000000327e-05,0.000000000000000000e+00,-2.000000000000000164e-05,5.000000000000000000e+00,2.100000000000000000e+01
5.984300000000000000e+04,-2.999999999999999737e-05,-5.000000000000000240e-05,-9.000000000000000567e-05,-8.000000000000000654e-05,-2.999999999999999737e-05,-4.000000000000000327e-05,0.000000000000000000e+00,-2.000000000000000164e-05,5.000000000000000000e+00,2.100000000000000000e+01
5.984400000000000000e+04,-8.000000000000000654e-05,-1.300000000000000157e-04,-2.000000000000000096e-04,-1.800000000000000113e-04,2.000000000000000164e-05,-3.299999999999999982e-04,-1.000000000000000048e-04,-8.000000000000000654e-05,5.000000000000000000e+00,2.100000000000000000e+01
5.984500000000000000e+04,-8.000000000000000654e-05,-1.300000000000000157e-04,-2.000000000000000096e-04,-1.800000000000000113e-04,2.000000000000000164e-05,-3.299999999999999982e-04,-1.000000000000000048e-04,-8.000000000000000654e-05,5.000000000000000000e+00,2.100000000000000000e+01
5.984600000000000000e+04,-8.000000000000000654e-05,-1.300000000000000157e-04,-2.000000000000000096e-04,-1.800000000000000113e-04,2.000000000000000164e-05,-3.299999999999999982e-04,-1.000000000000000048e-04,-8.000000000000000654e-05,5.000000000000000000e+00,2.100000000000000000e+01
5.984700000000000000e+04,-8.000000000000000654e-05,-1.300000000000000157e-04,-2.000000000000000096e-04,-1.800000000000000113e-04,2.000000000000000164e-05,-3.299999999999999982e-04,-1.000000000000000048e-04,-8.000000000000000654e-05,5.000000000000000000e+00,2.100000000000000000e+01
5.984800000000000000e+04,-8.000000000000000654e-05,-1.300000000000000157e-04,-2.000000000000000096e-04,-1.800000000000000113e-04,2.000000000000000164e-05,-3.299999999999999982e-04,-1.000000000000000048e-04,-8.000000000000000654e-05,5.000000000000000000e+00,2.100000000000000000e+01
5.984900000000000000e+04,-8.000000000000000654e-05,-1.300000000000000157e-04,-2.000000000000000096e-04,-1.800000000000000113e-04,2.000000000000000164e-05,-3.299999999999999982e-04,-1.000000000000000048e-04,-8.000000000000000654e-05,5.000000000000000000e+00,2.100000000000000000e+01
5.985000000000000000e+04,-8.000000000000000654e-05,-1.300000000000000157e-04,-2.000000000000000096e-04,-1.800000000000000113e-04,2.000000000000000164e-05,-3.299999999999999982e-04,-1.000000000000000048e-04,-8.000000000000000654e-05,5.000000000000000000e+00,2.100000000000000000e+01
5.985100000000000000e+04,-5.999999999999999474e-05,-5.000000000000000240e-05,8.000000000000000654e-05,5.299999999999999807e-04,6.700000000000000226e-04,1.800000000000000113e-04,2.999999999999999737e-05,-1.000000000000000082e-05,5.000000000000000000e+00,2.100000000000000000e+01
5.985200000000000000e+04,-2.999999999999999737e-05,-1.000000000000000082e-05,1.699999999999999851e-04,1.199999999999999895e-04,-2.900000000000000017e-04,-2.999999999999999737e-05,2.000000000000000164e-05,-2.000000000000000164e-05,5.000000000000000000e+00,2.100000000000000000e+01
5.985300000000000000e+04,-2.999999999999999737e-05,-1.000000000000000082e-05,1.699999999999999851e-04,1.199999999999999895e-04,-2.900000000000000017e-04,-2.999999999999999737e-05,2.000000000000000164e-05,-2.000000000000000164e-05,5.000000000000000000e+00,2.100000000000000000e+01
5.985400000000000000e+04,-2.999999999999999737e-05,-1.000000000000000082e-05,1.699999999999999851e-04,1.199999999999999895e-04,-2.900000000000000017e-04,-2.999999999999999737e-05,2.000000000000000164e-05,-2.000000000000000164e-05,5.000000000000000000e+00,2.100000000000000000e+01
5.985500000000000000e+04,-2.999999999999999737e-05,-1.000000000000000082e-05,1.699999999999999851e-04,1.199999999999999895e-04,-2.900000000000000017e-04,-2.999999999999999737e-05,2.000000000000000164e-05,-2.000000000000000164e-05,5.000000000000000000e+00,2.100000000000000000e+01
5.985600000000000000e+04,-2.999999999999999737e-05,-1.000000000000000082e-05,1.699999999999999851e-04,1.199999999999999895e-04,-2.900000000000000017e-04,-2.999999999999999737e-05,2.000000000000000164e-05,-2.000000000000000164e-05,5.000000000000000000e+00,2.100000000000000000e+01
5.985700000000000000e+04,-2.999999999999999737e-05,-1.000000000000000082e-05,1.699999999999999851e-04,1.199999999999999895e-04,-2.900000000000000017e-04,-2.999999999999999737e-05,2.000000000000000164e-05,-2.000000000000000164e-05,5.000000000000000000e+00,2.100000000000000000e+01
5.985800000000000000e+04,-2.999999999999999737e-05,-1.000000000000000082e-05,1.699999999999999851e-04,1.199999999999999895e-04,-2.900000000000000017e-04,-2.999999999999999737e-05,2.000000000000000164e-05,-2.000000000000000164e-05,5.000000000000000000e+00,2.100000000000000000e+01
5.985900000000000000e+04,-2.999999999999999737e-05,-1.000000000000000082e-05,1.699999999999999851e-04,1.199999999999999895e-04,-2.900000000000000017e-04,-2.999999999999999737e-05,2.000000000000000164e-05,-2.000000000000000164e-05,5.000000000000000000e+00,2.100000000000000000e+01
5.986000000000000000e+04,-2.999999999999999737e-05,-1.000000000000000082e-05,1.699999999999999851e-04,1.199999999999999895e-04,-2.900000000000000017e-04,-2.999999999999999737e-05,2.000000000000000164e-05,-2.000000000000000164e-05,5.000000000000000000e+00,2.100000000000000000e+01
5.986100000000000000e+04,-2.999999999999999737e-05,-1.000000000000000082e-05,1.699999999999999851e-04,1.199999999999999895e-04,-2.900000000000000017e-04,-2.999999999999999737e-05,2.000000000000000164e-05,-2.000000000000000164e-05,5.000000000000000000e+00,2.100000000000000000e+01
5.986200000000000000e+04,-2.999999999999999737e-05,-1.000000000000000082e-05,1.699999999999999851e-04,1.199999999999999895e-04,-2.900000000000000017e-04,-2.999999999999999737e-05,2.000000000000000164e-05,-2.000000000000000164e-05,5.000000000000000000e+00,2.100000000000000000e+01
5.986300000000000000e+04,-2.999999999999999737e-05,-1.000000000000000082e-05,1.699999999999999851e-04,1.199999999999999895e-04,-2.900000000000000017e-04,-2.999999999999999737e-05,2.000000000000000164e-05,-2.000000000000000164e-05,5.000000000000000000e+00,2.100000000000000000e+01
5.986400000000000000e+04,-2.999999999999999737e-05,-1.000000000000000082e-05,1.699999999999999851e-04,1.199999999999999895e-04,-2.900000000000000017e-04,-2.999999999999999737e-05,2.000000000000000164e-05,-2.000000000000000164e-05,5.000000000000000000e+00,2.100000000000000000e+01
5.986500000000000000e+04,-2.999999999999999737e-05,-1.000000000000000082e-05,1.699999999999999851e-04,1.199999999999999895e-04,-2.900000000000000017e-04,-2.999999999999999737e-05,2.000000000000000164e-05,-2.000000000000000164e-05,5.000000000000000000e+00,2.100000000000000000e+01
5.986600000000000000e+04,-2.999999999999999737e-05,-1.000000000000000082e-05,1.699999999999999851e-04,1.199999999999999895e-04,-2.900000000000000017e-04,-2.999999999999999737e-05,2.000000000000000164e-05,-2.000000000000000164e-05,5.000000000000000000e+00,2.100000000000000000e+01
5.986700000000000000e+04,-2.999999999999999737e-05,-1.000000000000000082e-05,1.699999999999999851e-04,1.199999999999999895e-04,-2.900000000000000017e-04,-2.999999999999999737e-05,2.000000000000000164e-05,-2.000000000000000164e-05,5.000000000000000000e+00,2.100000000000000000e+01
5.986800000000000000e+04,-2.999999999999999737e-05,-1.000000000000000082e-05,1.699999999999999851e-04,1.199999999999999895e-04,-2.900000000000000017e-04,-2.999999999999999737e-05,2.000000000000000164e-05,-2.000000000000000164e-05,5.000000000000000000e+00,2.100000000000000000e+01
5.986900000000000000e+04,-2.999999999999999737e-05,-1.000000000000000082e-05,1.699999999999999851e-04,1.199999999999999895e-04,-2.900000000000000017e-04,-2.999999999999999737e-05,2.000000000000000164e-05,-2.000000000000000164e-05,5.000000000000000000e+00,2.100000000000000000e+01
5.987000000000000000e+04,-2.999999999999999737e-05,-1.000000000000000082e-05,1.699999999999999851e-04,1.199999999999999895e-04,-2.900000000000000017e-04,-2.999999999999999737e-05,2.000000000000000164e-05,-2.000000000000000164e-05,5.000000000000000000e+00,2.100000000000000000e+01
5.987100000000000000e+04,-2.999999999999999737e-05,-1.000000000000000082e-05,1.699999999999999851e-04,1.199999999999999895e-04,-2.900000000000000017e-04,-2.999999999999999737e-05,2.000000000000000164e-05,-2.000000000000000164e-05,5.000000000000000000e+00,2.100000000000000000e+01
5.987200000000000000e+04,-2.999999999999999737e-05,-1.000000000000000082e-05,1.699999999999999851e-04,1.199999999999999895e-04,-2.900000000000000017e-04,-2.999999999999999737e-05,2.000000000000000164e-05,-2.000000000000000164e-05,5.000000000000000000e+00,2.100000000000000000e+01
5.987300000000000000e+04,-2.999999999999999737e-05,-1.000000000000000082e-05,1.699999999999999851e-04,1.199999999999999895e-04,-2.900000000000000017e-04,-2.999999999999999737e-05,2.000000000000000164e-05,-2.000000000000000164e-05,5.000000000000000000e+00,2.100000000000000000e+01
5.987400000000000000e+04,-2.999999999999999737e-05,-8.000000000000000654e-05,-2.999999999999999737e-04,-2.000000000000000096e-04,1.300000000000000157e-04,-4.000000000000000327e-05,1.000000000000000082e-05,-1.000000000000000082e-05,5.000000000000000000e+00,2.100000000000000000e+01
5.987500000000000000e+04,-4.000000000000000327e-05,-1.199999999999999895e-04,-2.500000000000000052e-04,-2.500000000000000052e-04,1.000000000000000048e-04,1.300000000000000157e-04,2.000000000000000164e-05,-2.999999999999999737e-05,5.000000000000000000e+00,2.100000000000000000e+01
5.987600000000000000e+04,-4.000000000000000327e-05,-1.199999999999999895e-04,-2.500000000000000052e-04,-2.500000000000000052e-04,1.000000000000000048e-04,1.300000000000000157e-04,2.000000000000000164e-05,-2.999999999999999737e-05,5.000000000000000000e+00,2.100000000000000000e+01
5.987700000000000000e+04,-4.000000000000000327e-05,-1.199999999999999895e-04,-2.500000000000000052e-04,-2.500000000000000052e-04,1.000000000000000048e-04,1.300000000000000157e-04,2.000000000000000164e-05,-2.999999999999999737e-05,5.000000000000000000e+00,2.100000000000000000e+01
5.987800000000000000e+04,-4.000000000000000327e-05,-1.199999999999999895e-04,-2.500000000000000052e-04,-2.500000000000000052e-04,1.000000000000000048e-04,1.300000000000000157e-04,2.000000000000000164e-05,-2.999999999999999737e-05,5.000000000000000000e+00,2.100000000000000000e+01
5.987900000000000000e+04,-4.000000000000000327e-05,-1.199999999999999895e-04,-2.500000000000000052e-04,-2.500000000000000052e-04,1.000000000000000048e-04,1.300000000000000157e-04,2.000000000000000164e-05,-2.999999999999999737e-05,5.000000000000000000e+00,2.100000000000000000e+01
5.988000000000000000e+04,-4.000000000000000327e-05,-1.199999999999999895e-04,-2.500000000000000052e-04,-2.500000000000000052e-04,1.000000000000000048e-04,1.300000000000000157e-04,2.000000000000000164e-05,-2.999999999999999737e-05,5.000000000000000000e+00,2.100000000000000000e+01
5.988100000000000000e+04,-4.000000000000000327e-05,-1.199999999999999895e-04,-2.500000000000000052e-04,-2.500000000000000052e-04,1.000000000000000048e-04,1.300000000000000157e-04,2.000000000000000164e-05,-2.999999999999999737e-05,5.000000000000000000e+00,2.100000000000000000e+01
5.988200000000000000e+04,-4.000000000000000327e-05,-1.199999999999999895e-04,-2.500000000000000052e-04,-2.500000000000000052e-04,1.000000000000000048e-04,1.300000000000000157e-04,2.000000000000000164e-05,-2.999999999999999737e-05,5.000000000000000000e+00,2.100000000000000000e+01
5.988300000000000000e+04,-4.000000000000000327e-05,-1.199999999999999895e-04,-2.500000000000000052e-04,-2.500000000000000052e-04,1.000000000000000048e-04,1.300000000000000157e-04,2.000000000000000164e-05,-2.999999999999999737e-05,5.000000000000000000e+00,2.100000000000000000e+01
5.988400000000000000e+04,-4.000000000000000327e-05,-1.199999999999999895e-04,-2.500000000000000052e-04,-2.500000000000000052e-04,1.000000000000000048e-04,1.300000000000000157e-04,2.000000000000000164e-05,-2.999999999999999737e-05,5.000000000000000000e+00,2.100000000000000000e+01
5.988500000000000000e+04,-4.000000000000000327e-05,-1.199999999999999895e-04,-2.500000000000000052e-04,-2.500000000000000052e-04,1.000000000000000048e-04,1.300000000000000157e-04,2.000000000000000164e-05,-2.999999999999999737e-05,5.000000000000000000e+00,2.100000000000000000e+01
5.988600000000000000e+04,-4.000000000000000327e-05,-1.199999999999999895e-04,-2.500000000000000052e-04,-2.500000000000000052e-04,1.000000000000000048e-04,1.300000000000000157e-04,2.000000000000000164e-05,-2.999999999999999737e-05,5.000000000000000000e+00,2.100000000000000000e+01
5.988900000000000000e+04,-4.000000000000000327e-05,-1.199999999999999895e-04,-2.500000000000000052e-04,-2.500000000000000052e-04,1.000000000000000048e-04,1.300000000000000157e-04,2.000000000000000164e-05,-2.999999999999999737e-05,5.000000000000000000e+00,2.100000000000000000e+01
5.989000000000000000e+04,-4.000000000000000327e-05,-1.199999999999999895e-04,-2.500000000000000052e-04,-2.500000000000000052e-04,1.000000000000000048e-04,1.300000000000000157e-04,2.000000000000000164e-05,-2.999999999999999737e-05,5.000000000000000000e+00,2.100000000000000000e+01
5.989100000000000000e+04,-4.000000000000000327e-05,-1.199999999999999895e-04,-2.500000000000000052e-04,-2.500000000000000052e-04,1.000000000000000048e-04,1.300000000000000157e-04,2.000000000000000164e-05,-2.999999999999999737e-05,5.000000000000000000e+00,2.100000000000000000e+01
5.989200000000000000e+04,-4.000000000000000327e-05,-1.199999999999999895e-04,-2.500000000000000052e-04,-2.500000000000000052e-04,1.000000000000000048e-04,1.300000000000000157e-04,2.000000000000000164e-05,-2.999999999999999737e-05,5.000000000000000000e+00,2.100000000000000000e+01
5.989300000000000000e+04,-4.000000000000000327e-05,-1.199999999999999895e-04,-2.500000000000000052e-04,-2.500000000000000052e-04,1.000000000000000048e-04,1.300000000000000157e-04,2.000000000000000164e-05,-2.999999999999999737e-05,5.000000000000000000e+00,2.100000000000000000e+01
5.989400000000000000e+04,-4.000000000000000327e-05,-1.199999999999999895e-04,-2.500000000000000052e-04,-2.500000000000000052e-04,1.000000000000000048e-04,1.300000000000000157e-04,2.000000000000000164e-05,-2.999999999999999737e-05,5.000000000000000000e+00,2.100000000000000000e+01
5.989500000000000000e+04,-4.000000000000000327e-05,-1.199999999999999895e-04,-2.500000000000000052e-04,-2.500000000000000052e-04,1.000000000000000048e-04,1.300000000000000157e-04,2.000000000000000164e-05,-2.999999999999999737e-05,5.000000000000000000e+00,2.100000000000000000e+01
5.989600000000000000e+04,-4.000000000000000327e-05,-1.199999999999999895e-04,-2.500000000000000052e-04,-2.500000000000000052e-04,1.000000000000000048e-04,1.300000000000000157e-04,2.000000000000000164e-05,-2.999999999999999737e-05,5.000000000000000000e+00,2.100000000000000000e+01
5.989700000000000000e+04,-4.000000000000000327e-05,-1.199999999999999895e-04,-2.500000000000000052e-04,-2.500000000000000052e-04,1.000000000000000048e-04,1.300000000000000157e-04,2.000000000000000164e-05,-2.999999999999999737e-05,5.000000000000000000e+00,2.100000000000000000e+01
5.989800000000000000e+04,1.000000000000000082e-05,0.000000000000000000e+00,1.300000000000000157e-04,0.000000000000000000e+00,-1.000000000000000048e-04,-1.300000000000000157e-04,-2.999999999999999737e-05,-4.000000000000000327e-05,5.000000000000000000e+00,2.100000000000000000e+01
5.989900000000000000e+04,-4.000000000000000327e-05,1.000000000000000082e-05,1.000000000000000082e-05,1.000000000000000048e-04,-3.399999999999999702e-04,-2.399999999999999790e-04,-4.000000000000000327e-05,0.000000000000000000e+00,5.000000000000000000e+00,2.100000000000000000e+01
5.990000000000000000e+04,-4.000000000000000327e-05,1.000000000000000082e-05,1.000000000000000082e-05,1.000000000000000048e-04,-3.399999999999999702e-04,-2.399999999999999790e-04,-4.000000000000000327e-05,0.000000000000000000e+00,5.000000000000000000e+00,2.100000000000000000e+01
5.990100000000000000e+04,-4.000000000000000327e-05,1.000000000000000082e-05,1.000000000000000082e-05,1.000000000000000048e-04,-3.399999999999999702e-04,-2.399999999999999790e-04,-4.000000000000000327e-05,0.000000000000000000e+00,5.000000000000000000e+00,2.100000000000000000e+01
5.990200000000000000e+04,-4.000000000000000327e-05,1.000000000000000082e-05,1.000000000000000082e-05,1.000000000000000048e-04,-3.399999999999999702e-04,-2.399999999999999790e-04,-4.000000000000000327e-05,0.000000000000000000e+00,5.000000000000000000e+00,2.100000000000000000e+01
5.990300000000000000e+04,-4.000000000000000327e-05,1.000000000000000082e-05,1.000000000000000082e-05,1.000000000000000048e-04,-3.399999999999999702e-04,-2.399999999999999790e-04,-4.000000000000000327e-05,0.000000000000000000e+00,5.000000000000000000e+00,2.100000000000000000e+01
5.990400000000000000e+04,-4.000000000000000327e-05,1.000000000000000082e-05,1.000000000000000082e-05,1.000000000000000048e-04,-3.399999999999999702e-04,-2.399999999999999790e-04,-4.000000000000000327e-05,0.000000000000000000e+00,5.000000000000000000e+00,2.100000000000000000e+01
5.990500000000000000e+04,-4.000000000000000327e-05,1.000000000000000082e-05,1.000000000000000082e-05,1.000000000000000048e-04,-3.399999999999999702e-04,-2.399999999999999790e-04,-4.000000000000000327e-05,0.000000000000000000e+00,5.000000000000000000e+00,2.100000000000000000e+01
5.990600000000000000e+04,-4.000000000000000327e-05,1.000000000000000082e-05,1.000000000000000082e-05,1.000000000000000048e-04,-3.399999999999999702e-04,-2.399999999999999790e-04,-4.000000000000000327e-05,0.000000000000000000e+00,5.000000000000000000e+00,2.100000000000000000e+01
5.990700000000000000e+04,-4.000000000000000327e-05,1.000000000000000082e-05,1.000000000000000082e-05,1.000000000000000048e-04,-3.399999999999999702e-04,-2.399999999999999790e-04,-4.000000000000000327e-05,0.000000000000000000e+00,5.000000000000000000e+00,2.100000000000000000e+01
5.990800000000000000e+04,-4.000000000000000327e-05,1.000000000000000082e-05,1.000000000000000082e-05,1.000000000000000048e-04,-3.399999999999999702e-04,-2.399999999999999790e-04,-4.000000000000000327e-05,0.000000000000000000e+00,5.000000000000000000e+00,2.100000000000000000e+01
5.990900000000000000e+04,-4.000000000000000327e-05,1.000000000000000082e-05,1.000000000000000082e-05,1.000000000000000048e-04,-3.399999999999999702e-04,-2.399999999999999790e-04,-4.000000000000000327e-05,0.000000000000000000e+00,5.000000000000000000e+00,2.100000000000000000e+01
5.991000000000000000e+04,-4.000000000000000327e-05,1.000000000000000082e-05,1.000000000000000082e-05,1.000000000000000048e-04,-3.399999999999999702e-04,-2.399999999999999790e-04,-4.000000000000000327e-05,0.000000000000000000e+00,5.000000000000000000e+00,2.100000000000000000e+01
5.991100000000000000e+04,-4.000000000000000327e-05,1.000000000000000082e-05,1.000000000000000082e-05,1.000000000000000048e-04,-3.399999999999999702e-04,-2.399999999999999790e-04,-4.000000000000000327e-05,0.000000000000000000e+00,5.000000000000000000e+00,2.100000000000000000e+01
5.991200000000000000e+04,-4.000000000000000327e-05,1.000000000000000082e-05,1.000000000000000082e-05,1.000000000000000048e-04,-3.399999999999999702e-04,-2.399999999999999790e-04,-4.000000000000000327e-05,0.000000000000000000e+00,5.000000000000000000e+00,2.100000000000000000e+01
5.991300000000000000e+04,-4.000000000000000327e-05,1.000000000000000082e-05,1.000000000000000082e-05,1.000000000000000048e-04,-3.399999999999999702e-04,-2.399999999999999790e-04,-4.000000000000000327e-05,0.000000000000000000e+00,5.000000000000000000e+00,2.100000000000000000e+01
5.991400000000000000e+04,-4.000000000000000327e-05,1.000000000000000082e-05,1.000000000000000082e-05,1.000000000000000048e-04,-3.399999999999999702e-04,-2.399999999999999790e-04,-4.000000000000000327e-05,0.000000000000000000e+00,5.000000000000000000e+00,2.100000000000000000e+01
5.991500000000000000e+04,-4.000000000000000327e-05,1.000000000000000082e-05,1.000000000000000082e-05,1.000000000000000048e-04,-3.399999999999999702e-04,-2.399999999999999790e-04,-4.000000000000000327e-05,0.000000000000000000e+00,5.000000000000000000e+00,2.100000000000000000e+01
5.991600000000000000e+04,-4.000000000000000327e-05,1.000000000000000082e-05,1.000000000000000082e-05,1.000000000000000048e-04,-3.399999999999999702e-04,-2.399999999999999790e-04,-4.000000000000000327e-05,0.000000000000000000e+00,5.000000000000000000e+00,2.100000000000000000e+01
5.991700000000000000e+04,-4.000000000000000327e-05,1.000000000000000082e-05,1.000000000000000082e-05,1.000000000000000048e-04,-3.399999999999999702e-04,-2.399999999999999790e-04,-4.000000000000000327e-05,0.000000000000000000e+00,5.000000000000000000e+00,2.100000000000000000e+01
5.991800000000000000e+04,-4.000000000000000327e-05,1.000000000000000082e-05,1.000000000000000082e-05,1.000000000000000048e-04,-3.399999999999999702e-04,-2.399999999999999790e-04,-4.000000000000000327e-05,0.000000000000000000e+00,5.000000000000000000e+00,2.100000000000000000e+01
5.991900000000000000e+04,-4.000000000000000327e-05,1.000000000000000082e-05,1.000000000000000082e-05,1.000000000000000048e-04,-3.399999999999999702e-04,-2.399999999999999790e-04,-4.000000000000000327e-05,0.000000000000000000e+00,5.000000000000000000e+00,2.100000000000000000e+01
5.992000000000000000e+04,-2.999999999999999737e-05,-8.000000000000000654e-05,-2.100000000000000087e-04,-1.699999999999999851e-04,-2.000000000000000164e-05,-1.000000000000000082e-05,-1.000000000000000082e-05,-1.000000000000000082e-05,5.000000000000000000e+00,2.100000000000000000e+01
5.992100000000000000e+04,-2.999999999999999737e-05,-8.000000000000000654e-05,-2.100000000000000087e-04,-1.699999999999999851e-04,-2.000000000000000164e-05,-1.000000000000000082e-05,-1.000000000000000082e-05,-1.000000000000000082e-05,5.000000000000000000e+00,2.100000000000000000e+01
5.992200000000000000e+04,-2.999999999999999737e-05,-8.000000000000000654e-05,-2.100000000000000087e-04,-1.699999999999999851e-04,-2.000000000000000164e-05,-1.000000000000000082e-05,-1.000000000000000082e-05,-1.000000000000000082e-05,5.000000000000000000e+00,2.100000000000000000e+01
5.992300000000000000e+04,-2.999999999999999737e-05,-8.000000000000000654e-05,-2.100000000000000087e-04,-1.699999999999999851e-04,-2.000000000000000164e-05,-1.000000000000000082e-05,-1.000000000000000082e-05,-1.000000000000000082e-05,5.000000000000000000e+00,2.100000000000000000e+01
5.992400000000000000e+04,-2.999999999999999737e-05,-8.000000000000000654e-05,-2.100000000000000087e-04,-1.699999999999999851e-04,-2.000000000000000164e-05,-1.000000000000000082e-05,-1.000000000000000082e-05,-1.000000000000000082e-05,5.000000000000000000e+00,2.100000000000000000e+01
5.992500000000000000e+04,-2.999999999999999737e-05,-8.000000000000000654e-05,-2.100000000000000087e-04,-1.699999999999999851e-04,-2.000000000000000164e-05,-1.000000000000000082e-05,-1.000000000000000082e-05,-1.000000000000000082e-05,5.000000000000000000e+00,2.100000000000000000e+01
5.992600000000000000e+04,-2.999999999999999737e-05,-8.000000000000000654e-05,-2.100000000000000087e-04,-1.699999999999999851e-04,-2.000000000000000164e-05,-1.000000000000000082e-05,-1.000000000000000082e-05,-1.000000000000000082e-05,5.000000000000000000e+00,2.100000000000000000e+01
5.992700000000000000e+04,-2.999999999999999737e-05,-8.000000000000000654e-05,-2.100000000000000087e-04,-1.699999999999999851e-04,-2.000000000000000164e-05,-1.000000000000000082e-05,-1.000000000000000082e-05,-1.000000000000000082e-05,5.000000000000000000e+00,2.100000000000000000e+01
5.992800000000000000e+04,-2.999999999999999737e-05,-8.000000000000000654e-05,-2.100000000000000087e-04,-1.699999999999999851e-04,-2.000000000000000164e-05,-1.000000000000000082e-05,-1.000000000000000082e-05,-1.000000000000000082e-05,5.000000000000000000e+00,2.100000000000000000e+01
5.992900000000000000e+04,-2.999999999999999737e-05,-8.000000000000000654e-05,-2.100000000000000087e-04,-1.699999999999999851e-04,-2.000000000000000164e-05,-1.000000000000000082e-05,-1.000000000000000082e-05,-1.000000000000000082e-05,5.000000000000000000e+00,2.100000000000000000e+01
5.993000000000000000e+04,-2.999999999999999737e-05,-8.000000000000000654e-05,-2.100000000000000087e-04,-1.699999999999999851e-04,-2.000000000000000164e-05,-1.000000000000000082e-05,-1.000000000000000082e-05,-1.000000000000000082e-05,5.000000000000000000e+00,2.100000000000000000e+01
5.993100000000000000e+04,-2.999999999999999737e-05,-8.000000000000000654e-05,-2.100000000000000087e-04,-1.699999999999999851e-04,-2.000000000000000164e-05,-1.000000000000000082e-05,-1.000000000000000082e-05,-1.000000000000000082e-05,5.000000000000000000e+00,2.100000000000000000e+01
5.993200000000000000e+04,-2.999999999999999737e-05,-8.000000000000000654e-05,-2.100000000000000087e-04,-1.699999999999999851e-04,-2.000000000000000164e-05,-1.000000000000000082e-05,-1.000000000000000082e-05,-1.000000000000000082e-05,5.000000000000000000e+00,2.100000000000000000e+01
5.993300000000000000e+04,-2.999999999999999737e-05,-8.000000000000000654e-05,-2.100000000000000087e-04,-1.699999999999999851e-04,-2.000000000000000164e-05,-1.000000000000000082e-05,-1.000000000000000082e-05,-1.000000000000000082e-05,5.000000000000000000e+00,2.100000000000000000e+01
5.993400000000000000e+04,-2.999999999999999737e-05,-8.000000000000000654e-05,-2.100000000000000087e-04,-1.699999999999999851e-04,-2.000000000000000164e-05,-1.000000000000000082e-05,-1.000000000000000082e-05,-1.000000000000000082e-05,5.000000000000000000e+00,2.100000000000000000e+01
5.993500000000000000e+04,-2.999999999999999737e-05,-8.000000000000000654e-05,-2.100000000000000087e-04,-1.699999999999999851e-04,-2.000000000000000164e-05,-1.000000000000000082e-05,-1.000000000000000082e-05,-1.000000000000000082e-05,5.000000000000000000e+00,2.100000000000000000e+01
5.993600000000000000e+04,-2.999999999999999737e-05,-8.000000000000000654e-05,-2.100000000000000087e-04,-1.699999999999999851e-04,-2.000000000000000164e-05,-1.000000000000000082e-05,-1.000000000000000082e-05,-1.000000000000000082e-05,5.000000000000000000e+00,2.100000000000000000e+01
5.993800000000000000e+04,-2.999999999999999737e-05,-8.000000000000000654e-05,-2.100000000000000087e-04,-1.699999999999999851e-04,-2.000000000000000164e-05,-1.000000000000000082e-05,-1.000000000000000082e-05,-1.000000000000000082e-05,5.000000000000000000e+00,2.100000000000000000e+01
5.994000000000000000e+04,-2.999999999999999737e-05,-8.000000000000000654e-05,-2.100000000000000087e-04,-1.699999999999999851e-04,-2.000000000000000164e-05,-1.000000000000000082e-05,-1.000000000000000082e-05,-1.000000000000000082e-05,5.000000000000000000e+00,2.100000000000000000e+01
5.994100000000000000e+04,-2.999999999999999737e-05,-8.000000000000000654e-05,-2.100000000000000087e-04,-1.699999999999999851e-04,-2.000000000000000164e-05,-1.000000000000000082e-05,-1.000000000000000082e-05,-1.000000000000000082e-05,5.000000000000000000e+00,2.100000000000000000e+01
5.994200000000000000e+04,-2.000000000000000164e-05,5.000000000000000240e-05,2.299999999999999799e-04,7.299999999999999632e-04,-1.499999999999999869e-04,-1.699999999999999851e-04,-8.000000000000000654e-05,-4.000000000000000327e-05,5.000000000000000000e+00,2.100000000000000000e+01
5.994300000000000000e+04,-2.000000000000000164e-05,5.000000000000000240e-05,2.299999999999999799e-04,7.299999999999999632e-04,-1.499999999999999869e-04,-1.699999999999999851e-04,-8.000000000000000654e-05,-4.000000000000000327e-05,5.000000000000000000e+00,2.100000000000000000e+01
5.994400000000000000e+04,-2.000000000000000164e-05,5.000000000000000240e-05,2.299999999999999799e-04,7.299999999999999632e-04,-1.499999999999999869e-04,-1.699999999999999851e-04,-8.000000000000000654e-05,-4.000000000000000327e-05,5.000000000000000000e+00,2.100000000000000000e+01
5.994500000000000000e+04,-2.000000000000000164e-05,5.000000000000000240e-05,2.299999999999999799e-04,7.299999999999999632e-04,-1.499999999999999869e-04,-1.699999999999999851e-04,-8.000000000000000654e-05,-4.000000000000000327e-05,5.000000000000000000e+00,2.100000000000000000e+01
5.994600000000000000e+04,-2.000000000000000164e-05,5.000000000000000240e-05,2.299999999999999799e-04,7.299999999999999632e-04,-1.499999999999999869e-04,-1.699999999999999851e-04,-8.000000000000000654e-05,-4.000000000000000327e-05,5.000000000000000000e+00,2.100000000000000000e+01
5.994700000000000000e+04,-2.000000000000000164e-05,5.000000000000000240e-05,2.299999999999999799e-04,7.299999999999999632e-04,-1.499999999999999869e-04,-1.699999999999999851e-04,-8.000000000000000654e-05,-4.000000000000000327e-05,5.000000000000000000e+00,2.100000000000000000e+01
5.994800000000000000e+04,-2.000000000000000164e-05,5.000000000000000240e-05,2.299999999999999799e-04,7.299999999999999632e-04,-1.499999999999999869e-04,-1.699999999999999851e-04,-8.000000000000000654e-05,-4.000000000000000327e-05,5.000000000000000000e+00,2.100000000000000000e+01
5.994900000000000000e+04,-2.000000000000000164e-05,5.000000000000000240e-05,2.299999999999999799e-04,7.299999999999999632e-04,-1.499999999999999869e-04,-1.699999999999999851e-04,-8.000000000000000654e-05,-4.000000000000000327e-05,5.000000000000000000e+00,2.100000000000000000e+01
5.995000000000000000e+04,2.000000000000000164e-05,-4.000000000000000327e-05,-1.100000000000000039e-04,-2.999999999999999737e-04,-2.600000000000000314e-04,0.000000000000000000e+00,2.000000000000000164e-05,0.000000000000000000e+00,5.000000000000000000e+00,2.100000000000000000e+01
5.995100000000000000e+04,-2.999999999999999737e-05,-4.000000000000000327e-05,-1.000000000000000082e-05,-2.999999999999999737e-05,9.000000000000000567e-05,2.999999999999999737e-05,2.000000000000000164e-05,-4.000000000000000327e-05,5.000000000000000000e+00,2.100000000000000000e+01
5.995200000000000000e+04,-2.999999999999999737e-05,-4.000000000000000327e-05,-1.000000000000000082e-05,-2.999999999999999737e-05,9.000000000000000567e-05,2.999999999999999737e-05,2.000000000000000164e-05,-4.000000000000000327e-05,5.000000000000000000e+00,2.100000000000000000e+01
5.995300000000000000e+04,-2.999999999999999737e-05,-4.000000000000000327e-05,-1.000000000000000082e-05,-2.999999999999999737e-05,9.000000000000000567e-05,2.999999999999999737e-05,2.000000000000000164e-05,-4.000000000000000327e-05,5.000000000000000000e+00,2.100000000000000000e+01
5.995400000000000000e+04,-2.999999999999999737e-05,-4.000000000000000327e-05,-1.000000000000000082e-05,-2.999999999999999737e-05,9.000000000000000567e-05,2.999999999999999737e-05,2.000000000000000164e-05,-4.000000000000000327e-05,5.000000000000000000e+00,2.100000000000000000e+01
5.995500000000000000e+04,-2.999999999999999737e-05,-4.000000000000000327e-05,-1.000000000000000082e-05,-2.999999999999999737e-05,9.000000000000000567e-05,2.999999999999999737e-05,2.000000000000000164e-05,-4.000000000000000327e-05,5.000000000000000000e+00,2.100000000000000000e+01
5.995600000000000000e+04,-2.999999999999999737e-05,-4.000000000000000327e-05,-1.000000000000000082e-05,-2.999999999999999737e-05,9.000000000000000567e-05,2.999999999999999737e-05,2.000000000000000164e-05,-4.000000000000000327e-05,5.000000000000000000e+00,2.100000000000000000e+01
5.995700000000000000e+04,-2.999999999999999737e-05,-4.000000000000000327e-05,-1.000000000000000082e-05,-2.999999999999999737e-05,9.000000000000000567e-05,2.999999999999999737e-05,2.000000000000000164e-05,-4.000000000000000327e-05,5.000000000000000000e+00,2.100000000000000000e+01
5.995800000000000000e+04,-2.999999999999999737e-05,-4.000000000000000327e-05,-1.000000000000000082e-05,-2.999999999999999737e-05,9.000000000000000567e-05,2.999999999999999737e-05,2.000000000000000164e-05,-4.000000000000000327e-05,5.000000000000000000e+00,2.100000000000000000e+01
5.995900000000000000e+04,-2.999999999999999737e-05,-4.000000000000000327e-05,-1.000000000000000082e-05,-2.999999999999999737e-05,9.000000000000000567e-05,2.999999999999999737e-05,2.000000000000000164e-05,-4.000000000000000327e-05,5.000000000000000000e+00,2.100000000000000000e+01
5.996000000000000000e+04,-2.999999999999999737e-05,-4.000000000000000327e-05,-1.000000000000000082e-05,-2.999999999999999737e-05,9.000000000000000567e-05,2.999999999999999737e-05,2.000000000000000164e-05,-4.000000000000000327e-05,5.000000000000000000e+00,2.100000000000000000e+01
5.996100000000000000e+04,-2.999999999999999737e-05,-4.000000000000000327e-05,-1.000000000000000082e-05,-2.999999999999999737e-05,9.000000000000000567e-05,2.999999999999999737e-05,2.000000000000000164e-05,-4.000000000000000327e-05,5.000000000000000000e+00,2.100000000000000000e+01
5.996200000000000000e+04,-2.999999999999999737e-05,-4.000000000000000327e-05,-1.000000000000000082e-05,-2.999999999999999737e-05,9.000000000000000567e-05,2.999999999999999737e-05,2.000000000000000164e-05,-4.000000000000000327e-05,5.000000000000000000e+00,2.100000000000000000e+01
5.996300000000000000e+04,-2.999999999999999737e-05,-4.000000000000000327e-05,-1.000000000000000082e-05,-2.999999999999999737e-05,9.000000000000000567e-05,2.999999999999999737e-05,2.000000000000000164e-05,-4.000000000000000327e-05,5.000000000000000000e+00,2.100000000000000000e+01
5.996400000000000000e+04,-2.999999999999999737e-05,-4.000000000000000327e-05,-1.000000000000000082e-05,-2.999999999999999737e-05,9.000000000000000567e-05,2.999999999999999737e-05,2.000000000000000164e-05,-4.000000000000000327e-05,5.000000000000000000e+00,2.100000000000000000e+01
5.996500000000000000e+04,-2.999999999999999737e-05,-4.000000000000000327e-05,-1.000000000000000082e-05,-2.999999999999999737e-05,9.000000000000000567e-05,2.999999999999999737e-05,2.000000000000000164e-05,-4.000000000000000327e-05,5.000000000000000000e+00,2.100000000000000000e+01
5.996600000000000000e+04,-2.999999999999999737e-05,-4.000000000000000327e-05,-1.000000000000000082e-05,-2.999999999999999737e-05,9.000000000000000567e-05,2.999999999999999737e-05,2.000000000000000164e-05,-4.000000000000000327e-05,5.000000000000000000e+00,2.100000000000000000e+01
5.996700000000000000e+04,-2.999999999999999737e-05,-4.000000000000000327e-05,-1.000000000000000082e-05,-2.999999999999999737e-05,9.000000000000000567e-05,2.999999999999999737e-05,2.000000000000000164e-05,-4.000000000000000327e-05,5.000000000000000000e+00,2.100000000000000000e+01
5.996800000000000000e+04,-2.999999999999999737e-05,-4.000000000000000327e-05,-1.000000000000000082e-05,-2.999999999999999737e-05,9.000000000000000567e-05,2.999999999999999737e-05,2.000000000000000164e-05,-4.000000000000000327e-05,5.000000000000000000e+00,2.100000000000000000e+01
5.996900000000000000e+04,-2.999999999999999737e-05,-4.000000000000000327e-05,-1.000000000000000082e-05,-2.999999999999999737e-05,9.000000000000000567e-05,2.999999999999999737e-05,2.000000000000000164e-05,-4.000000000000000327e-05,5.000000000000000000e+00,2.100000000000000000e+01
5.997000000000000000e+04,-2.999999999999999737e-05,-4.000000000000000327e-05,-1.000000000000000082e-05,-2.999999999999999737e-05,9.000000000000000567e-05,2.999999999999999737e-05,2.000000000000000164e-05,-4.000000000000000327e-05,5.000000000000000000e+00,2.100000000000000000e+01
5.997100000000000000e+04,-2.999999999999999737e-05,-4.000000000000000327e-05,-1.000000000000000082e-05,-2.999999999999999737e-05,9.000000000000000567e-05,2.999999999999999737e-05,2.000000000000000164e-05,-4.000000000000000327e-05,5.000000000000000000e+00,2.100000000000000000e+01
5.997200000000000000e+04,-2.999999999999999737e-05,-2.000000000000000164e-05,-5.000000000000000240e-05,-1.499999999999999869e-04,2.999999999999999737e-05,2.999999999999999737e-05,2.000000000000000164e-05,2.000000000000000164e-05,5.000000000000000000e+00,2.100000000000000000e+01
5.997300000000000000e+04,-2.999999999999999737e-05,-2.000000000000000164e-05,-5.000000000000000240e-05,-1.499999999999999869e-04,2.999999999999999737e-05,2.999999999999999737e-05,2.000000000000000164e-05,2.000000000000000164e-05,5.000000000000000000e+00,2.100000000000000000e+01
5.997400000000000000e+04,-2.999999999999999737e-05,-2.000000000000000164e-05,-5.000000000000000240e-05,-1.499999999999999869e-04,2.999999999999999737e-05,2.999999999999999737e-05,2.000000000000000164e-05,2.000000000000000164e-05,5.000000000000000000e+00,2.100000000000000000e+01
5.997500000000000000e+04,-2.999999999999999737e-05,-2.000000000000000164e-05,-5.000000000000000240e-05,-1.499999999999999869e-04,2.999999999999999737e-05,2.999999999999999737e-05,2.000000000000000164e-05,2.000000000000000164e-05,5.000000000000000000e+00,2.100000000000000000e+01
5.997600000000000000e+04,-2.999999999999999737e-05,-2.000000000000000164e-05,-5.000000000000000240e-05,-1.499999999999999869e-04,2.999999999999999737e-05,2.999999999999999737e-05,2.000000000000000164e-05,2.000000000000000164e-05,5.000000000000000000e+00,2.100000000000000000e+01
5.997700000000000000e+04,-2.999999999999999737e-05,-2.000000000000000164e-05,-5.000000000000000240e-05,-1.499999999999999869e-04,2.999999999999999737e-05,2.999999999999999737e-05,2.000000000000000164e-05,2.000000000000000164e-05,5.000000000000000000e+00,2.100000000000000000e+01
5.997800000000000000e+04,-2.999999999999999737e-05,-2.000000000000000164e-05,-5.000000000000000240e-05,-1.499999999999999869e-04,2.999999999999999737e-05,2.999999999999999737e-05,2.000000000000000164e-05,2.000000000000000164e-05,5.000000000000000000e+00,2.100000000000000000e+01
5.997900000000000000e+04,-2.999999999999999737e-05,-2.000000000000000164e-05,-5.000000000000000240e-05,-1.499999999999999869e-04,2.999999999999999737e-05,2.999999999999999737e-05,2.000000000000000164e-05,2.000000000000000164e-05,5.000000000000000000e+00,2.100000000000000000e+01
5.998000000000000000e+04,-2.999999999999999737e-05,-2.000000000000000164e-05,-5.000000000000000240e-05,-1.499999999999999869e-04,2.999999999999999737e-05,2.999999999999999737e-05,2.000000000000000164e-05,2.000000000000000164e-05,5.000000000000000000e+00,2.100000000000000000e+01
5.998100000000000000e+04,-2.999999999999999737e-05,-2.000000000000000164e-05,-5.000000000000000240e-05,-1.499999999999999869e-04,2.999999999999999737e-05,2.999999999999999737e-05,2.000000000000000164e-05,2.000000000000000164e-05,5.000000000000000000e+00,2.100000000000000000e+01
5.998200000000000000e+04,-2.999999999999999737e-05,-2.000000000000000164e-05,-5.000000000000000240e-05,-1.499999999999999869e-04,2.999999999999999737e-05,2.999999999999999737e-05,2.000000000000000164e-05,2.000000000000000164e-05,5.000000000000000000e+00,2.100000000000000000e+01
5.998300000000000000e+04,-2.999999999999999737e-05,-2.000000000000000164e-05,-5.000000000000000240e-05,-1.499999999999999869e-04,2.999999999999999737e-05,2.999999999999999737e-05,2.000000000000000164e-05,2.000000000000000164e-05,5.000000000000000000e+00,2.100000000000000000e+01
5.998400000000000000e+04,-2.999999999999999737e-05,-2.000000000000000164e-05,-5.000000000000000240e-05,-1.499999999999999869e-04,2.999999999999999737e-05,2.999999999999999737e-05,2.000000000000000164e-05,2.000000000000000164e-05,5.000000000000000000e+00,2.100000000000000000e+01
5.998500000000000000e+04,-2.999999999999999737e-05,-2.000000000000000164e-05,-5.000000000000000240e-05,-1.499999999999999869e-04,2.999999999999999737e-05,2.999999999999999737e-05,2.000000000000000164e-05,2.000000000000000164e-05,5.000000000000000000e+00,2.100000000000000000e+01
5.998600000000000000e+04,4.000000000000000327e-05,6.999999999999999387e-05,1.800000000000000113e-04,3.200000000000000262e-04,1.699999999999999851e-04,2.000000000000000096e-04,2.000000000000000164e-05,1.000000000000000082e-05,5.000000000000000000e+00,2.100000000000000000e+01
5.998800000000000000e+04,4.000000000000000327e-05,6.999999999999999387e-05,1.800000000000000113e-04,3.200000000000000262e-04,1.699999999999999851e-04,2.000000000000000096e-04,2.000000000000000164e-05,1.000000000000000082e-05,5.000000000000000000e+00,2.100000000000000000e+01
5.998900000000000000e+04,4.000000000000000327e-05,6.999999999999999387e-05,1.800000000000000113e-04,3.200000000000000262e-04,1.699999999999999851e-04,2.000000000000000096e-04,2.000000000000000164e-05,1.000000000000000082e-05,5.000000000000000000e+00,2.100000000000000000e+01
5.999000000000000000e+04,4.000000000000000327e-05,6.999999999999999387e-05,1.800000000000000113e-04,3.200000000000000262e-04,1.699999999999999851e-04,2.000000000000000096e-04,2.000000000000000164e-05,1.000000000000000082e-05,5.000000000000000000e+00,2.100000000000000000e+01
5.999100000000000000e+04,4.000000000000000327e-05,6.999999999999999387e-05,1.800000000000000113e-04,3.200000000000000262e-04,1.699999999999999851e-04,2.000000000000000096e-04,2.000000000000000164e-05,1.000000000000000082e-05,5.000000000000000000e+00,2.100000000000000000e+01
5.999200000000000000e+04,4.000000000000000327e-05,6.999999999999999387e-05,1.800000000000000113e-04,3.200000000000000262e-04,1.699999999999999851e-04,2.000000000000000096e-04,2.000000000000000164e-05,1.000000000000000082e-05,5.000000000000000000e+00,2.100000000000000000e+01
5.999300000000000000e+04,4.000000000000000327e-05,6.999999999999999387e-05,1.800000000000000113e-04,3.200000000000000262e-04,1.699999999999999851e-04,2.000000000000000096e-04,2.000000000000000164e-05,1.000000000000000082e-05,5.000000000000000000e+00,2.100000000000000000e+01
5.999400000000000000e+04,-2.999999999999999737e-05,-5.000000000000000240e-05,0.000000000000000000e+00,5.999999999999999474e-05,1.199999999999999895e-04,2.000000000000000164e-05,-1.300000000000000157e-04,-9.000000000000000567e-05,5.000000000000000000e+00,2.100000000000000000e+01
5.999500000000000000e+04,0.000000000000000000e+00,-1.000000000000000082e-05,-2.100000000000000087e-04,-2.600000000000000314e-04,-1.199999999999999895e-04,5.999999999999999474e-05,5.000000000000000240e-05,2.999999999999999737e-05,5.000000000000000000e+00,2.100000000000000000e+01
5.999600000000000000e+04,-2.999999999999999737e-05,0.000000000000000000e+00,-8.000000000000000654e-05,-1.199999999999999895e-04,-1.000000000000000048e-04,-1.499999999999999869e-04,-6.999999999999999387e-05,-2.000000000000000164e-05,5.000000000000000000e+00,2.100000000000000000e+01
5.999700000000000000e+04,-2.999999999999999737e-05,0.000000000000000000e+00,-8.000000000000000654e-05,-1.199999999999999895e-04,-1.000000000000000048e-04,-1.499999999999999869e-04,-6.999999999999999387e-05,-2.000000000000000164e-05,5.000000000000000000e+00,2.100000000000000000e+01
5.999800000000000000e+04,-2.999999999999999737e-05,0.000000000000000000e+00,-8.000000000000000654e-05,-1.199999999999999895e-04,-1.000000000000000048e-04,-1.499999999999999869e-04,-6.999999999999999387e-05,-2.000000000000000164e-05,5.000000000000000000e+00,2.100000000000000000e+01
5.999900000000000000e+04,-2.999999999999999737e-05,0.000000000000000000e+00,-8.000000000000000654e-05,-1.199999999999999895e-04,-1.000000000000000048e-04,-1.499999999999999869e-04,-6.999999999999999387e-05,-2.000000000000000164e-05,5.000000000000000000e+00,2.100000000000000000e+01
6.000000000000000000e+04,-2.999999999999999737e-05,0.000000000000000000e+00,-8.000000000000000654e-05,-1.199999999999999895e-04,-1.000000000000000048e-04,-1.499999999999999869e-04,-6.999999999999999387e-05,-2.000000000000000164e-05,5.000000000000000000e+00,2.100000000000000000e+01
6.000100000000000000e+04,-2.999999999999999737e-05,0.000000000000000000e+00,-8.000000000000000654e-05,-1.199999999999999895e-04,-1.000000000000000048e-04,-1.499999999999999869e-04,-6.999999999999999387e-05,-2.000000000000000164e-05,5.000000000000000000e+00,2.100000000000000000e+01
6.000200000000000000e+04,-2.999999999999999737e-05,0.000000000000000000e+00,-8.000000000000000654e-05,-1.199999999999999895e-04,-1.000000000000000048e-04,-1.499999999999999869e-04,-6.999999999999999387e-05,-2.000000000000000164e-05,5.000000000000000000e+00,2.100000000000000000e+01
6.000300000000000000e+04,-2.999999999999999737e-05,0.000000000000000000e+00,-8.000000000000000654e-05,-1.199999999999999895e-04,-1.000000000000000048e-04,-1.499999999999999869e-04,-6.999999999999999387e-05,-2.000000000000000164e-05,5.000000000000000000e+00,2.100000000000000000e+01
6.000400000000000000e+04,-2.999999999999999737e-05,0.000000000000000000e+00,-8.000000000000000654e-05,-1.199999999999999895e-04,-1.000000000000000048e-04,-1.499999999999999869e-04,-6.999999999999999387e-05,-2.000000000000000164e-05,5.000000000000000000e+00,2.100000000000000000e+01
6.000500000000000000e+04,-2.999999999999999737e-05,0.000000000000000000e+00,-8.000000000000000654e-05,-1.199999999999999895e-04,-1.000000000000000048e-04,-1.499999999999999869e-04,-6.999999999999999387e-05,-2.000000000000000164e-05,5.000000000000000000e+00,2.100000000000000000e+01
6.000600000000000000e+04,-2.999999999999999737e-05,0.000000000000000000e+00,-8.000000000000000654e-05,-1.199999999999999895e-04,-1.000000000000000048e-04,-1.499999999999999869e-04,-6.999999999999999387e-05,-2.000000000000000164e-05,5.000000000000000000e+00,2.100000000000000000e+01
6.000700000000000000e+04,-2.999999999999999737e-05,0.000000000000000000e+00,-8.000000000000000654e-05,-1.199999999999999895e-04,-1.000000000000000048e-04,-1.499999999999999869e-04,-6.999999999999999387e-05,-2.000000000000000164e-05,5.000000000000000000e+00,2.100000000000000000e+01
6.000800000000000000e+04,-2.999999999999999737e-05,0.000000000000000000e+00,-8.000000000000000654e-05,-1.199999999999999895e-04,-1.000000000000000048e-04,-1.499999999999999869e-04,-6.999999999999999387e-05,-2.000000000000000164e-05,5.000000000000000000e+00,2.100000000000000000e+01
6.000900000000000000e+04,0.000000000000000000e+00,2.000000000000000164e-05,5.000000000000000240e-05,5.999999999999999474e-05,3.600000000000000227e-04,-1.000000000000000048e-04,-8.000000000000000654e-05,-5.000000000000000240e-05,5.000000000000000000e+00,2.100000000000000000e+01
6.001000000000000000e+04,0.000000000000000000e+00,-2.000000000000000164e-05,-8.000000000000000654e-05,-6.999999999999999387e-05,2.000000000000000164e-05,-4.000000000000000327e-05,4.000000000000000327e-05,0.000000000000000000e+00,5.000000000000000000e+00,2.100000000000000000e+01
6.001100000000000000e+04,0.000000000000000000e+00,-2.000000000000000164e-05,-8.000000000000000654e-05,-6.999999999999999387e-05,2.000000000000000164e-05,-4.000000000000000327e-05,4.000000000000000327e-05,0.000000000000000000e+00,5.000000000000000000e+00,2.100000000000000000e+01
6.001200000000000000e+04,0.000000000000000000e+00,-2.000000000000000164e-05,-8.000000000000000654e-05,-6.999999999999999387e-05,2.000000000000000164e-05,-4.000000000000000327e-05,4.000000000000000327e-05,0.000000000000000000e+00,5.000000000000000000e+00,2.100000000000000000e+01
6.001300000000000000e+04,0.000000000000000000e+00,-2.000000000000000164e-05,-8.000000000000000654e-05,-6.999999999999999387e-05,2.000000000000000164e-05,-4.000000000000000327e-05,4.000000000000000327e-05,0.000000000000000000e+00,5.000000000000000000e+00,2.100000000000000000e+01
6.001400000000000000e+04,0.000000000000000000e+00,-2.000000000000000164e-05,-8.000000000000000654e-05,-6.999999999999999387e-05,2.000000000000000164e-05,-4.000000000000000327e-05,4.000000000000000327e-05,0.000000000000000000e+00,5.000000000000000000e+00,2.100000000000000000e+01
6.001500000000000000e+04,0.000000000000000000e+00,-2.000000000000000164e-05,-8.000000000000000654e-05,-6.999999999999999387e-05,2.000000000000000164e-05,-4.000000000000000327e-05,4.000000000000000327e-05,0.000000000000000000e+00,5.000000000000000000e+00,2.100000000000000000e+01
6.001600000000000000e+04,0.000000000000000000e+00,-2.000000000000000164e-05,-8.000000000000000654e-05,-6.999999999999999387e-05,2.000000000000000164e-05,-4.000000000000000327e-05,4.000000000000000327e-05,0.000000000000000000e+00,5.000000000000000000e+00,2.100000000000000000e+01
6.001700000000000000e+04,0.000000000000000000e+00,-2.000000000000000164e-05,-8.000000000000000654e-05,-6.999999999999999387e-05,2.000000000000000164e-05,-4.000000000000000327e-05,4.000000000000000327e-05,0.000000000000000000e+00,5.000000000000000000e+00,2.100000000000000000e+01
6.001800000000000000e+04,0.000000000000000000e+00,-2.000000000000000164e-05,-8.000000000000000654e-05,-6.999999999999999387e-05,2.000000000000000164e-05,-4.000000000000000327e-05,4.000000000000000327e-05,0.000000000000000000e+00,5.000000000000000000e+00,2.100000000000000000e+01
6.001900000000000000e+04,0.000000000000000000e+00,-2.000000000000000164e-05,-8.000000000000000654e-05,-6.999999999999999387e-05,2.000000000000000164e-05,-4.000000000000000327e-05,4.000000000000000327e-05,0.000000000000000000e+00,5.000000000000000000e+00,2.100000000000000000e+01
6.002000000000000000e+04,0.000000000000000000e+00,-2.000000000000000164e-05,-8.000000000000000654e-05,-6.999999999999999387e-05,2.000000000000000164e-05,-4.000000000000000327e-05,4.000000000000000327e-05,0.000000000000000000e+00,5.000000000000000000e+00,2.100000000000000000e+01
6.002100000000000000e+04,0.000000000000000000e+00,-2.000000000000000164e-05,-8.000000000000000654e-05,-6.999999999999999387e-05,2.000000000000000164e-05,-4.000000000000000327e-05,4.000000000000000327e-05,0.000000000000000000e+00,5.000000000000000000e+00,2.100000000000000000e+01
6.002300000000000000e+04,0.000000000000000000e+00,-2.000000000000000164e-05,-8.000000000000000654e-05,-6.999999999999999387e-05,2.000000000000000164e-05,-4.000000000000000327e-05,4.000000000000000327e-05,0.000000000000000000e+00,5.000000000000000000e+00,2.100000000000000000e+01
6.002400000000000000e+04,0.000000000000000000e+00,-2.000000000000000164e-05,-8.000000000000000654e-05,-6.999999999999999387e-05,2.000000000000000164e-05,-4.000000000000000327e-05,4.000000000000000327e-05,0.000000000000000000e+00,5.000000000000000000e+00,2.100000000000000000e+01
6.002500000000000000e+04,0.000000000000000000e+00,-2.000000000000000164e-05,-8.000000000000000654e-05,-6.999999999999999387e-05,2.000000000000000164e-05,-4.000000000000000327e-05,4.000000000000000327e-05,0.000000000000000000e+00,5.000000000000000000e+00,2.100000000000000000e+01
6.002600000000000000e+04,0.000000000000000000e+00,-2.000000000000000164e-05,-8.000000000000000654e-05,-6.999999999999999387e-05,2.000000000000000164e-05,-4.000000000000000327e-05,4.000000000000000327e-05,0.000000000000000000e+00,5.000000000000000000e+00,2.100000000000000000e+01
6.002700000000000000e+04,0.000000000000000000e+00,-2.000000000000000164e-05,-8.000000000000000654e-05,-6.999999999999999387e-05,2.000000000000000164e-05,-4.000000000000000327e-05,4.000000000000000327e-05,0.000000000000000000e+00,5.000000000000000000e+00,2.100000000000000000e+01
6.002800000000000000e+04,0.000000000000000000e+00,-2.000000000000000164e-05,-8.000000000000000654e-05,-6.999999999999999387e-05,2.000000000000000164e-05,-4.000000000000000327e-05,4.000000000000000327e-05,0.000000000000000000e+00,5.000000000000000000e+00,2.100000000000000000e+01
6.002900000000000000e+04,0.000000000000000000e+00,-2.000000000000000164e-05,-8.000000000000000654e-05,-6.999999999999999387e-05,2.000000000000000164e-05,-4.000000000000000327e-05,4.000000000000000327e-05,0.000000000000000000e+00,5.000000000000000000e+00,2.100000000000000000e+01
6.003000000000000000e+04,0.000000000000000000e+00,-2.000000000000000164e-05,-8.000000000000000654e-05,-6.999999999999999387e-05,2.000000000000000164e-05,-4.000000000000000327e-05,4.000000000000000327e-05,0.000000000000000000e+00,5.000000000000000000e+00,2.100000000000000000e+01
6.003100000000000000e+04,0.000000000000000000e+00,-2.000000000000000164e-05,-8.000000000000000654e-05,-6.999999999999999387e-05,2.000000000000000164e-05,-4.000000000000000327e-05,4.000000000000000327e-05,0.000000000000000000e+00,5.000000000000000000e+00,2.100000000000000000e+01
6.003200000000000000e+04,-4.000000000000000327e-05,-9.000000000000000567e-05,-1.600000000000000131e-04,2.999999999999999737e-05,-8.000000000000000654e-05,-1.199999999999999895e-04,-8.000000000000000654e-05,-5.999999999999999474e-05,5.000000000000000000e+00,2.100000000000000000e+01
6.003300000000000000e+04,2.000000000000000164e-05,1.000000000000000082e-05,5.999999999999999474e-05,-8.000000000000000654e-05,5.400000000000000069e-04,1.399999999999999877e-04,-2.000000000000000164e-05,0.000000000000000000e+00,5.000000000000000000e+00,2.100000000000000000e+01
6.003400000000000000e+04,2.000000000000000164e-05,1.000000000000000082e-05,5.999999999999999474e-05,-8.000000000000000654e-05,5.400000000000000069e-04,1.399999999999999877e-04,-2.000000000000000164e-05,0.000000000000000000e+00,5.000000000000000000e+00,2.100000000000000000e+01
6.003500000000000000e+04,2.000000000000000164e-05,1.000000000000000082e-05,5.999999999999999474e-05,-8.000000000000000654e-05,5.400000000000000069e-04,1.399999999999999877e-04,-2.000000000000000164e-05,0.000000000000000000e+00,5.000000000000000000e+00,2.100000000000000000e+01
6.004300000000000000e+04,2.000000000000000164e-05,1.000000000000000082e-05,5.999999999999999474e-05,-8.000000000000000654e-05,5.400000000000000069e-04,1.399999999999999877e-04,-2.000000000000000164e-05,0.000000000000000000e+00,5.000000000000000000e+00,2.100000000000000000e+01
6.004500000000000000e+04,2.000000000000000164e-05,1.000000000000000082e-05,5.999999999999999474e-05,-8.000000000000000654e-05,5.400000000000000069e-04,1.399999999999999877e-04,-2.000000000000000164e-05,0.000000000000000000e+00,5.000000000000000000e+00,2.100000000000000000e+01
6.004600000000000000e+04,2.000000000000000164e-05,1.000000000000000082e-05,5.999999999999999474e-05,-8.000000000000000654e-05,5.400000000000000069e-04,1.399999999999999877e-04,-2.000000000000000164e-05,0.000000000000000000e+00,5.000000000000000000e+00,2.100000000000000000e+01
6.004700000000000000e+04,2.000000000000000164e-05,1.000000000000000082e-05,5.999999999999999474e-05,-8.000000000000000654e-05,5.400000000000000069e-04,1.399999999999999877e-04,-2.000000000000000164e-05,0.000000000000000000e+00,5.000000000000000000e+00,2.100000000000000000e+01
6.004800000000000000e+04,2.000000000000000164e-05,1.000000000000000082e-05,5.999999999999999474e-05,-8.000000000000000654e-05,5.400000000000000069e-04,1.399999999999999877e-04,-2.000000000000000164e-05,0.000000000000000000e+00,5.000000000000000000e+00,2.100000000000000000e+01
6.004900000000000000e+04,2.000000000000000164e-05,1.000000000000000082e-05,5.999999999999999474e-05,-8.000000000000000654e-05,5.400000000000000069e-04,1.399999999999999877e-04,-2.000000000000000164e-05,0.000000000000000000e+00,5.000000000000000000e+00,2.100000000000000000e+01
6.005000000000000000e+04,2.000000000000000164e-05,1.000000000000000082e-05,5.999999999999999474e-05,-8.000000000000000654e-05,5.400000000000000069e-04,1.399999999999999877e-04,-2.000000000000000164e-05,0.000000000000000000e+00,5.000000000000000000e+00,2.100000000000000000e+01
6.005100000000000000e+04,2.000000000000000164e-05,1.000000000000000082e-05,5.999999999999999474e-05,-8.000000000000000654e-05,5.400000000000000069e-04,1.399999999999999877e-04,-2.000000000000000164e-05,0.000000000000000000e+00,5.000000000000000000e+00,2.100000000000000000e+01
6.005200000000000000e+04,2.000000000000000164e-05,1.000000000000000082e-05,5.999999999999999474e-05,-8.000000000000000654e-05,5.400000000000000069e-04,1.399999999999999877e-04,-2.000000000000000164e-05,0.000000000000000000e+00,5.000000000000000000e+00,2.100000000000000000e+01
6.005300000000000000e+04,2.000000000000000164e-05,1.000000000000000082e-05,5.999999999999999474e-05,-8.000000000000000654e-05,5.400000000000000069e-04,1.399999999999999877e-04,-2.000000000000000164e-05,0.000000000000000000e+00,5.000000000000000000e+00,2.100000000000000000e+01
6.005400000000000000e+04,2.000000000000000164e-05,1.000000000000000082e-05,5.999999999999999474e-05,-8.000000000000000654e-05,5.400000000000000069e-04,1.399999999999999877e-04,-2.000000000000000164e-05,0.000000000000000000e+00,5.000000000000000000e+00,2.100000000000000000e+01
6.005500000000000000e+04,1.000000000000000082e-05,8.000000000000000654e-05,1.600000000000000131e-04,1.499999999999999869e-04,1.199999999999999895e-04,-1.000000000000000082e-05,2.000000000000000164e-05,1.000000000000000082e-05,5.000000000000000000e+00,2.100000000000000000e+01
6.005600000000000000e+04,1.000000000000000082e-05,8.000000000000000654e-05,1.600000000000000131e-04,1.499999999999999869e-04,1.199999999999999895e-04,-1.000000000000000082e-05,2.000000000000000164e-05,1.000000000000000082e-05,5.000000000000000000e+00,2.100000000000000000e+01
6.005700000000000000e+04,1.000000000000000082e-05,8.000000000000000654e-05,1.600000000000000131e-04,1.499999999999999869e-04,1.199999999999999895e-04,-1.000000000000000082e-05,2.000000000000000164e-05,1.000000000000000082e-05,5.000000000000000000e+00,2.100000000000000000e+01
