3.105400000000000000e+04,-1.899999999999999834e-04,-1.300000000000000157e-04,-5.999999999999999474e-05,-1.100000000000000039e-04,-9.400000000000000803e-04,-5.800000000000000034e-04,-2.299999999999999799e-04,2.100000000000000087e-04,6.000000000000000000e+00,1.100000000000000000e+01
3.105500000000000000e+04,-1.899999999999999834e-04,-1.300000000000000157e-04,-5.999999999999999474e-05,-1.100000000000000039e-04,-9.400000000000000803e-04,-5.800000000000000034e-04,-2.299999999999999799e-04,2.100000000000000087e-04,6.000000000000000000e+00,1.100000000000000000e+01
3.105600000000000000e+04,-1.899999999999999834e-04,-1.300000000000000157e-04,-5.999999999999999474e-05,-1.100000000000000039e-04,-9.400000000000000803e-04,-5.800000000000000034e-04,-2.299999999999999799e-04,2.100000000000000087e-04,6.000000000000000000e+00,1.100000000000000000e+01
3.105700000000000000e+04,-1.899999999999999834e-04,-1.300000000000000157e-04,-5.999999999999999474e-05,-1.100000000000000039e-04,-9.400000000000000803e-04,-5.800000000000000034e-04,-2.299999999999999799e-04,2.100000000000000087e-04,6.000000000000000000e+00,1.100000000000000000e+01
3.105800000000000000e+04,5.999999999999999474e-05,-5.999999999999999474e-05,5.000000000000000240e-05,-5.000000000000000240e-05,-7.299999999999999632e-04,-5.599999999999999509e-04,-6.999999999999999387e-05,-3.600000000000000227e-04,6.000000000000000000e+00,1.100000000000000000e+01
3.105900000000000000e+04,1.800000000000000113e-04,2.000000000000000164e-05,5.999999999999999474e-05,1.000000000000000082e-05,2.000000000000000164e-05,-5.500000000000000331e-04,5.699999999999999772e-04,-1.600000000000000131e-04,6.000000000000000000e+00,1.100000000000000000e+01
3.106000000000000000e+04,1.800000000000000113e-04,2.000000000000000164e-05,5.999999999999999474e-05,1.000000000000000082e-05,2.000000000000000164e-05,-5.500000000000000331e-04,5.699999999999999772e-04,-1.600000000000000131e-04,6.000000000000000000e+00,1.100000000000000000e+01
3.106100000000000000e+04,1.800000000000000113e-04,2.000000000000000164e-05,5.999999999999999474e-05,1.000000000000000082e-05,2.000000000000000164e-05,-5.500000000000000331e-04,5.699999999999999772e-04,-1.600000000000000131e-04,6.000000000000000000e+00,1.100000000000000000e+01
3.106200000000000000e+04,1.800000000000000113e-04,2.000000000000000164e-05,5.999999999999999474e-05,1.000000000000000082e-05,2.000000000000000164e-05,-5.500000000000000331e-04,5.699999999999999772e-04,-1.600000000000000131e-04,6.000000000000000000e+00,1.100000000000000000e+01
3.106300000000000000e+04,1.800000000000000113e-04,2.000000000000000164e-05,5.999999999999999474e-05,1.000000000000000082e-05,2.000000000000000164e-05,-5.500000000000000331e-04,5.699999999999999772e-04,-1.600000000000000131e-04,6.000000000000000000e+00,1.100000000000000000e+01
3.106400000000000000e+04,1.800000000000000113e-04,2.000000000000000164e-05,5.999999999999999474e-05,1.000000000000000082e-05,2.000000000000000164e-05,-5.500000000000000331e-04,5.699999999999999772e-04,-1.600000000000000131e-04,6.000000000000000000e+00,1.100000000000000000e+01
3.106500000000000000e+04,1.800000000000000113e-04,2.000000000000000164e-05,5.999999999999999474e-05,1.000000000000000082e-05,2.000000000000000164e-05,-5.500000000000000331e-04,5.699999999999999772e-04,-1.600000000000000131e-04,6.000000000000000000e+00,1.100000000000000000e+01
3.106600000000000000e+04,1.800000000000000113e-04,2.000000000000000164e-05,5.999999999999999474e-05,1.000000000000000082e-05,2.000000000000000164e-05,-5.500000000000000331e-04,5.699999999999999772e-04,-1.600000000000000131e-04,6.000000000000000000e+00,1.100000000000000000e+01
3.106700000000000000e+04,1.800000000000000113e-04,2.000000000000000164e-05,5.999999999999999474e-05,1.000000000000000082e-05,2.000000000000000164e-05,-5.500000000000000331e-04,5.699999999999999772e-04,-1.600000000000000131e-04,6.000000000000000000e+00,1.100000000000000000e+01
3.106800000000000000e+04,1.800000000000000113e-04,2.000000000000000164e-05,5.999999999999999474e-05,1.000000000000000082e-05,2.000000000000000164e-05,-5.500000000000000331e-04,5.699999999999999772e-04,-1.600000000000000131e-04,6.000000000000000000e+00,1.100000000000000000e+01
3.106900000000000000e+04,1.800000000000000113e-04,2.000000000000000164e-05,5.999999999999999474e-05,1.000000000000000082e-05,2.000000000000000164e-05,-5.500000000000000331e-04,5.699999999999999772e-04,-1.600000000000000131e-04,6.000000000000000000e+00,1.100000000000000000e+01
3.107000000000000000e+04,1.800000000000000113e-04,2.000000000000000164e-05,5.999999999999999474e-05,1.000000000000000082e-05,2.000000000000000164e-05,-5.500000000000000331e-04,5.699999999999999772e-04,-1.600000000000000131e-04,6.000000000000000000e+00,1.100000000000000000e+01
3.107100000000000000e+04,-9.499999999999999981e-04,-2.000000000000000096e-04,-2.900000000000000017e-04,-6.999999999999999387e-05,-6.099999999999999737e-04,-3.200000000000000262e-04,-1.600000000000000131e-04,-2.000000000000000164e-05,6.000000000000000000e+00,1.100000000000000000e+01
3.107200000000000000e+04,4.299999999999999894e-04,2.999999999999999737e-05,1.000000000000000048e-04,-9.000000000000000567e-05,-1.199999999999999895e-04,-1.800000000000000113e-04,2.000000000000000164e-05,1.100000000000000039e-04,6.000000000000000000e+00,1.100000000000000000e+01
3.107300000000000000e+04,4.299999999999999894e-04,2.999999999999999737e-05,1.000000000000000048e-04,-9.000000000000000567e-05,-1.199999999999999895e-04,-1.800000000000000113e-04,2.000000000000000164e-05,1.100000000000000039e-04,6.000000000000000000e+00,1.100000000000000000e+01
3.107400000000000000e+04,4.299999999999999894e-04,2.999999999999999737e-05,1.000000000000000048e-04,-9.000000000000000567e-05,-1.199999999999999895e-04,-1.800000000000000113e-04,2.000000000000000164e-05,1.100000000000000039e-04,6.000000000000000000e+00,1.100000000000000000e+01
3.107500000000000000e+04,4.299999999999999894e-04,2.999999999999999737e-05,1.000000000000000048e-04,-9.000000000000000567e-05,-1.199999999999999895e-04,-1.800000000000000113e-04,2.000000000000000164e-05,1.100000000000000039e-04,6.000000000000000000e+00,1.100000000000000000e+01
3.107600000000000000e+04,4.299999999999999894e-04,2.999999999999999737e-05,1.000000000000000048e-04,-9.000000000000000567e-05,-1.199999999999999895e-04,-1.800000000000000113e-04,2.000000000000000164e-05,1.100000000000000039e-04,6.000000000000000000e+00,1.100000000000000000e+01
3.107700000000000000e+04,4.299999999999999894e-04,2.999999999999999737e-05,1.000000000000000048e-04,-9.000000000000000567e-05,-1.199999999999999895e-04,-1.800000000000000113e-04,2.000000000000000164e-05,1.100000000000000039e-04,6.000000000000000000e+00,1.100000000000000000e+01
3.107800000000000000e+04,4.299999999999999894e-04,2.999999999999999737e-05,1.000000000000000048e-04,-9.000000000000000567e-05,-1.199999999999999895e-04,-1.800000000000000113e-04,2.000000000000000164e-05,1.100000000000000039e-04,6.000000000000000000e+00,1.100000000000000000e+01
3.107900000000000000e+04,4.299999999999999894e-04,2.999999999999999737e-05,1.000000000000000048e-04,-9.000000000000000567e-05,-1.199999999999999895e-04,-1.800000000000000113e-04,2.000000000000000164e-05,1.100000000000000039e-04,6.000000000000000000e+00,1.100000000000000000e+01
3.108000000000000000e+04,-5.000000000000000240e-05,-5.000000000000000240e-05,-2.999999999999999737e-05,-6.999999999999999387e-05,-2.200000000000000078e-04,1.199999999999999895e-04,-4.499999999999999877e-04,-2.600000000000000314e-04,6.000000000000000000e+00,1.100000000000000000e+01
3.108100000000000000e+04,-5.000000000000000240e-05,-5.000000000000000240e-05,-2.999999999999999737e-05,-6.999999999999999387e-05,-2.200000000000000078e-04,1.199999999999999895e-04,-4.499999999999999877e-04,-2.600000000000000314e-04,6.000000000000000000e+00,1.100000000000000000e+01
3.108200000000000000e+04,-5.000000000000000240e-05,-5.000000000000000240e-05,-2.999999999999999737e-05,-6.999999999999999387e-05,-2.200000000000000078e-04,1.199999999999999895e-04,-4.499999999999999877e-04,-2.600000000000000314e-04,6.000000000000000000e+00,1.100000000000000000e+01
3.108300000000000000e+04,-5.000000000000000240e-05,-5.000000000000000240e-05,-2.999999999999999737e-05,-6.999999999999999387e-05,-2.200000000000000078e-04,1.199999999999999895e-04,-4.499999999999999877e-04,-2.600000000000000314e-04,6.000000000000000000e+00,1.100000000000000000e+01
3.108400000000000000e+04,-5.000000000000000240e-05,-5.000000000000000240e-05,-2.999999999999999737e-05,-6.999999999999999387e-05,-2.200000000000000078e-04,1.199999999999999895e-04,-4.499999999999999877e-04,-2.600000000000000314e-04,6.000000000000000000e+00,1.100000000000000000e+01
3.108500000000000000e+04,-5.000000000000000240e-05,-5.000000000000000240e-05,-2.999999999999999737e-05,-6.999999999999999387e-05,-2.200000000000000078e-04,1.199999999999999895e-04,-4.499999999999999877e-04,-2.600000000000000314e-04,6.000000000000000000e+00,1.100000000000000000e+01
3.108700000000000000e+04,-5.000000000000000240e-05,-5.000000000000000240e-05,-2.999999999999999737e-05,-6.999999999999999387e-05,-2.200000000000000078e-04,1.199999999999999895e-04,-4.499999999999999877e-04,-2.600000000000000314e-04,6.000000000000000000e+00,1.100000000000000000e+01
3.108900000000000000e+04,-5.000000000000000240e-05,-5.000000000000000240e-05,-2.999999999999999737e-05,-6.999999999999999387e-05,-2.200000000000000078e-04,1.199999999999999895e-04,-4.499999999999999877e-04,-2.600000000000000314e-04,6.000000000000000000e+00,1.100000000000000000e+01
3.109000000000000000e+04,-5.000000000000000240e-05,-5.000000000000000240e-05,-2.999999999999999737e-05,-6.999999999999999387e-05,-2.200000000000000078e-04,1.199999999999999895e-04,-4.499999999999999877e-04,-2.600000000000000314e-04,6.000000000000000000e+00,1.100000000000000000e+01
3.109100000000000000e+04,-5.000000000000000240e-05,-5.000000000000000240e-05,-2.999999999999999737e-05,-6.999999999999999387e-05,-2.200000000000000078e-04,1.199999999999999895e-04,-4.499999999999999877e-04,-2.600000000000000314e-04,6.000000000000000000e+00,1.100000000000000000e+01
3.109200000000000000e+04,-5.000000000000000240e-05,-5.000000000000000240e-05,-2.999999999999999737e-05,-6.999999999999999387e-05,-2.200000000000000078e-04,1.199999999999999895e-04,-4.499999999999999877e-04,-2.600000000000000314e-04,6.000000000000000000e+00,1.100000000000000000e+01
3.109300000000000000e+04,-5.000000000000000240e-05,-5.000000000000000240e-05,-2.999999999999999737e-05,-6.999999999999999387e-05,-2.200000000000000078e-04,1.199999999999999895e-04,-4.499999999999999877e-04,-2.600000000000000314e-04,6.000000000000000000e+00,1.100000000000000000e+01
3.109400000000000000e+04,-5.000000000000000240e-05,-5.000000000000000240e-05,-2.999999999999999737e-05,-6.999999999999999387e-05,-2.200000000000000078e-04,1.199999999999999895e-04,-4.499999999999999877e-04,-2.600000000000000314e-04,6.000000000000000000e+00,1.100000000000000000e+01
3.109500000000000000e+04,-2.000000000000000164e-05,-8.000000000000000654e-05,2.999999999999999737e-05,5.999999999999999474e-05,2.100000000000000087e-04,-3.200000000000000262e-04,1.000000000000000048e-04,1.199999999999999895e-04,6.000000000000000000e+00,1.100000000000000000e+01
3.109600000000000000e+04,1.199999999999999895e-04,4.000000000000000327e-05,8.000000000000000654e-05,6.999999999999999387e-05,2.200000000000000078e-04,6.999999999999999387e-05,-1.899999999999999834e-04,-4.899999999999999842e-04,6.000000000000000000e+00,1.100000000000000000e+01
3.109700000000000000e+04,1.199999999999999895e-04,4.000000000000000327e-05,8.000000000000000654e-05,6.999999999999999387e-05,2.200000000000000078e-04,6.999999999999999387e-05,-1.899999999999999834e-04,-4.899999999999999842e-04,6.000000000000000000e+00,1.100000000000000000e+01
3.109800000000000000e+04,1.199999999999999895e-04,4.000000000000000327e-05,8.000000000000000654e-05,6.999999999999999387e-05,2.200000000000000078e-04,6.999999999999999387e-05,-1.899999999999999834e-04,-4.899999999999999842e-04,6.000000000000000000e+00,1.100000000000000000e+01
3.109900000000000000e+04,1.199999999999999895e-04,4.000000000000000327e-05,8.000000000000000654e-05,6.999999999999999387e-05,2.200000000000000078e-04,6.999999999999999387e-05,-1.899999999999999834e-04,-4.899999999999999842e-04,6.000000000000000000e+00,1.100000000000000000e+01
3.110000000000000000e+04,1.199999999999999895e-04,4.000000000000000327e-05,8.000000000000000654e-05,6.999999999999999387e-05,2.200000000000000078e-04,6.999999999999999387e-05,-1.899999999999999834e-04,-4.899999999999999842e-04,6.000000000000000000e+00,1.100000000000000000e+01
3.110100000000000000e+04,1.199999999999999895e-04,4.000000000000000327e-05,8.000000000000000654e-05,6.999999999999999387e-05,2.200000000000000078e-04,6.999999999999999387e-05,-1.899999999999999834e-04,-4.899999999999999842e-04,6.000000000000000000e+00,1.100000000000000000e+01
3.110200000000000000e+04,1.199999999999999895e-04,4.000000000000000327e-05,8.000000000000000654e-05,6.999999999999999387e-05,2.200000000000000078e-04,6.999999999999999387e-05,-1.899999999999999834e-04,-4.899999999999999842e-04,6.000000000000000000e+00,1.100000000000000000e+01
3.110300000000000000e+04,1.199999999999999895e-04,4.000000000000000327e-05,8.000000000000000654e-05,6.999999999999999387e-05,2.200000000000000078e-04,6.999999999999999387e-05,-1.899999999999999834e-04,-4.899999999999999842e-04,6.000000000000000000e+00,1.100000000000000000e+01
3.110400000000000000e+04,1.199999999999999895e-04,4.000000000000000327e-05,8.000000000000000654e-05,6.999999999999999387e-05,2.200000000000000078e-04,6.999999999999999387e-05,-1.899999999999999834e-04,-4.899999999999999842e-04,6.000000000000000000e+00,1.100000000000000000e+01
3.110500000000000000e+04,1.199999999999999895e-04,4.000000000000000327e-05,8.000000000000000654e-05,6.999999999999999387e-05,2.200000000000000078e-04,6.999999999999999387e-05,-1.899999999999999834e-04,-4.899999999999999842e-04,6.000000000000000000e+00,1.100000000000000000e+01
3.110600000000000000e+04,1.199999999999999895e-04,4.000000000000000327e-05,8.000000000000000654e-05,6.999999999999999387e-05,2.200000000000000078e-04,6.999999999999999387e-05,-1.899999999999999834e-04,-4.899999999999999842e-04,6.000000000000000000e+00,1.100000000000000000e+01
3.110700000000000000e+04,1.199999999999999895e-04,4.000000000000000327e-05,8.000000000000000654e-05,6.999999999999999387e-05,2.200000000000000078e-04,6.999999999999999387e-05,-1.899999999999999834e-04,-4.899999999999999842e-04,6.000000000000000000e+00,1.100000000000000000e+01
3.110800000000000000e+04,1.199999999999999895e-04,4.000000000000000327e-05,8.000000000000000654e-05,6.999999999999999387e-05,2.200000000000000078e-04,6.999999999999999387e-05,-1.899999999999999834e-04,-4.899999999999999842e-04,6.000000000000000000e+00,1.100000000000000000e+01
3.110900000000000000e+04,1.199999999999999895e-04,4.000000000000000327e-05,8.000000000000000654e-05,6.999999999999999387e-05,2.200000000000000078e-04,6.999999999999999387e-05,-1.899999999999999834e-04,-4.899999999999999842e-04,6.000000000000000000e+00,1.100000000000000000e+01
3.111000000000000000e+04,1.199999999999999895e-04,4.000000000000000327e-05,8.000000000000000654e-05,6.999999999999999387e-05,2.200000000000000078e-04,6.999999999999999387e-05,-1.899999999999999834e-04,-4.899999999999999842e-04,6.000000000000000000e+00,1.100000000000000000e+01
3.111100000000000000e+04,1.199999999999999895e-04,4.000000000000000327e-05,8.000000000000000654e-05,6.999999999999999387e-05,2.200000000000000078e-04,6.999999999999999387e-05,-1.899999999999999834e-04,-4.899999999999999842e-04,6.000000000000000000e+00,1.100000000000000000e+01
3.111200000000000000e+04,1.199999999999999895e-04,4.000000000000000327e-05,8.000000000000000654e-05,6.999999999999999387e-05,2.200000000000000078e-04,6.999999999999999387e-05,-1.899999999999999834e-04,-4.899999999999999842e-04,6.000000000000000000e+00,1.100000000000000000e+01
3.111300000000000000e+04,1.199999999999999895e-04,4.000000000000000327e-05,8.000000000000000654e-05,6.999999999999999387e-05,2.200000000000000078e-04,6.999999999999999387e-05,-1.899999999999999834e-04,-4.899999999999999842e-04,6.000000000000000000e+00,1.100000000000000000e+01
3.111400000000000000e+04,1.199999999999999895e-04,4.000000000000000327e-05,8.000000000000000654e-05,6.999999999999999387e-05,2.200000000000000078e-04,6.999999999999999387e-05,-1.899999999999999834e-04,-4.899999999999999842e-04,6.000000000000000000e+00,1.100000000000000000e+01
3.111500000000000000e+04,1.199999999999999895e-04,4.000000000000000327e-05,8.000000000000000654e-05,6.999999999999999387e-05,2.200000000000000078e-04,6.999999999999999387e-05,-1.899999999999999834e-04,-4.899999999999999842e-04,6.000000000000000000e+00,1.100000000000000000e+01
3.111600000000000000e+04,1.199999999999999895e-04,4.000000000000000327e-05,8.000000000000000654e-05,6.999999999999999387e-05,2.200000000000000078e-04,6.999999999999999387e-05,-1.899999999999999834e-04,-4.899999999999999842e-04,6.000000000000000000e+00,1.100000000000000000e+01
3.111700000000000000e+04,1.199999999999999895e-04,4.000000000000000327e-05,8.000000000000000654e-05,6.999999999999999387e-05,2.200000000000000078e-04,6.999999999999999387e-05,-1.899999999999999834e-04,-4.899999999999999842e-04,6.000000000000000000e+00,1.100000000000000000e+01
3.111800000000000000e+04,-2.200000000000000078e-04,1.000000000000000082e-05,-2.000000000000000164e-05,-2.600000000000000314e-04,6.999999999999999387e-05,4.799999999999999580e-04,-2.000000000000000096e-04,1.000000000000000048e-04,6.000000000000000000e+00,1.100000000000000000e+01
3.111900000000000000e+04,1.499999999999999869e-04,-5.999999999999999474e-05,-1.199999999999999895e-04,-1.000000000000000082e-05,-1.600000000000000131e-04,-5.900000000000000296e-04,2.200000000000000078e-04,1.300000000000000157e-04,6.000000000000000000e+00,1.100000000000000000e+01
3.112000000000000000e+04,1.499999999999999869e-04,-5.999999999999999474e-05,-1.199999999999999895e-04,-1.000000000000000082e-05,-1.600000000000000131e-04,-5.900000000000000296e-04,2.200000000000000078e-04,1.300000000000000157e-04,6.000000000000000000e+00,1.100000000000000000e+01
3.112100000000000000e+04,1.499999999999999869e-04,-5.999999999999999474e-05,-1.199999999999999895e-04,-1.000000000000000082e-05,-1.600000000000000131e-04,-5.900000000000000296e-04,2.200000000000000078e-04,1.300000000000000157e-04,6.000000000000000000e+00,1.100000000000000000e+01
3.112200000000000000e+04,1.499999999999999869e-04,-5.999999999999999474e-05,-1.199999999999999895e-04,-1.000000000000000082e-05,-1.600000000000000131e-04,-5.900000000000000296e-04,2.200000000000000078e-04,1.300000000000000157e-04,6.000000000000000000e+00,1.100000000000000000e+01
3.112300000000000000e+04,1.499999999999999869e-04,-5.999999999999999474e-05,-1.199999999999999895e-04,-1.000000000000000082e-05,-1.600000000000000131e-04,-5.900000000000000296e-04,2.200000000000000078e-04,1.300000000000000157e-04,6.000000000000000000e+00,1.100000000000000000e+01
3.112400000000000000e+04,1.499999999999999869e-04,-5.999999999999999474e-05,-1.199999999999999895e-04,-1.000000000000000082e-05,-1.600000000000000131e-04,-5.900000000000000296e-04,2.200000000000000078e-04,1.300000000000000157e-04,6.000000000000000000e+00,1.100000000000000000e+01
3.112500000000000000e+04,1.499999999999999869e-04,-5.999999999999999474e-05,-1.199999999999999895e-04,-1.000000000000000082e-05,-1.600000000000000131e-04,-5.900000000000000296e-04,2.200000000000000078e-04,1.300000000000000157e-04,6.000000000000000000e+00,1.100000000000000000e+01
3.112600000000000000e+04,1.499999999999999869e-04,-5.999999999999999474e-05,-1.199999999999999895e-04,-1.000000000000000082e-05,-1.600000000000000131e-04,-5.900000000000000296e-04,2.200000000000000078e-04,1.300000000000000157e-04,6.000000000000000000e+00,1.100000000000000000e+01
3.112700000000000000e+04,1.499999999999999869e-04,-5.999999999999999474e-05,-1.199999999999999895e-04,-1.000000000000000082e-05,-1.600000000000000131e-04,-5.900000000000000296e-04,2.200000000000000078e-04,1.300000000000000157e-04,6.000000000000000000e+00,1.100000000000000000e+01
3.112800000000000000e+04,1.499999999999999869e-04,-5.999999999999999474e-05,-1.199999999999999895e-04,-1.000000000000000082e-05,-1.600000000000000131e-04,-5.900000000000000296e-04,2.200000000000000078e-04,1.300000000000000157e-04,6.000000000000000000e+00,1.100000000000000000e+01
3.112900000000000000e+04,1.499999999999999869e-04,-5.999999999999999474e-05,-1.199999999999999895e-04,-1.000000000000000082e-05,-1.600000000000000131e-04,-5.900000000000000296e-04,2.200000000000000078e-04,1.300000000000000157e-04,6.000000000000000000e+00,1.100000000000000000e+01
3.113000000000000000e+04,1.499999999999999869e-04,-5.999999999999999474e-05,-1.199999999999999895e-04,-1.000000000000000082e-05,-1.600000000000000131e-04,-5.900000000000000296e-04,2.200000000000000078e-04,1.300000000000000157e-04,6.000000000000000000e+00,1.100000000000000000e+01
3.113100000000000000e+04,1.499999999999999869e-04,-5.999999999999999474e-05,-1.199999999999999895e-04,-1.000000000000000082e-05,-1.600000000000000131e-04,-5.900000000000000296e-04,2.200000000000000078e-04,1.300000000000000157e-04,6.000000000000000000e+00,1.100000000000000000e+01
3.113200000000000000e+04,1.499999999999999869e-04,-5.999999999999999474e-05,-1.199999999999999895e-04,-1.000000000000000082e-05,-1.600000000000000131e-04,-5.900000000000000296e-04,2.200000000000000078e-04,1.300000000000000157e-04,6.000000000000000000e+00,1.100000000000000000e+01
3.113300000000000000e+04,1.499999999999999869e-04,-5.999999999999999474e-05,-1.199999999999999895e-04,-1.000000000000000082e-05,-1.600000000000000131e-04,-5.900000000000000296e-04,2.200000000000000078e-04,1.300000000000000157e-04,6.000000000000000000e+00,1.100000000000000000e+01
3.113400000000000000e+04,1.499999999999999869e-04,-5.999999999999999474e-05,-1.199999999999999895e-04,-1.000000000000000082e-05,-1.600000000000000131e-04,-5.900000000000000296e-04,2.200000000000000078e-04,1.300000000000000157e-04,6.000000000000000000e+00,1.100000000000000000e+01
3.113500000000000000e+04,1.499999999999999869e-04,-5.999999999999999474e-05,-1.199999999999999895e-04,-1.000000000000000082e-05,-1.600000000000000131e-04,-5.900000000000000296e-04,2.200000000000000078e-04,1.300000000000000157e-04,6.000000000000000000e+00,1.100000000000000000e+01
3.113700000000000000e+04,1.499999999999999869e-04,-5.999999999999999474e-05,-1.199999999999999895e-04,-1.000000000000000082e-05,-1.600000000000000131e-04,-5.900000000000000296e-04,2.200000000000000078e-04,1.300000000000000157e-04,6.000000000000000000e+00,1.100000000000000000e+01
3.113900000000000000e+04,1.499999999999999869e-04,-5.999999999999999474e-05,-1.199999999999999895e-04,-1.000000000000000082e-05,-1.600000000000000131e-04,-5.900000000000000296e-04,2.200000000000000078e-04,1.300000000000000157e-04,6.000000000000000000e+00,1.100000000000000000e+01
3.114000000000000000e+04,1.499999999999999869e-04,-5.999999999999999474e-05,-1.199999999999999895e-04,-1.000000000000000082e-05,-1.600000000000000131e-04,-5.900000000000000296e-04,2.200000000000000078e-04,1.300000000000000157e-04,6.000000000000000000e+00,1.100000000000000000e+01
3.114100000000000000e+04,-1.800000000000000113e-04,-4.000000000000000327e-05,-4.000000000000000327e-05,-5.999999999999999474e-05,-6.599999999999999964e-04,2.500000000000000052e-04,-1.800000000000000113e-04,-2.000000000000000096e-04,6.000000000000000000e+00,1.100000000000000000e+01
3.114200000000000000e+04,-3.200000000000000262e-04,5.999999999999999474e-05,-5.000000000000000240e-05,-1.000000000000000082e-05,9.499999999999999981e-04,4.200000000000000174e-04,2.000000000000000096e-04,-6.999999999999999387e-05,6.000000000000000000e+00,1.100000000000000000e+01
3.114300000000000000e+04,-3.200000000000000262e-04,5.999999999999999474e-05,-5.000000000000000240e-05,-1.000000000000000082e-05,9.499999999999999981e-04,4.200000000000000174e-04,2.000000000000000096e-04,-6.999999999999999387e-05,6.000000000000000000e+00,1.100000000000000000e+01
3.114400000000000000e+04,-3.200000000000000262e-04,5.999999999999999474e-05,-5.000000000000000240e-05,-1.000000000000000082e-05,9.499999999999999981e-04,4.200000000000000174e-04,2.000000000000000096e-04,-6.999999999999999387e-05,6.000000000000000000e+00,1.100000000000000000e+01
3.114500000000000000e+04,-3.200000000000000262e-04,5.999999999999999474e-05,-5.000000000000000240e-05,-1.000000000000000082e-05,9.499999999999999981e-04,4.200000000000000174e-04,2.000000000000000096e-04,-6.999999999999999387e-05,6.000000000000000000e+00,1.100000000000000000e+01
3.114600000000000000e+04,-3.200000000000000262e-04,5.999999999999999474e-05,-5.000000000000000240e-05,-1.000000000000000082e-05,9.499999999999999981e-04,4.200000000000000174e-04,2.000000000000000096e-04,-6.999999999999999387e-05,6.000000000000000000e+00,1.100000000000000000e+01
3.114700000000000000e+04,-3.200000000000000262e-04,5.999999999999999474e-05,-5.000000000000000240e-05,-1.000000000000000082e-05,9.499999999999999981e-04,4.200000000000000174e-04,2.000000000000000096e-04,-6.999999999999999387e-05,6.000000000000000000e+00,1.100000000000000000e+01
3.114800000000000000e+04,-3.200000000000000262e-04,5.999999999999999474e-05,-5.000000000000000240e-05,-1.000000000000000082e-05,9.499999999999999981e-04,4.200000000000000174e-04,2.000000000000000096e-04,-6.999999999999999387e-05,6.000000000000000000e+00,1.100000000000000000e+01
3.114900000000000000e+04,-3.200000000000000262e-04,5.999999999999999474e-05,-5.000000000000000240e-05,-1.000000000000000082e-05,9.499999999999999981e-04,4.200000000000000174e-04,2.000000000000000096e-04,-6.999999999999999387e-05,6.000000000000000000e+00,1.100000000000000000e+01
3.115000000000000000e+04,-3.200000000000000262e-04,5.999999999999999474e-05,-5.000000000000000240e-05,-1.000000000000000082e-05,9.499999999999999981e-04,4.200000000000000174e-04,2.000000000000000096e-04,-6.999999999999999387e-05,6.000000000000000000e+00,1.100000000000000000e+01
3.115100000000000000e+04,-3.200000000000000262e-04,5.999999999999999474e-05,-5.000000000000000240e-05,-1.000000000000000082e-05,9.499999999999999981e-04,4.200000000000000174e-04,2.000000000000000096e-04,-6.999999999999999387e-05,6.000000000000000000e+00,1.100000000000000000e+01
3.115200000000000000e+04,-3.200000000000000262e-04,5.999999999999999474e-05,-5.000000000000000240e-05,-1.000000000000000082e-05,9.499999999999999981e-04,4.200000000000000174e-04,2.000000000000000096e-04,-6.999999999999999387e-05,6.000000000000000000e+00,1.100000000000000000e+01
3.115300000000000000e+04,-3.200000000000000262e-04,5.999999999999999474e-05,-5.000000000000000240e-05,-1.000000000000000082e-05,9.499999999999999981e-04,4.200000000000000174e-04,2.000000000000000096e-04,-6.999999999999999387e-05,6.000000000000000000e+00,1.100000000000000000e+01
3.115400000000000000e+04,-3.200000000000000262e-04,5.999999999999999474e-05,-5.000000000000000240e-05,-1.000000000000000082e-05,9.499999999999999981e-04,4.200000000000000174e-04,2.000000000000000096e-04,-6.999999999999999387e-05,6.000000000000000000e+00,1.100000000000000000e+01
3.115500000000000000e+04,3.099999999999999999e-04,-1.199999999999999895e-04,0.000000000000000000e+00,1.600000000000000131e-04,8.699999999999998967e-04,-2.999999999999999737e-05,4.099999999999999912e-04,-3.200000000000000262e-04,6.000000000000000000e+00,1.100000000000000000e+01
3.115600000000000000e+04,-1.499999999999999869e-04,-2.999999999999999737e-04,-1.899999999999999834e-04,-1.199999999999999895e-04,-6.999999999999999387e-05,2.500000000000000052e-04,5.400000000000000069e-04,3.299999999999999982e-04,6.000000000000000000e+00,1.100000000000000000e+01
3.115700000000000000e+04,-1.499999999999999869e-04,-2.999999999999999737e-04,-1.899999999999999834e-04,-1.199999999999999895e-04,-6.999999999999999387e-05,2.500000000000000052e-04,5.400000000000000069e-04,3.299999999999999982e-04,6.000000000000000000e+00,1.100000000000000000e+01
3.115800000000000000e+04,-1.499999999999999869e-04,-2.999999999999999737e-04,-1.899999999999999834e-04,-1.199999999999999895e-04,-6.999999999999999387e-05,2.500000000000000052e-04,5.400000000000000069e-04,3.299999999999999982e-04,6.000000000000000000e+00,1.100000000000000000e+01
3.115900000000000000e+04,-1.499999999999999869e-04,-2.999999999999999737e-04,-1.899999999999999834e-04,-1.199999999999999895e-04,-6.999999999999999387e-05,2.500000000000000052e-04,5.400000000000000069e-04,3.299999999999999982e-04,6.000000000000000000e+00,1.100000000000000000e+01
3.116000000000000000e+04,-1.499999999999999869e-04,-2.999999999999999737e-04,-1.899999999999999834e-04,-1.199999999999999895e-04,-6.999999999999999387e-05,2.500000000000000052e-04,5.400000000000000069e-04,3.299999999999999982e-04,6.000000000000000000e+00,1.100000000000000000e+01
3.116100000000000000e+04,-1.499999999999999869e-04,-2.999999999999999737e-04,-1.899999999999999834e-04,-1.199999999999999895e-04,-6.999999999999999387e-05,2.500000000000000052e-04,5.400000000000000069e-04,3.299999999999999982e-04,6.000000000000000000e+00,1.100000000000000000e+01
3.116200000000000000e+04,-1.499999999999999869e-04,-2.999999999999999737e-04,-1.899999999999999834e-04,-1.199999999999999895e-04,-6.999999999999999387e-05,2.500000000000000052e-04,5.400000000000000069e-04,3.299999999999999982e-04,6.000000000000000000e+00,1.100000000000000000e+01
3.116300000000000000e+04,-1.499999999999999869e-04,-2.999999999999999737e-04,-1.899999999999999834e-04,-1.199999999999999895e-04,-6.999999999999999387e-05,2.500000000000000052e-04,5.400000000000000069e-04,3.299999999999999982e-04,6.000000000000000000e+00,1.100000000000000000e+01
3.116400000000000000e+04,-1.499999999999999869e-04,-2.999999999999999737e-04,-1.899999999999999834e-04,-1.199999999999999895e-04,-6.999999999999999387e-05,2.500000000000000052e-04,5.400000000000000069e-04,3.299999999999999982e-04,6.000000000000000000e+00,1.100000000000000000e+01
3.116500000000000000e+04,-1.499999999999999869e-04,-2.999999999999999737e-04,-1.899999999999999834e-04,-1.199999999999999895e-04,-6.999999999999999387e-05,2.500000000000000052e-04,5.400000000000000069e-04,3.299999999999999982e-04,6.000000000000000000e+00,1.100000000000000000e+01
3.116600000000000000e+04,-1.499999999999999869e-04,-2.999999999999999737e-04,-1.899999999999999834e-04,-1.199999999999999895e-04,-6.999999999999999387e-05,2.500000000000000052e-04,5.400000000000000069e-04,3.299999999999999982e-04,6.000000000000000000e+00,1.100000000000000000e+01
3.116700000000000000e+04,-1.499999999999999869e-04,-2.999999999999999737e-04,-1.899999999999999834e-04,-1.199999999999999895e-04,-6.999999999999999387e-05,2.500000000000000052e-04,5.400000000000000069e-04,3.299999999999999982e-04,6.000000000000000000e+00,1.100000000000000000e+01
3.116800000000000000e+04,-1.499999999999999869e-04,-2.999999999999999737e-04,-1.899999999999999834e-04,-1.199999999999999895e-04,-6.999999999999999387e-05,2.500000000000000052e-04,5.400000000000000069e-04,3.299999999999999982e-04,6.000000000000000000e+00,1.100000000000000000e+01
3.116900000000000000e+04,-1.499999999999999869e-04,-2.999999999999999737e-04,-1.899999999999999834e-04,-1.199999999999999895e-04,-6.999999999999999387e-05,2.500000000000000052e-04,5.400000000000000069e-04,3.299999999999999982e-04,6.000000000000000000e+00,1.100000000000000000e+01
3.117000000000000000e+04,-1.499999999999999869e-04,-2.999999999999999737e-04,-1.899999999999999834e-04,-1.199999999999999895e-04,-6.999999999999999387e-05,2.500000000000000052e-04,5.400000000000000069e-04,3.299999999999999982e-04,6.000000000000000000e+00,1.100000000000000000e+01
3.117100000000000000e+04,-1.499999999999999869e-04,-2.999999999999999737e-04,-1.899999999999999834e-04,-1.199999999999999895e-04,-6.999999999999999387e-05,2.500000000000000052e-04,5.400000000000000069e-04,3.299999999999999982e-04,6.000000000000000000e+00,1.100000000000000000e+01
3.117200000000000000e+04,-1.499999999999999869e-04,-2.999999999999999737e-04,-1.899999999999999834e-04,-1.199999999999999895e-04,-6.999999999999999387e-05,2.500000000000000052e-04,5.400000000000000069e-04,3.299999999999999982e-04,6.000000000000000000e+00,1.100000000000000000e+01
3.117300000000000000e+04,-1.499999999999999869e-04,-2.999999999999999737e-04,-1.899999999999999834e-04,-1.199999999999999895e-04,-6.999999999999999387e-05,2.500000000000000052e-04,5.400000000000000069e-04,3.299999999999999982e-04,6.000000000000000000e+00,1.100000000000000000e+01
3.117400000000000000e+04,-1.499999999999999869e-04,-2.999999999999999737e-04,-1.899999999999999834e-04,-1.199999999999999895e-04,-6.999999999999999387e-05,2.500000000000000052e-04,5.400000000000000069e-04,3.299999999999999982e-04,6.000000000000000000e+00,1.100000000000000000e+01
3.117500000000000000e+04,-1.499999999999999869e-04,-2.999999999999999737e-04,-1.899999999999999834e-04,-1.199999999999999895e-04,-6.999999999999999387e-05,2.500000000000000052e-04,5.400000000000000069e-04,3.299999999999999982e-04,6.000000000000000000e+00,1.100000000000000000e+01
3.117600000000000000e+04,-1.499999999999999869e-04,-2.999999999999999737e-04,-1.899999999999999834e-04,-1.199999999999999895e-04,-6.999999999999999387e-05,2.500000000000000052e-04,5.400000000000000069e-04,3.299999999999999982e-04,6.000000000000000000e+00,1.100000000000000000e+01
3.117700000000000000e+04,-1.499999999999999869e-04,-2.999999999999999737e-04,-1.899999999999999834e-04,-1.199999999999999895e-04,-6.999999999999999387e-05,2.500000000000000052e-04,5.400000000000000069e-04,3.299999999999999982e-04,6.000000000000000000e+00,1.100000000000000000e+01
3.117800000000000000e+04,-3.399999999999999702e-04,0.000000000000000000e+00,-5.999999999999999474e-05,3.099999999999999999e-04,1.399999999999999877e-04,2.000000000000000096e-04,-1.100000000000000039e-04,-8.000000000000000654e-05,6.000000000000000000e+00,1.100000000000000000e+01
3.117900000000000000e+04,1.600000000000000131e-04,-1.600000000000000131e-04,1.899999999999999834e-04,-2.000000000000000164e-05,6.999999999999999387e-05,-5.000000000000000104e-04,2.000000000000000164e-05,9.000000000000000567e-05,6.000000000000000000e+00,1.100000000000000000e+01
3.118000000000000000e+04,1.600000000000000131e-04,-1.600000000000000131e-04,1.899999999999999834e-04,-2.000000000000000164e-05,6.999999999999999387e-05,-5.000000000000000104e-04,2.000000000000000164e-05,9.000000000000000567e-05,6.000000000000000000e+00,1.100000000000000000e+01
3.118100000000000000e+04,1.600000000000000131e-04,-1.600000000000000131e-04,1.899999999999999834e-04,-2.000000000000000164e-05,6.999999999999999387e-05,-5.000000000000000104e-04,2.000000000000000164e-05,9.000000000000000567e-05,6.000000000000000000e+00,1.100000000000000000e+01
3.118200000000000000e+04,1.600000000000000131e-04,-1.600000000000000131e-04,1.899999999999999834e-04,-2.000000000000000164e-05,6.999999999999999387e-05,-5.000000000000000104e-04,2.000000000000000164e-05,9.000000000000000567e-05,6.000000000000000000e+00,1.100000000000000000e+01
3.118300000000000000e+04,1.600000000000000131e-04,-1.600000000000000131e-04,1.899999999999999834e-04,-2.000000000000000164e-05,6.999999999999999387e-05,-5.000000000000000104e-04,2.000000000000000164e-05,9.000000000000000567e-05,6.000000000000000000e+00,1.100000000000000000e+01
3.118400000000000000e+04,1.600000000000000131e-04,-1.600000000000000131e-04,1.899999999999999834e-04,-2.000000000000000164e-05,6.999999999999999387e-05,-5.000000000000000104e-04,2.000000000000000164e-05,9.000000000000000567e-05,6.000000000000000000e+00,1.100000000000000000e+01
3.118500000000000000e+04,1.600000000000000131e-04,-1.600000000000000131e-04,1.899999999999999834e-04,-2.000000000000000164e-05,6.999999999999999387e-05,-5.000000000000000104e-04,2.000000000000000164e-05,9.000000000000000567e-05,6.000000000000000000e+00,1.100000000000000000e+01
3.118700000000000000e+04,1.600000000000000131e-04,-1.600000000000000131e-04,1.899999999999999834e-04,-2.000000000000000164e-05,6.999999999999999387e-05,-5.000000000000000104e-04,2.000000000000000164e-05,9.000000000000000567e-05,6.000000000000000000e+00,1.100000000000000000e+01
3.118900000000000000e+04,1.600000000000000131e-04,-1.600000000000000131e-04,1.899999999999999834e-04,-2.000000000000000164e-05,6.999999999999999387e-05,-5.000000000000000104e-04,2.000000000000000164e-05,9.000000000000000567e-05,6.000000000000000000e+00,1.100000000000000000e+01
3.119000000000000000e+04,1.600000000000000131e-04,-1.600000000000000131e-04,1.899999999999999834e-04,-2.000000000000000164e-05,6.999999999999999387e-05,-5.000000000000000104e-04,2.000000000000000164e-05,9.000000000000000567e-05,6.000000000000000000e+00,1.100000000000000000e+01
3.119100000000000000e+04,1.600000000000000131e-04,-1.600000000000000131e-04,1.899999999999999834e-04,-2.000000000000000164e-05,6.999999999999999387e-05,-5.000000000000000104e-04,2.000000000000000164e-05,9.000000000000000567e-05,6.000000000000000000e+00,1.100000000000000000e+01
3.119200000000000000e+04,1.600000000000000131e-04,-1.600000000000000131e-04,1.899999999999999834e-04,-2.000000000000000164e-05,6.999999999999999387e-05,-5.000000000000000104e-04,2.000000000000000164e-05,9.000000000000000567e-05,6.000000000000000000e+00,1.100000000000000000e+01
3.119300000000000000e+04,1.600000000000000131e-04,-1.600000000000000131e-04,1.899999999999999834e-04,-2.000000000000000164e-05,6.999999999999999387e-05,-5.000000000000000104e-04,2.000000000000000164e-05,9.000000000000000567e-05,6.000000000000000000e+00,1.100000000000000000e+01
3.119400000000000000e+04,1.600000000000000131e-04,-1.600000000000000131e-04,1.899999999999999834e-04,-2.000000000000000164e-05,6.999999999999999387e-05,-5.000000000000000104e-04,2.000000000000000164e-05,9.000000000000000567e-05,6.000000000000000000e+00,1.100000000000000000e+01
3.119500000000000000e+04,1.600000000000000131e-04,-1.600000000000000131e-04,1.899999999999999834e-04,-2.000000000000000164e-05,6.999999999999999387e-05,-5.000000000000000104e-04,2.000000000000000164e-05,9.000000000000000567e-05,6.000000000000000000e+00,1.100000000000000000e+01
3.119600000000000000e+04,1.600000000000000131e-04,-1.600000000000000131e-04,1.899999999999999834e-04,-2.000000000000000164e-05,6.999999999999999387e-05,-5.000000000000000104e-04,2.000000000000000164e-05,9.000000000000000567e-05,6.000000000000000000e+00,1.100000000000000000e+01
3.119700000000000000e+04,1.600000000000000131e-04,-1.600000000000000131e-04,1.899999999999999834e-04,-2.000000000000000164e-05,6.999999999999999387e-05,-5.000000000000000104e-04,2.000000000000000164e-05,9.000000000000000567e-05,6.000000000000000000e+00,1.100000000000000000e+01
3.119800000000000000e+04,1.600000000000000131e-04,-1.600000000000000131e-04,1.899999999999999834e-04,-2.000000000000000164e-05,6.999999999999999387e-05,-5.000000000000000104e-04,2.000000000000000164e-05,9.000000000000000567e-05,6.000000000000000000e+00,1.100000000000000000e+01
3.119900000000000000e+04,1.600000000000000131e-04,-1.600000000000000131e-04,1.899999999999999834e-04,-2.000000000000000164e-05,6.999999999999999387e-05,-5.000000000000000104e-04,2.000000000000000164e-05,9.000000000000000567e-05,6.000000000000000000e+00,1.100000000000000000e+01
3.120000000000000000e+04,1.600000000000000131e-04,-1.600000000000000131e-04,1.899999999999999834e-04,-2.000000000000000164e-05,6.999999999999999387e-05,-5.000000000000000104e-04,2.000000000000000164e-05,9.000000000000000567e-05,6.000000000000000000e+00,1.100000000000000000e+01
3.120100000000000000e+04,-2.000000000000000096e-04,6.999999999999999387e-05,-1.000000000000000048e-04,-1.600000000000000131e-04,-5.000000000000000104e-04,5.999999999999999474e-05,2.100000000000000087e-04,1.199999999999999895e-04,6.000000000000000000e+00,1.100000000000000000e+01
3.120200000000000000e+04,-2.000000000000000096e-04,6.999999999999999387e-05,-1.000000000000000048e-04,-1.600000000000000131e-04,-5.000000000000000104e-04,5.999999999999999474e-05,2.100000000000000087e-04,1.199999999999999895e-04,6.000000000000000000e+00,1.100000000000000000e+01
3.120300000000000000e+04,-2.000000000000000096e-04,6.999999999999999387e-05,-1.000000000000000048e-04,-1.600000000000000131e-04,-5.000000000000000104e-04,5.999999999999999474e-05,2.100000000000000087e-04,1.199999999999999895e-04,6.000000000000000000e+00,1.100000000000000000e+01
3.120400000000000000e+04,-2.000000000000000096e-04,6.999999999999999387e-05,-1.000000000000000048e-04,-1.600000000000000131e-04,-5.000000000000000104e-04,5.999999999999999474e-05,2.100000000000000087e-04,1.199999999999999895e-04,6.000000000000000000e+00,1.100000000000000000e+01
3.120500000000000000e+04,-2.000000000000000096e-04,6.999999999999999387e-05,-1.000000000000000048e-04,-1.600000000000000131e-04,-5.000000000000000104e-04,5.999999999999999474e-05,2.100000000000000087e-04,1.199999999999999895e-04,6.000000000000000000e+00,1.100000000000000000e+01
3.120600000000000000e+04,-2.000000000000000096e-04,6.999999999999999387e-05,-1.000000000000000048e-04,-1.600000000000000131e-04,-5.000000000000000104e-04,5.999999999999999474e-05,2.100000000000000087e-04,1.199999999999999895e-04,6.000000000000000000e+00,1.100000000000000000e+01
3.120700000000000000e+04,-2.000000000000000096e-04,6.999999999999999387e-05,-1.000000000000000048e-04,-1.600000000000000131e-04,-5.000000000000000104e-04,5.999999999999999474e-05,2.100000000000000087e-04,1.199999999999999895e-04,6.000000000000000000e+00,1.100000000000000000e+01
3.120800000000000000e+04,-2.000000000000000096e-04,6.999999999999999387e-05,-1.000000000000000048e-04,-1.600000000000000131e-04,-5.000000000000000104e-04,5.999999999999999474e-05,2.100000000000000087e-04,1.199999999999999895e-04,6.000000000000000000e+00,1.100000000000000000e+01
3.120900000000000000e+04,-2.000000000000000096e-04,6.999999999999999387e-05,-1.000000000000000048e-04,-1.600000000000000131e-04,-5.000000000000000104e-04,5.999999999999999474e-05,2.100000000000000087e-04,1.199999999999999895e-04,6.000000000000000000e+00,1.100000000000000000e+01
3.121000000000000000e+04,-2.000000000000000096e-04,6.999999999999999387e-05,-1.000000000000000048e-04,-1.600000000000000131e-04,-5.000000000000000104e-04,5.999999999999999474e-05,2.100000000000000087e-04,1.199999999999999895e-04,6.000000000000000000e+00,1.100000000000000000e+01
3.121100000000000000e+04,-2.000000000000000096e-04,6.999999999999999387e-05,-1.000000000000000048e-04,-1.600000000000000131e-04,-5.000000000000000104e-04,5.999999999999999474e-05,2.100000000000000087e-04,1.199999999999999895e-04,6.000000000000000000e+00,1.100000000000000000e+01
3.121200000000000000e+04,-2.000000000000000096e-04,6.999999999999999387e-05,-1.000000000000000048e-04,-1.600000000000000131e-04,-5.000000000000000104e-04,5.999999999999999474e-05,2.100000000000000087e-04,1.199999999999999895e-04,6.000000000000000000e+00,1.100000000000000000e+01
3.121300000000000000e+04,-2.000000000000000096e-04,6.999999999999999387e-05,-1.000000000000000048e-04,-1.600000000000000131e-04,-5.000000000000000104e-04,5.999999999999999474e-05,2.100000000000000087e-04,1.199999999999999895e-04,6.000000000000000000e+00,1.100000000000000000e+01
3.121400000000000000e+04,-2.000000000000000096e-04,6.999999999999999387e-05,-1.000000000000000048e-04,-1.600000000000000131e-04,-5.000000000000000104e-04,5.999999999999999474e-05,2.100000000000000087e-04,1.199999999999999895e-04,6.000000000000000000e+00,1.100000000000000000e+01
3.121500000000000000e+04,-3.699999999999999947e-04,-2.999999999999999737e-05,-5.000000000000000240e-05,-1.899999999999999834e-04,-1.199999999999999895e-03,-5.599999999999999509e-04,-7.099999999999999107e-04,-2.900000000000000017e-04,6.000000000000000000e+00,1.100000000000000000e+01
3.121600000000000000e+04,1.000000000000000048e-04,5.000000000000000240e-05,1.000000000000000082e-05,1.000000000000000082e-05,5.900000000000000296e-04,2.600000000000000314e-04,-1.000000000000000082e-05,1.000000000000000048e-04,6.000000000000000000e+00,1.100000000000000000e+01
3.121700000000000000e+04,1.000000000000000048e-04,5.000000000000000240e-05,1.000000000000000082e-05,1.000000000000000082e-05,5.900000000000000296e-04,2.600000000000000314e-04,-1.000000000000000082e-05,1.000000000000000048e-04,6.000000000000000000e+00,1.100000000000000000e+01
3.121800000000000000e+04,1.000000000000000048e-04,5.000000000000000240e-05,1.000000000000000082e-05,1.000000000000000082e-05,5.900000000000000296e-04,2.600000000000000314e-04,-1.000000000000000082e-05,1.000000000000000048e-04,6.000000000000000000e+00,1.100000000000000000e+01
3.121900000000000000e+04,1.000000000000000048e-04,5.000000000000000240e-05,1.000000000000000082e-05,1.000000000000000082e-05,5.900000000000000296e-04,2.600000000000000314e-04,-1.000000000000000082e-05,1.000000000000000048e-04,6.000000000000000000e+00,1.100000000000000000e+01
3.122000000000000000e+04,1.000000000000000048e-04,5.000000000000000240e-05,1.000000000000000082e-05,1.000000000000000082e-05,5.900000000000000296e-04,2.600000000000000314e-04,-1.000000000000000082e-05,1.000000000000000048e-04,6.000000000000000000e+00,1.100000000000000000e+01
3.122100000000000000e+04,1.000000000000000048e-04,5.000000000000000240e-05,1.000000000000000082e-05,1.000000000000000082e-05,5.900000000000000296e-04,2.600000000000000314e-04,-1.000000000000000082e-05,1.000000000000000048e-04,6.000000000000000000e+00,1.100000000000000000e+01
3.122200000000000000e+04,1.000000000000000048e-04,5.000000000000000240e-05,1.000000000000000082e-05,1.000000000000000082e-05,5.900000000000000296e-04,2.600000000000000314e-04,-1.000000000000000082e-05,1.000000000000000048e-04,6.000000000000000000e+00,1.100000000000000000e+01
3.122300000000000000e+04,1.000000000000000048e-04,5.000000000000000240e-05,1.000000000000000082e-05,1.000000000000000082e-05,5.900000000000000296e-04,2.600000000000000314e-04,-1.000000000000000082e-05,1.000000000000000048e-04,6.000000000000000000e+00,1.100000000000000000e+01
3.122400000000000000e+04,1.000000000000000048e-04,5.000000000000000240e-05,1.000000000000000082e-05,1.000000000000000082e-05,5.900000000000000296e-04,2.600000000000000314e-04,-1.000000000000000082e-05,1.000000000000000048e-04,6.000000000000000000e+00,1.100000000000000000e+01
3.122500000000000000e+04,1.000000000000000048e-04,5.000000000000000240e-05,1.000000000000000082e-05,1.000000000000000082e-05,5.900000000000000296e-04,2.600000000000000314e-04,-1.000000000000000082e-05,1.000000000000000048e-04,6.000000000000000000e+00,1.100000000000000000e+01
3.122600000000000000e+04,1.000000000000000048e-04,5.000000000000000240e-05,1.000000000000000082e-05,1.000000000000000082e-05,5.900000000000000296e-04,2.600000000000000314e-04,-1.000000000000000082e-05,1.000000000000000048e-04,6.000000000000000000e+00,1.100000000000000000e+01
3.122700000000000000e+04,1.000000000000000048e-04,5.000000000000000240e-05,1.000000000000000082e-05,1.000000000000000082e-05,5.900000000000000296e-04,2.600000000000000314e-04,-1.000000000000000082e-05,1.000000000000000048e-04,6.000000000000000000e+00,1.100000000000000000e+01
3.122800000000000000e+04,1.000000000000000048e-04,5.000000000000000240e-05,1.000000000000000082e-05,1.000000000000000082e-05,5.900000000000000296e-04,2.600000000000000314e-04,-1.000000000000000082e-05,1.000000000000000048e-04,6.000000000000000000e+00,1.100000000000000000e+01
3.122900000000000000e+04,1.000000000000000048e-04,5.000000000000000240e-05,1.000000000000000082e-05,1.000000000000000082e-05,5.900000000000000296e-04,2.600000000000000314e-04,-1.000000000000000082e-05,1.000000000000000048e-04,6.000000000000000000e+00,1.100000000000000000e+01
3.123000000000000000e+04,1.000000000000000048e-04,5.000000000000000240e-05,1.000000000000000082e-05,1.000000000000000082e-05,5.900000000000000296e-04,2.600000000000000314e-04,-1.000000000000000082e-05,1.000000000000000048e-04,6.000000000000000000e+00,1.100000000000000000e+01
3.123100000000000000e+04,1.000000000000000048e-04,5.000000000000000240e-05,1.000000000000000082e-05,1.000000000000000082e-05,5.900000000000000296e-04,2.600000000000000314e-04,-1.000000000000000082e-05,1.000000000000000048e-04,6.000000000000000000e+00,1.100000000000000000e+01
3.123200000000000000e+04,1.000000000000000048e-04,5.000000000000000240e-05,1.000000000000000082e-05,1.000000000000000082e-05,5.900000000000000296e-04,2.600000000000000314e-04,-1.000000000000000082e-05,1.000000000000000048e-04,6.000000000000000000e+00,1.100000000000000000e+01
3.123300000000000000e+04,1.000000000000000048e-04,5.000000000000000240e-05,1.000000000000000082e-05,1.000000000000000082e-05,5.900000000000000296e-04,2.600000000000000314e-04,-1.000000000000000082e-05,1.000000000000000048e-04,6.000000000000000000e+00,1.100000000000000000e+01
3.123400000000000000e+04,1.000000000000000048e-04,5.000000000000000240e-05,1.000000000000000082e-05,1.000000000000000082e-05,5.900000000000000296e-04,2.600000000000000314e-04,-1.000000000000000082e-05,1.000000000000000048e-04,6.000000000000000000e+00,1.100000000000000000e+01
3.123500000000000000e+04,1.000000000000000048e-04,5.000000000000000240e-05,1.000000000000000082e-05,1.000000000000000082e-05,5.900000000000000296e-04,2.600000000000000314e-04,-1.000000000000000082e-05,1.000000000000000048e-04,6.000000000000000000e+00,1.100000000000000000e+01
3.123700000000000000e+04,1.000000000000000048e-04,5.000000000000000240e-05,1.000000000000000082e-05,1.000000000000000082e-05,5.900000000000000296e-04,2.600000000000000314e-04,-1.000000000000000082e-05,1.000000000000000048e-04,6.000000000000000000e+00,1.100000000000000000e+01
3.123900000000000000e+04,5.999999999999999474e-05,5.999999999999999474e-05,-1.399999999999999877e-04,-1.199999999999999895e-04,-5.400000000000000069e-04,2.299999999999999799e-04,-2.500000000000000052e-04,8.000000000000000654e-05,6.000000000000000000e+00,1.100000000000000000e+01
3.124000000000000000e+04,5.999999999999999474e-05,5.999999999999999474e-05,-1.399999999999999877e-04,-1.199999999999999895e-04,-5.400000000000000069e-04,2.299999999999999799e-04,-2.500000000000000052e-04,8.000000000000000654e-05,6.000000000000000000e+00,1.100000000000000000e+01
3.124100000000000000e+04,5.999999999999999474e-05,5.999999999999999474e-05,-1.399999999999999877e-04,-1.199999999999999895e-04,-5.400000000000000069e-04,2.299999999999999799e-04,-2.500000000000000052e-04,8.000000000000000654e-05,6.000000000000000000e+00,1.100000000000000000e+01
3.124200000000000000e+04,5.999999999999999474e-05,5.999999999999999474e-05,-1.399999999999999877e-04,-1.199999999999999895e-04,-5.400000000000000069e-04,2.299999999999999799e-04,-2.500000000000000052e-04,8.000000000000000654e-05,6.000000000000000000e+00,1.100000000000000000e+01
3.124300000000000000e+04,5.999999999999999474e-05,5.999999999999999474e-05,-1.399999999999999877e-04,-1.199999999999999895e-04,-5.400000000000000069e-04,2.299999999999999799e-04,-2.500000000000000052e-04,8.000000000000000654e-05,6.000000000000000000e+00,1.100000000000000000e+01
3.124400000000000000e+04,5.999999999999999474e-05,5.999999999999999474e-05,-1.399999999999999877e-04,-1.199999999999999895e-04,-5.400000000000000069e-04,2.299999999999999799e-04,-2.500000000000000052e-04,8.000000000000000654e-05,6.000000000000000000e+00,1.100000000000000000e+01
3.124500000000000000e+04,5.999999999999999474e-05,5.999999999999999474e-05,-1.399999999999999877e-04,-1.199999999999999895e-04,-5.400000000000000069e-04,2.299999999999999799e-04,-2.500000000000000052e-04,8.000000000000000654e-05,6.000000000000000000e+00,1.100000000000000000e+01
3.124600000000000000e+04,5.999999999999999474e-05,5.999999999999999474e-05,-1.399999999999999877e-04,-1.199999999999999895e-04,-5.400000000000000069e-04,2.299999999999999799e-04,-2.500000000000000052e-04,8.000000000000000654e-05,6.000000000000000000e+00,1.100000000000000000e+01
3.124700000000000000e+04,5.999999999999999474e-05,5.999999999999999474e-05,-1.399999999999999877e-04,-1.199999999999999895e-04,-5.400000000000000069e-04,2.299999999999999799e-04,-2.500000000000000052e-04,8.000000000000000654e-05,6.000000000000000000e+00,1.100000000000000000e+01
3.124800000000000000e+04,5.999999999999999474e-05,5.999999999999999474e-05,-1.399999999999999877e-04,-1.199999999999999895e-04,-5.400000000000000069e-04,2.299999999999999799e-04,-2.500000000000000052e-04,8.000000000000000654e-05,6.000000000000000000e+00,1.100000000000000000e+01
3.124900000000000000e+04,5.999999999999999474e-05,5.999999999999999474e-05,-1.399999999999999877e-04,-1.199999999999999895e-04,-5.400000000000000069e-04,2.299999999999999799e-04,-2.500000000000000052e-04,8.000000000000000654e-05,6.000000000000000000e+00,1.100000000000000000e+01
3.125000000000000000e+04,5.999999999999999474e-05,5.999999999999999474e-05,-1.399999999999999877e-04,-1.199999999999999895e-04,-5.400000000000000069e-04,2.299999999999999799e-04,-2.500000000000000052e-04,8.000000000000000654e-05,6.000000000000000000e+00,1.100000000000000000e+01
3.125100000000000000e+04,5.999999999999999474e-05,5.999999999999999474e-05,-1.399999999999999877e-04,-1.199999999999999895e-04,-5.400000000000000069e-04,2.299999999999999799e-04,-2.500000000000000052e-04,8.000000000000000654e-05,6.000000000000000000e+00,1.100000000000000000e+01
3.125200000000000000e+04,5.999999999999999474e-05,5.999999999999999474e-05,-1.399999999999999877e-04,-1.199999999999999895e-04,-5.400000000000000069e-04,2.299999999999999799e-04,-2.500000000000000052e-04,8.000000000000000654e-05,6.000000000000000000e+00,1.100000000000000000e+01
3.125300000000000000e+04,5.999999999999999474e-05,5.999999999999999474e-05,-1.399999999999999877e-04,-1.199999999999999895e-04,-5.400000000000000069e-04,2.299999999999999799e-04,-2.500000000000000052e-04,8.000000000000000654e-05,6.000000000000000000e+00,1.100000000000000000e+01
3.125400000000000000e+04,5.999999999999999474e-05,5.999999999999999474e-05,-1.399999999999999877e-04,-1.199999999999999895e-04,-5.400000000000000069e-04,2.299999999999999799e-04,-2.500000000000000052e-04,8.000000000000000654e-05,6.000000000000000000e+00,1.100000000000000000e+01
3.125500000000000000e+04,5.999999999999999474e-05,5.999999999999999474e-05,-1.399999999999999877e-04,-1.199999999999999895e-04,-5.400000000000000069e-04,2.299999999999999799e-04,-2.500000000000000052e-04,8.000000000000000654e-05,6.000000000000000000e+00,1.100000000000000000e+01
3.125600000000000000e+04,5.999999999999999474e-05,5.999999999999999474e-05,-1.399999999999999877e-04,-1.199999999999999895e-04,-5.400000000000000069e-04,2.299999999999999799e-04,-2.500000000000000052e-04,8.000000000000000654e-05,6.000000000000000000e+00,1.100000000000000000e+01
3.125700000000000000e+04,5.999999999999999474e-05,5.999999999999999474e-05,-1.399999999999999877e-04,-1.199999999999999895e-04,-5.400000000000000069e-04,2.299999999999999799e-04,-2.500000000000000052e-04,8.000000000000000654e-05,6.000000000000000000e+00,1.100000000000000000e+01
3.125800000000000000e+04,5.999999999999999474e-05,5.999999999999999474e-05,-1.399999999999999877e-04,-1.199999999999999895e-04,-5.400000000000000069e-04,2.299999999999999799e-04,-2.500000000000000052e-04,8.000000000000000654e-05,6.000000000000000000e+00,1.100000000000000000e+01
3.125900000000000000e+04,5.999999999999999474e-05,5.999999999999999474e-05,-1.399999999999999877e-04,-1.199999999999999895e-04,-5.400000000000000069e-04,2.299999999999999799e-04,-2.500000000000000052e-04,8.000000000000000654e-05,6.000000000000000000e+00,1.100000000000000000e+01
3.126000000000000000e+04,-5.999999999999999474e-05,5.999999999999999474e-05,2.999999999999999737e-05,-5.000000000000000240e-05,-2.799999999999999755e-04,1.000000000000000048e-04,3.600000000000000227e-04,2.999999999999999737e-05,6.000000000000000000e+00,1.100000000000000000e+01
3.126100000000000000e+04,6.300000000000000261e-04,1.600000000000000131e-04,1.199999999999999895e-04,2.299999999999999799e-04,-5.500000000000000331e-04,3.299999999999999982e-04,2.999999999999999737e-05,5.999999999999999474e-05,6.000000000000000000e+00,1.100000000000000000e+01
3.126200000000000000e+04,6.300000000000000261e-04,1.600000000000000131e-04,1.199999999999999895e-04,2.299999999999999799e-04,-5.500000000000000331e-04,3.299999999999999982e-04,2.999999999999999737e-05,5.999999999999999474e-05,6.000000000000000000e+00,1.100000000000000000e+01
3.126300000000000000e+04,6.300000000000000261e-04,1.600000000000000131e-04,1.199999999999999895e-04,2.299999999999999799e-04,-5.500000000000000331e-04,3.299999999999999982e-04,2.999999999999999737e-05,5.999999999999999474e-05,6.000000000000000000e+00,1.100000000000000000e+01
3.126400000000000000e+04,6.300000000000000261e-04,1.600000000000000131e-04,1.199999999999999895e-04,2.299999999999999799e-04,-5.500000000000000331e-04,3.299999999999999982e-04,2.999999999999999737e-05,5.999999999999999474e-05,6.000000000000000000e+00,1.100000000000000000e+01
3.126500000000000000e+04,6.300000000000000261e-04,1.600000000000000131e-04,1.199999999999999895e-04,2.299999999999999799e-04,-5.500000000000000331e-04,3.299999999999999982e-04,2.999999999999999737e-05,5.999999999999999474e-05,6.000000000000000000e+00,1.100000000000000000e+01
3.126600000000000000e+04,6.300000000000000261e-04,1.600000000000000131e-04,1.199999999999999895e-04,2.299999999999999799e-04,-5.500000000000000331e-04,3.299999999999999982e-04,2.999999999999999737e-05,5.999999999999999474e-05,6.000000000000000000e+00,1.100000000000000000e+01
3.126700000000000000e+04,6.300000000000000261e-04,1.600000000000000131e-04,1.199999999999999895e-04,2.299999999999999799e-04,-5.500000000000000331e-04,3.299999999999999982e-04,2.999999999999999737e-05,5.999999999999999474e-05,6.000000000000000000e+00,1.100000000000000000e+01
3.126800000000000000e+04,6.300000000000000261e-04,1.600000000000000131e-04,1.199999999999999895e-04,2.299999999999999799e-04,-5.500000000000000331e-04,3.299999999999999982e-04,2.999999999999999737e-05,5.999999999999999474e-05,6.000000000000000000e+00,1.100000000000000000e+01
3.126900000000000000e+04,6.300000000000000261e-04,1.600000000000000131e-04,1.199999999999999895e-04,2.299999999999999799e-04,-5.500000000000000331e-04,3.299999999999999982e-04,2.999999999999999737e-05,5.999999999999999474e-05,6.000000000000000000e+00,1.100000000000000000e+01
3.127000000000000000e+04,6.300000000000000261e-04,1.600000000000000131e-04,1.199999999999999895e-04,2.299999999999999799e-04,-5.500000000000000331e-04,3.299999999999999982e-04,2.999999999999999737e-05,5.999999999999999474e-05,6.000000000000000000e+00,1.100000000000000000e+01
3.127100000000000000e+04,6.300000000000000261e-04,1.600000000000000131e-04,1.199999999999999895e-04,2.299999999999999799e-04,-5.500000000000000331e-04,3.299999999999999982e-04,2.999999999999999737e-05,5.999999999999999474e-05,6.000000000000000000e+00,1.100000000000000000e+01
3.127200000000000000e+04,6.300000000000000261e-04,1.600000000000000131e-04,1.199999999999999895e-04,2.299999999999999799e-04,-5.500000000000000331e-04,3.299999999999999982e-04,2.999999999999999737e-05,5.999999999999999474e-05,6.000000000000000000e+00,1.100000000000000000e+01
3.127300000000000000e+04,6.300000000000000261e-04,1.600000000000000131e-04,1.199999999999999895e-04,2.299999999999999799e-04,-5.500000000000000331e-04,3.299999999999999982e-04,2.999999999999999737e-05,5.999999999999999474e-05,6.000000000000000000e+00,1.100000000000000000e+01
3.127400000000000000e+04,6.300000000000000261e-04,1.600000000000000131e-04,1.199999999999999895e-04,2.299999999999999799e-04,-5.500000000000000331e-04,3.299999999999999982e-04,2.999999999999999737e-05,5.999999999999999474e-05,6.000000000000000000e+00,1.100000000000000000e+01
3.127500000000000000e+04,-4.000000000000000192e-04,-5.000000000000000240e-05,-4.000000000000000327e-05,2.000000000000000164e-05,-3.099999999999999999e-04,-3.099999999999999999e-04,2.299999999999999799e-04,-1.399999999999999877e-04,6.000000000000000000e+00,1.100000000000000000e+01
3.127600000000000000e+04,3.600000000000000227e-04,8.000000000000000654e-05,-4.000000000000000327e-05,1.499999999999999869e-04,4.400000000000000157e-04,2.000000000000000096e-04,-6.999999999999999387e-05,2.900000000000000017e-04,6.000000000000000000e+00,1.100000000000000000e+01
3.127700000000000000e+04,3.600000000000000227e-04,8.000000000000000654e-05,-4.000000000000000327e-05,1.499999999999999869e-04,4.400000000000000157e-04,2.000000000000000096e-04,-6.999999999999999387e-05,2.900000000000000017e-04,6.000000000000000000e+00,1.100000000000000000e+01
3.127800000000000000e+04,3.600000000000000227e-04,8.000000000000000654e-05,-4.000000000000000327e-05,1.499999999999999869e-04,4.400000000000000157e-04,2.000000000000000096e-04,-6.999999999999999387e-05,2.900000000000000017e-04,6.000000000000000000e+00,1.100000000000000000e+01
3.127900000000000000e+04,3.600000000000000227e-04,8.000000000000000654e-05,-4.000000000000000327e-05,1.499999999999999869e-04,4.400000000000000157e-04,2.000000000000000096e-04,-6.999999999999999387e-05,2.900000000000000017e-04,6.000000000000000000e+00,1.100000000000000000e+01
3.128000000000000000e+04,3.600000000000000227e-04,8.000000000000000654e-05,-4.000000000000000327e-05,1.499999999999999869e-04,4.400000000000000157e-04,2.000000000000000096e-04,-6.999999999999999387e-05,2.900000000000000017e-04,6.000000000000000000e+00,1.100000000000000000e+01
3.128100000000000000e+04,3.600000000000000227e-04,8.000000000000000654e-05,-4.000000000000000327e-05,1.499999999999999869e-04,4.400000000000000157e-04,2.000000000000000096e-04,-6.999999999999999387e-05,2.900000000000000017e-04,6.000000000000000000e+00,1.100000000000000000e+01
3.128200000000000000e+04,3.600000000000000227e-04,8.000000000000000654e-05,-4.000000000000000327e-05,1.499999999999999869e-04,4.400000000000000157e-04,2.000000000000000096e-04,-6.999999999999999387e-05,2.900000000000000017e-04,6.000000000000000000e+00,1.100000000000000000e+01
3.128300000000000000e+04,3.600000000000000227e-04,8.000000000000000654e-05,-4.000000000000000327e-05,1.499999999999999869e-04,4.400000000000000157e-04,2.000000000000000096e-04,-6.999999999999999387e-05,2.900000000000000017e-04,6.000000000000000000e+00,1.100000000000000000e+01
3.128400000000000000e+04,3.600000000000000227e-04,8.000000000000000654e-05,-4.000000000000000327e-05,1.499999999999999869e-04,4.400000000000000157e-04,2.000000000000000096e-04,-6.999999999999999387e-05,2.900000000000000017e-04,6.000000000000000000e+00,1.100000000000000000e+01
3.128500000000000000e+04,3.600000000000000227e-04,8.000000000000000654e-05,-4.000000000000000327e-05,1.499999999999999869e-04,4.400000000000000157e-04,2.000000000000000096e-04,-6.999999999999999387e-05,2.900000000000000017e-04,6.000000000000000000e+00,1.100000000000000000e+01
3.128700000000000000e+04,3.600000000000000227e-04,8.000000000000000654e-05,-4.000000000000000327e-05,1.499999999999999869e-04,4.400000000000000157e-04,2.000000000000000096e-04,-6.999999999999999387e-05,2.900000000000000017e-04,6.000000000000000000e+00,1.100000000000000000e+01
3.128900000000000000e+04,3.600000000000000227e-04,8.000000000000000654e-05,-4.000000000000000327e-05,1.499999999999999869e-04,4.400000000000000157e-04,2.000000000000000096e-04,-6.999999999999999387e-05,2.900000000000000017e-04,6.000000000000000000e+00,1.100000000000000000e+01
3.129000000000000000e+04,3.600000000000000227e-04,8.000000000000000654e-05,-4.000000000000000327e-05,1.499999999999999869e-04,4.400000000000000157e-04,2.000000000000000096e-04,-6.999999999999999387e-05,2.900000000000000017e-04,6.000000000000000000e+00,1.100000000000000000e+01
3.129100000000000000e+04,3.600000000000000227e-04,8.000000000000000654e-05,-4.000000000000000327e-05,1.499999999999999869e-04,4.400000000000000157e-04,2.000000000000000096e-04,-6.999999999999999387e-05,2.900000000000000017e-04,6.000000000000000000e+00,1.100000000000000000e+01
3.129200000000000000e+04,3.600000000000000227e-04,8.000000000000000654e-05,-4.000000000000000327e-05,1.499999999999999869e-04,4.400000000000000157e-04,2.000000000000000096e-04,-6.999999999999999387e-05,2.900000000000000017e-04,6.000000000000000000e+00,1.100000000000000000e+01
3.129300000000000000e+04,3.600000000000000227e-04,8.000000000000000654e-05,-4.000000000000000327e-05,1.499999999999999869e-04,4.400000000000000157e-04,2.000000000000000096e-04,-6.999999999999999387e-05,2.900000000000000017e-04,6.000000000000000000e+00,1.100000000000000000e+01
3.129400000000000000e+04,3.600000000000000227e-04,8.000000000000000654e-05,-4.000000000000000327e-05,1.499999999999999869e-04,4.400000000000000157e-04,2.000000000000000096e-04,-6.999999999999999387e-05,2.900000000000000017e-04,6.000000000000000000e+00,1.100000000000000000e+01
3.129500000000000000e+04,3.600000000000000227e-04,8.000000000000000654e-05,-4.000000000000000327e-05,1.499999999999999869e-04,4.400000000000000157e-04,2.000000000000000096e-04,-6.999999999999999387e-05,2.900000000000000017e-04,6.000000000000000000e+00,1.100000000000000000e+01
3.129600000000000000e+04,3.600000000000000227e-04,8.000000000000000654e-05,-4.000000000000000327e-05,1.499999999999999869e-04,4.400000000000000157e-04,2.000000000000000096e-04,-6.999999999999999387e-05,2.900000000000000017e-04,6.000000000000000000e+00,1.100000000000000000e+01
3.129700000000000000e+04,3.600000000000000227e-04,8.000000000000000654e-05,-4.000000000000000327e-05,1.499999999999999869e-04,4.400000000000000157e-04,2.000000000000000096e-04,-6.999999999999999387e-05,2.900000000000000017e-04,6.000000000000000000e+00,1.100000000000000000e+01
3.129800000000000000e+04,-2.000000000000000164e-05,-1.199999999999999895e-04,-1.300000000000000157e-04,-1.699999999999999851e-04,-1.149999999999999981e-03,-1.300000000000000157e-04,-1.000000000000000048e-04,-2.999999999999999737e-05,6.000000000000000000e+00,1.100000000000000000e+01
3.129900000000000000e+04,0.000000000000000000e+00,6.999999999999999387e-05,-2.000000000000000164e-05,-9.000000000000000567e-05,-2.100000000000000087e-04,-2.100000000000000087e-04,1.600000000000000131e-04,-2.799999999999999755e-04,6.000000000000000000e+00,1.100000000000000000e+01
3.130000000000000000e+04,0.000000000000000000e+00,6.999999999999999387e-05,-2.000000000000000164e-05,-9.000000000000000567e-05,-2.100000000000000087e-04,-2.100000000000000087e-04,1.600000000000000131e-04,-2.799999999999999755e-04,6.000000000000000000e+00,1.100000000000000000e+01
3.130100000000000000e+04,0.000000000000000000e+00,6.999999999999999387e-05,-2.000000000000000164e-05,-9.000000000000000567e-05,-2.100000000000000087e-04,-2.100000000000000087e-04,1.600000000000000131e-04,-2.799999999999999755e-04,6.000000000000000000e+00,1.100000000000000000e+01
3.130200000000000000e+04,0.000000000000000000e+00,6.999999999999999387e-05,-2.000000000000000164e-05,-9.000000000000000567e-05,-2.100000000000000087e-04,-2.100000000000000087e-04,1.600000000000000131e-04,-2.799999999999999755e-04,6.000000000000000000e+00,1.100000000000000000e+01
3.130300000000000000e+04,0.000000000000000000e+00,6.999999999999999387e-05,-2.000000000000000164e-05,-9.000000000000000567e-05,-2.100000000000000087e-04,-2.100000000000000087e-04,1.600000000000000131e-04,-2.799999999999999755e-04,6.000000000000000000e+00,1.100000000000000000e+01
3.130400000000000000e+04,0.000000000000000000e+00,6.999999999999999387e-05,-2.000000000000000164e-05,-9.000000000000000567e-05,-2.100000000000000087e-04,-2.100000000000000087e-04,1.600000000000000131e-04,-2.799999999999999755e-04,6.000000000000000000e+00,1.100000000000000000e+01
3.130500000000000000e+04,0.000000000000000000e+00,6.999999999999999387e-05,-2.000000000000000164e-05,-9.000000000000000567e-05,-2.100000000000000087e-04,-2.100000000000000087e-04,1.600000000000000131e-04,-2.799999999999999755e-04,6.000000000000000000e+00,1.100000000000000000e+01
3.130600000000000000e+04,0.000000000000000000e+00,6.999999999999999387e-05,-2.000000000000000164e-05,-9.000000000000000567e-05,-2.100000000000000087e-04,-2.100000000000000087e-04,1.600000000000000131e-04,-2.799999999999999755e-04,6.000000000000000000e+00,1.100000000000000000e+01
3.130700000000000000e+04,0.000000000000000000e+00,6.999999999999999387e-05,-2.000000000000000164e-05,-9.000000000000000567e-05,-2.100000000000000087e-04,-2.100000000000000087e-04,1.600000000000000131e-04,-2.799999999999999755e-04,6.000000000000000000e+00,1.100000000000000000e+01
3.130800000000000000e+04,0.000000000000000000e+00,6.999999999999999387e-05,-2.000000000000000164e-05,-9.000000000000000567e-05,-2.100000000000000087e-04,-2.100000000000000087e-04,1.600000000000000131e-04,-2.799999999999999755e-04,6.000000000000000000e+00,1.100000000000000000e+01
3.130900000000000000e+04,0.000000000000000000e+00,6.999999999999999387e-05,-2.000000000000000164e-05,-9.000000000000000567e-05,-2.100000000000000087e-04,-2.100000000000000087e-04,1.600000000000000131e-04,-2.799999999999999755e-04,6.000000000000000000e+00,1.100000000000000000e+01
3.131000000000000000e+04,0.000000000000000000e+00,6.999999999999999387e-05,-2.000000000000000164e-05,-9.000000000000000567e-05,-2.100000000000000087e-04,-2.100000000000000087e-04,1.600000000000000131e-04,-2.799999999999999755e-04,6.000000000000000000e+00,1.100000000000000000e+01
3.131100000000000000e+04,0.000000000000000000e+00,6.999999999999999387e-05,-2.000000000000000164e-05,-9.000000000000000567e-05,-2.100000000000000087e-04,-2.100000000000000087e-04,1.600000000000000131e-04,-2.799999999999999755e-04,6.000000000000000000e+00,1.100000000000000000e+01
3.131200000000000000e+04,0.000000000000000000e+00,6.999999999999999387e-05,-2.000000000000000164e-05,-9.000000000000000567e-05,-2.100000000000000087e-04,-2.100000000000000087e-04,1.600000000000000131e-04,-2.799999999999999755e-04,6.000000000000000000e+00,1.100000000000000000e+01
3.131300000000000000e+04,0.000000000000000000e+00,6.999999999999999387e-05,-2.000000000000000164e-05,-9.000000000000000567e-05,-2.100000000000000087e-04,-2.100000000000000087e-04,1.600000000000000131e-04,-2.799999999999999755e-04,6.000000000000000000e+00,1.100000000000000000e+01
3.131400000000000000e+04,0.000000000000000000e+00,6.999999999999999387e-05,-2.000000000000000164e-05,-9.000000000000000567e-05,-2.100000000000000087e-04,-2.100000000000000087e-04,1.600000000000000131e-04,-2.799999999999999755e-04,6.000000000000000000e+00,1.100000000000000000e+01
3.131500000000000000e+04,0.000000000000000000e+00,6.999999999999999387e-05,-2.000000000000000164e-05,-9.000000000000000567e-05,-2.100000000000000087e-04,-2.100000000000000087e-04,1.600000000000000131e-04,-2.799999999999999755e-04,6.000000000000000000e+00,1.100000000000000000e+01
3.131600000000000000e+04,0.000000000000000000e+00,6.999999999999999387e-05,-2.000000000000000164e-05,-9.000000000000000567e-05,-2.100000000000000087e-04,-2.100000000000000087e-04,1.600000000000000131e-04,-2.799999999999999755e-04,6.000000000000000000e+00,1.100000000000000000e+01
3.131700000000000000e+04,0.000000000000000000e+00,6.999999999999999387e-05,-2.000000000000000164e-05,-9.000000000000000567e-05,-2.100000000000000087e-04,-2.100000000000000087e-04,1.600000000000000131e-04,-2.799999999999999755e-04,6.000000000000000000e+00,1.100000000000000000e+01
3.131800000000000000e+04,0.000000000000000000e+00,6.999999999999999387e-05,-2.000000000000000164e-05,-9.000000000000000567e-05,-2.100000000000000087e-04,-2.100000000000000087e-04,1.600000000000000131e-04,-2.799999999999999755e-04,6.000000000000000000e+00,1.100000000000000000e+01
3.131900000000000000e+04,0.000000000000000000e+00,6.999999999999999387e-05,-2.000000000000000164e-05,-9.000000000000000567e-05,-2.100000000000000087e-04,-2.100000000000000087e-04,1.600000000000000131e-04,-2.799999999999999755e-04,6.000000000000000000e+00,1.100000000000000000e+01
3.132000000000000000e+04,2.999999999999999737e-04,-2.999999999999999737e-05,6.999999999999999387e-05,1.899999999999999834e-04,4.700000000000000401e-04,-4.000000000000000192e-04,4.000000000000000327e-05,-2.900000000000000017e-04,6.000000000000000000e+00,1.100000000000000000e+01
3.132100000000000000e+04,-3.799999999999999667e-04,0.000000000000000000e+00,5.999999999999999474e-05,1.899999999999999834e-04,6.599999999999999964e-04,-1.300000000000000157e-04,-8.000000000000000654e-05,-2.000000000000000096e-04,6.000000000000000000e+00,1.100000000000000000e+01
3.132200000000000000e+04,-3.799999999999999667e-04,0.000000000000000000e+00,5.999999999999999474e-05,1.899999999999999834e-04,6.599999999999999964e-04,-1.300000000000000157e-04,-8.000000000000000654e-05,-2.000000000000000096e-04,6.000000000000000000e+00,1.100000000000000000e+01
3.132300000000000000e+04,-3.799999999999999667e-04,0.000000000000000000e+00,5.999999999999999474e-05,1.899999999999999834e-04,6.599999999999999964e-04,-1.300000000000000157e-04,-8.000000000000000654e-05,-2.000000000000000096e-04,6.000000000000000000e+00,1.100000000000000000e+01
3.132400000000000000e+04,-3.799999999999999667e-04,0.000000000000000000e+00,5.999999999999999474e-05,1.899999999999999834e-04,6.599999999999999964e-04,-1.300000000000000157e-04,-8.000000000000000654e-05,-2.000000000000000096e-04,6.000000000000000000e+00,1.100000000000000000e+01
3.132500000000000000e+04,-3.799999999999999667e-04,0.000000000000000000e+00,5.999999999999999474e-05,1.899999999999999834e-04,6.599999999999999964e-04,-1.300000000000000157e-04,-8.000000000000000654e-05,-2.000000000000000096e-04,6.000000000000000000e+00,1.100000000000000000e+01
3.132600000000000000e+04,-3.799999999999999667e-04,0.000000000000000000e+00,5.999999999999999474e-05,1.899999999999999834e-04,6.599999999999999964e-04,-1.300000000000000157e-04,-8.000000000000000654e-05,-2.000000000000000096e-04,6.000000000000000000e+00,1.100000000000000000e+01
3.132700000000000000e+04,-3.799999999999999667e-04,0.000000000000000000e+00,5.999999999999999474e-05,1.899999999999999834e-04,6.599999999999999964e-04,-1.300000000000000157e-04,-8.000000000000000654e-05,-2.000000000000000096e-04,6.000000000000000000e+00,1.100000000000000000e+01
3.132800000000000000e+04,-3.799999999999999667e-04,0.000000000000000000e+00,5.999999999999999474e-05,1.899999999999999834e-04,6.599999999999999964e-04,-1.300000000000000157e-04,-8.000000000000000654e-05,-2.000000000000000096e-04,6.000000000000000000e+00,1.100000000000000000e+01
3.132900000000000000e+04,-3.799999999999999667e-04,0.000000000000000000e+00,5.999999999999999474e-05,1.899999999999999834e-04,6.599999999999999964e-04,-1.300000000000000157e-04,-8.000000000000000654e-05,-2.000000000000000096e-04,6.000000000000000000e+00,1.100000000000000000e+01
3.133000000000000000e+04,-3.799999999999999667e-04,0.000000000000000000e+00,5.999999999999999474e-05,1.899999999999999834e-04,6.599999999999999964e-04,-1.300000000000000157e-04,-8.000000000000000654e-05,-2.000000000000000096e-04,6.000000000000000000e+00,1.100000000000000000e+01
3.133100000000000000e+04,-3.799999999999999667e-04,0.000000000000000000e+00,5.999999999999999474e-05,1.899999999999999834e-04,6.599999999999999964e-04,-1.300000000000000157e-04,-8.000000000000000654e-05,-2.000000000000000096e-04,6.000000000000000000e+00,1.100000000000000000e+01
3.133200000000000000e+04,-3.799999999999999667e-04,0.000000000000000000e+00,5.999999999999999474e-05,1.899999999999999834e-04,6.599999999999999964e-04,-1.300000000000000157e-04,-8.000000000000000654e-05,-2.000000000000000096e-04,6.000000000000000000e+00,1.100000000000000000e+01
3.133300000000000000e+04,-3.799999999999999667e-04,0.000000000000000000e+00,5.999999999999999474e-05,1.899999999999999834e-04,6.599999999999999964e-04,-1.300000000000000157e-04,-8.000000000000000654e-05,-2.000000000000000096e-04,6.000000000000000000e+00,1.100000000000000000e+01
3.133400000000000000e+04,-3.799999999999999667e-04,0.000000000000000000e+00,5.999999999999999474e-05,1.899999999999999834e-04,6.599999999999999964e-04,-1.300000000000000157e-04,-8.000000000000000654e-05,-2.000000000000000096e-04,6.000000000000000000e+00,1.100000000000000000e+01
3.133500000000000000e+04,2.299999999999999799e-04,-1.000000000000000082e-05,-9.000000000000000567e-05,-5.000000000000000240e-05,-4.599999999999999597e-04,2.999999999999999737e-04,-1.100000000000000039e-04,-2.000000000000000164e-05,6.000000000000000000e+00,1.100000000000000000e+01
3.133700000000000000e+04,-2.100000000000000087e-04,8.000000000000000654e-05,2.000000000000000164e-05,-5.999999999999999474e-05,-3.600000000000000227e-04,9.799999999999999684e-04,-2.900000000000000017e-04,-1.100000000000000039e-04,6.000000000000000000e+00,1.100000000000000000e+01
3.133900000000000000e+04,-2.100000000000000087e-04,8.000000000000000654e-05,2.000000000000000164e-05,-5.999999999999999474e-05,-3.600000000000000227e-04,9.799999999999999684e-04,-2.900000000000000017e-04,-1.100000000000000039e-04,6.000000000000000000e+00,1.100000000000000000e+01
3.134000000000000000e+04,-2.100000000000000087e-04,8.000000000000000654e-05,2.000000000000000164e-05,-5.999999999999999474e-05,-3.600000000000000227e-04,9.799999999999999684e-04,-2.900000000000000017e-04,-1.100000000000000039e-04,6.000000000000000000e+00,1.100000000000000000e+01
3.134100000000000000e+04,-2.100000000000000087e-04,8.000000000000000654e-05,2.000000000000000164e-05,-5.999999999999999474e-05,-3.600000000000000227e-04,9.799999999999999684e-04,-2.900000000000000017e-04,-1.100000000000000039e-04,6.000000000000000000e+00,1.100000000000000000e+01
3.134200000000000000e+04,-2.100000000000000087e-04,8.000000000000000654e-05,2.000000000000000164e-05,-5.999999999999999474e-05,-3.600000000000000227e-04,9.799999999999999684e-04,-2.900000000000000017e-04,-1.100000000000000039e-04,6.000000000000000000e+00,1.100000000000000000e+01
3.134300000000000000e+04,-2.100000000000000087e-04,8.000000000000000654e-05,2.000000000000000164e-05,-5.999999999999999474e-05,-3.600000000000000227e-04,9.799999999999999684e-04,-2.900000000000000017e-04,-1.100000000000000039e-04,6.000000000000000000e+00,1.100000000000000000e+01
3.134400000000000000e+04,-2.100000000000000087e-04,8.000000000000000654e-05,2.000000000000000164e-05,-5.999999999999999474e-05,-3.600000000000000227e-04,9.799999999999999684e-04,-2.900000000000000017e-04,-1.100000000000000039e-04,6.000000000000000000e+00,1.100000000000000000e+01
3.134500000000000000e+04,-2.100000000000000087e-04,8.000000000000000654e-05,2.000000000000000164e-05,-5.999999999999999474e-05,-3.600000000000000227e-04,9.799999999999999684e-04,-2.900000000000000017e-04,-1.100000000000000039e-04,6.000000000000000000e+00,1.100000000000000000e+01
3.134600000000000000e+04,-2.100000000000000087e-04,8.000000000000000654e-05,2.000000000000000164e-05,-5.999999999999999474e-05,-3.600000000000000227e-04,9.799999999999999684e-04,-2.900000000000000017e-04,-1.100000000000000039e-04,6.000000000000000000e+00,1.100000000000000000e+01
3.134700000000000000e+04,-2.100000000000000087e-04,8.000000000000000654e-05,2.000000000000000164e-05,-5.999999999999999474e-05,-3.600000000000000227e-04,9.799999999999999684e-04,-2.900000000000000017e-04,-1.100000000000000039e-04,6.000000000000000000e+00,1.100000000000000000e+01
3.134800000000000000e+04,-2.100000000000000087e-04,8.000000000000000654e-05,2.000000000000000164e-05,-5.999999999999999474e-05,-3.600000000000000227e-04,9.799999999999999684e-04,-2.900000000000000017e-04,-1.100000000000000039e-04,6.000000000000000000e+00,1.100000000000000000e+01
3.134900000000000000e+04,-2.100000000000000087e-04,8.000000000000000654e-05,2.000000000000000164e-05,-5.999999999999999474e-05,-3.600000000000000227e-04,9.799999999999999684e-04,-2.900000000000000017e-04,-1.100000000000000039e-04,6.000000000000000000e+00,1.100000000000000000e+01
3.135000000000000000e+04,-2.100000000000000087e-04,8.000000000000000654e-05,2.000000000000000164e-05,-5.999999999999999474e-05,-3.600000000000000227e-04,9.799999999999999684e-04,-2.900000000000000017e-04,-1.100000000000000039e-04,6.000000000000000000e+00,1.100000000000000000e+01
3.135100000000000000e+04,-2.100000000000000087e-04,8.000000000000000654e-05,2.000000000000000164e-05,-5.999999999999999474e-05,-3.600000000000000227e-04,9.799999999999999684e-04,-2.900000000000000017e-04,-1.100000000000000039e-04,6.000000000000000000e+00,1.100000000000000000e+01
3.135200000000000000e+04,-2.100000000000000087e-04,8.000000000000000654e-05,2.000000000000000164e-05,-5.999999999999999474e-05,-3.600000000000000227e-04,9.799999999999999684e-04,-2.900000000000000017e-04,-1.100000000000000039e-04,6.000000000000000000e+00,1.100000000000000000e+01
3.135300000000000000e+04,-2.100000000000000087e-04,8.000000000000000654e-05,2.000000000000000164e-05,-5.999999999999999474e-05,-3.600000000000000227e-04,9.799999999999999684e-04,-2.900000000000000017e-04,-1.100000000000000039e-04,6.000000000000000000e+00,1.100000000000000000e+01
3.135400000000000000e+04,-2.100000000000000087e-04,8.000000000000000654e-05,2.000000000000000164e-05,-5.999999999999999474e-05,-3.600000000000000227e-04,9.799999999999999684e-04,-2.900000000000000017e-04,-1.100000000000000039e-04,6.000000000000000000e+00,1.100000000000000000e+01
3.135500000000000000e+04,-2.100000000000000087e-04,8.000000000000000654e-05,2.000000000000000164e-05,-5.999999999999999474e-05,-3.600000000000000227e-04,9.799999999999999684e-04,-2.900000000000000017e-04,-1.100000000000000039e-04,6.000000000000000000e+00,1.100000000000000000e+01
3.135600000000000000e+04,-2.100000000000000087e-04,8.000000000000000654e-05,2.000000000000000164e-05,-5.999999999999999474e-05,-3.600000000000000227e-04,9.799999999999999684e-04,-2.900000000000000017e-04,-1.100000000000000039e-04,6.000000000000000000e+00,1.100000000000000000e+01
3.135700000000000000e+04,-2.100000000000000087e-04,8.000000000000000654e-05,2.000000000000000164e-05,-5.999999999999999474e-05,-3.600000000000000227e-04,9.799999999999999684e-04,-2.900000000000000017e-04,-1.100000000000000039e-04,6.000000000000000000e+00,1.100000000000000000e+01
3.135800000000000000e+04,-2.900000000000000017e-04,9.000000000000000567e-05,5.000000000000000240e-05,1.699999999999999851e-04,-1.800000000000000113e-04,-6.499999999999999702e-04,-2.999999999999999737e-04,-1.199999999999999895e-04,6.000000000000000000e+00,1.100000000000000000e+01
3.135900000000000000e+04,-8.000000000000000654e-05,2.000000000000000164e-05,-4.000000000000000327e-05,-2.999999999999999737e-05,-2.200000000000000078e-04,1.899999999999999834e-04,5.999999999999999474e-05,1.600000000000000131e-04,6.000000000000000000e+00,1.100000000000000000e+01
3.136000000000000000e+04,-8.000000000000000654e-05,2.000000000000000164e-05,-4.000000000000000327e-05,-2.999999999999999737e-05,-2.200000000000000078e-04,1.899999999999999834e-04,5.999999999999999474e-05,1.600000000000000131e-04,6.000000000000000000e+00,1.100000000000000000e+01
3.136100000000000000e+04,-8.000000000000000654e-05,2.000000000000000164e-05,-4.000000000000000327e-05,-2.999999999999999737e-05,-2.200000000000000078e-04,1.899999999999999834e-04,5.999999999999999474e-05,1.600000000000000131e-04,6.000000000000000000e+00,1.100000000000000000e+01
3.136200000000000000e+04,-8.000000000000000654e-05,2.000000000000000164e-05,-4.000000000000000327e-05,-2.999999999999999737e-05,-2.200000000000000078e-04,1.899999999999999834e-04,5.999999999999999474e-05,1.600000000000000131e-04,6.000000000000000000e+00,1.100000000000000000e+01
3.136300000000000000e+04,-8.000000000000000654e-05,2.000000000000000164e-05,-4.000000000000000327e-05,-2.999999999999999737e-05,-2.200000000000000078e-04,1.899999999999999834e-04,5.999999999999999474e-05,1.600000000000000131e-04,6.000000000000000000e+00,1.100000000000000000e+01
3.136400000000000000e+04,-8.000000000000000654e-05,2.000000000000000164e-05,-4.000000000000000327e-05,-2.999999999999999737e-05,-2.200000000000000078e-04,1.899999999999999834e-04,5.999999999999999474e-05,1.600000000000000131e-04,6.000000000000000000e+00,1.100000000000000000e+01
3.136500000000000000e+04,-8.000000000000000654e-05,2.000000000000000164e-05,-4.000000000000000327e-05,-2.999999999999999737e-05,-2.200000000000000078e-04,1.899999999999999834e-04,5.999999999999999474e-05,1.600000000000000131e-04,6.000000000000000000e+00,1.100000000000000000e+01
3.136600000000000000e+04,-8.000000000000000654e-05,2.000000000000000164e-05,-4.000000000000000327e-05,-2.999999999999999737e-05,-2.200000000000000078e-04,1.899999999999999834e-04,5.999999999999999474e-05,1.600000000000000131e-04,6.000000000000000000e+00,1.100000000000000000e+01
3.136700000000000000e+04,-8.000000000000000654e-05,2.000000000000000164e-05,-4.000000000000000327e-05,-2.999999999999999737e-05,-2.200000000000000078e-04,1.899999999999999834e-04,5.999999999999999474e-05,1.600000000000000131e-04,6.000000000000000000e+00,1.100000000000000000e+01
3.136800000000000000e+04,-8.000000000000000654e-05,2.000000000000000164e-05,-4.000000000000000327e-05,-2.999999999999999737e-05,-2.200000000000000078e-04,1.899999999999999834e-04,5.999999999999999474e-05,1.600000000000000131e-04,6.000000000000000000e+00,1.100000000000000000e+01
3.136900000000000000e+04,-8.000000000000000654e-05,2.000000000000000164e-05,-4.000000000000000327e-05,-2.999999999999999737e-05,-2.200000000000000078e-04,1.899999999999999834e-04,5.999999999999999474e-05,1.600000000000000131e-04,6.000000000000000000e+00,1.100000000000000000e+01
3.137000000000000000e+04,-8.000000000000000654e-05,2.000000000000000164e-05,-4.000000000000000327e-05,-2.999999999999999737e-05,-2.200000000000000078e-04,1.899999999999999834e-04,5.999999999999999474e-05,1.600000000000000131e-04,6.000000000000000000e+00,1.100000000000000000e+01
3.137100000000000000e+04,-8.000000000000000654e-05,2.000000000000000164e-05,-4.000000000000000327e-05,-2.999999999999999737e-05,-2.200000000000000078e-04,1.899999999999999834e-04,5.999999999999999474e-05,1.600000000000000131e-04,6.000000000000000000e+00,1.100000000000000000e+01
3.137200000000000000e+04,-8.000000000000000654e-05,2.000000000000000164e-05,-4.000000000000000327e-05,-2.999999999999999737e-05,-2.200000000000000078e-04,1.899999999999999834e-04,5.999999999999999474e-05,1.600000000000000131e-04,6.000000000000000000e+00,1.100000000000000000e+01
3.137300000000000000e+04,-8.000000000000000654e-05,2.000000000000000164e-05,-4.000000000000000327e-05,-2.999999999999999737e-05,-2.200000000000000078e-04,1.899999999999999834e-04,5.999999999999999474e-05,1.600000000000000131e-04,6.000000000000000000e+00,1.100000000000000000e+01
3.137400000000000000e+04,-8.000000000000000654e-05,2.000000000000000164e-05,-4.000000000000000327e-05,-2.999999999999999737e-05,-2.200000000000000078e-04,1.899999999999999834e-04,5.999999999999999474e-05,1.600000000000000131e-04,6.000000000000000000e+00,1.100000000000000000e+01
3.137500000000000000e+04,-8.000000000000000654e-05,2.000000000000000164e-05,-4.000000000000000327e-05,-2.999999999999999737e-05,-2.200000000000000078e-04,1.899999999999999834e-04,5.999999999999999474e-05,1.600000000000000131e-04,6.000000000000000000e+00,1.100000000000000000e+01
3.137600000000000000e+04,-8.000000000000000654e-05,2.000000000000000164e-05,-4.000000000000000327e-05,-2.999999999999999737e-05,-2.200000000000000078e-04,1.899999999999999834e-04,5.999999999999999474e-05,1.600000000000000131e-04,6.000000000000000000e+00,1.100000000000000000e+01
3.137700000000000000e+04,-8.000000000000000654e-05,2.000000000000000164e-05,-4.000000000000000327e-05,-2.999999999999999737e-05,-2.200000000000000078e-04,1.899999999999999834e-04,5.999999999999999474e-05,1.600000000000000131e-04,6.000000000000000000e+00,1.100000000000000000e+01
3.137800000000000000e+04,-8.000000000000000654e-05,2.000000000000000164e-05,-4.000000000000000327e-05,-2.999999999999999737e-05,-2.200000000000000078e-04,1.899999999999999834e-04,5.999999999999999474e-05,1.600000000000000131e-04,6.000000000000000000e+00,1.100000000000000000e+01
3.137900000000000000e+04,-8.000000000000000654e-05,2.000000000000000164e-05,-4.000000000000000327e-05,-2.999999999999999737e-05,-2.200000000000000078e-04,1.899999999999999834e-04,5.999999999999999474e-05,1.600000000000000131e-04,6.000000000000000000e+00,1.100000000000000000e+01
3.138000000000000000e+04,-1.000000000000000082e-05,-1.000000000000000082e-05,-2.999999999999999737e-05,-5.999999999999999474e-05,5.599999999999999509e-04,-2.299999999999999799e-04,4.000000000000000327e-05,-6.999999999999999387e-05,6.000000000000000000e+00,1.100000000000000000e+01
3.138100000000000000e+04,4.099999999999999912e-04,-1.100000000000000039e-04,-6.999999999999999387e-05,4.000000000000000327e-05,7.700000000000000681e-04,-2.399999999999999790e-04,2.799999999999999755e-04,1.000000000000000082e-05,6.000000000000000000e+00,1.100000000000000000e+01
3.138200000000000000e+04,4.099999999999999912e-04,-1.100000000000000039e-04,-6.999999999999999387e-05,4.000000000000000327e-05,7.700000000000000681e-04,-2.399999999999999790e-04,2.799999999999999755e-04,1.000000000000000082e-05,6.000000000000000000e+00,1.100000000000000000e+01
3.138300000000000000e+04,4.099999999999999912e-04,-1.100000000000000039e-04,-6.999999999999999387e-05,4.000000000000000327e-05,7.700000000000000681e-04,-2.399999999999999790e-04,2.799999999999999755e-04,1.000000000000000082e-05,6.000000000000000000e+00,1.100000000000000000e+01
3.138400000000000000e+04,4.099999999999999912e-04,-1.100000000000000039e-04,-6.999999999999999387e-05,4.000000000000000327e-05,7.700000000000000681e-04,-2.399999999999999790e-04,2.799999999999999755e-04,1.000000000000000082e-05,6.000000000000000000e+00,1.100000000000000000e+01
3.138500000000000000e+04,4.099999999999999912e-04,-1.100000000000000039e-04,-6.999999999999999387e-05,4.000000000000000327e-05,7.700000000000000681e-04,-2.399999999999999790e-04,2.799999999999999755e-04,1.000000000000000082e-05,6.000000000000000000e+00,1.100000000000000000e+01
3.138700000000000000e+04,4.099999999999999912e-04,-1.100000000000000039e-04,-6.999999999999999387e-05,4.000000000000000327e-05,7.700000000000000681e-04,-2.399999999999999790e-04,2.799999999999999755e-04,1.000000000000000082e-05,6.000000000000000000e+00,1.100000000000000000e+01
3.138900000000000000e+04,4.099999999999999912e-04,-1.100000000000000039e-04,-6.999999999999999387e-05,4.000000000000000327e-05,7.700000000000000681e-04,-2.399999999999999790e-04,2.799999999999999755e-04,1.000000000000000082e-05,6.000000000000000000e+00,1.100000000000000000e+01
3.139000000000000000e+04,4.099999999999999912e-04,-1.100000000000000039e-04,-6.999999999999999387e-05,4.000000000000000327e-05,7.700000000000000681e-04,-2.399999999999999790e-04,2.799999999999999755e-04,1.000000000000000082e-05,6.000000000000000000e+00,1.100000000000000000e+01
3.139100000000000000e+04,4.099999999999999912e-04,-1.100000000000000039e-04,-6.999999999999999387e-05,4.000000000000000327e-05,7.700000000000000681e-04,-2.399999999999999790e-04,2.799999999999999755e-04,1.000000000000000082e-05,6.000000000000000000e+00,1.100000000000000000e+01
3.139200000000000000e+04,4.099999999999999912e-04,-1.100000000000000039e-04,-6.999999999999999387e-05,4.000000000000000327e-05,7.700000000000000681e-04,-2.399999999999999790e-04,2.799999999999999755e-04,1.000000000000000082e-05,6.000000000000000000e+00,1.100000000000000000e+01
3.139300000000000000e+04,4.099999999999999912e-04,-1.100000000000000039e-04,-6.999999999999999387e-05,4.000000000000000327e-05,7.700000000000000681e-04,-2.399999999999999790e-04,2.799999999999999755e-04,1.000000000000000082e-05,6.000000000000000000e+00,1.100000000000000000e+01
3.139400000000000000e+04,4.099999999999999912e-04,-1.100000000000000039e-04,-6.999999999999999387e-05,4.000000000000000327e-05,7.700000000000000681e-04,-2.399999999999999790e-04,2.799999999999999755e-04,1.000000000000000082e-05,6.000000000000000000e+00,1.100000000000000000e+01
3.139500000000000000e+04,-8.400000000000000348e-04,-4.000000000000000327e-05,-1.000000000000000082e-05,-8.000000000000000654e-05,6.999999999999999387e-05,3.899999999999999929e-04,2.999999999999999737e-05,-2.500000000000000052e-04,6.000000000000000000e+00,1.100000000000000000e+01
3.139600000000000000e+04,-3.099999999999999999e-04,-5.000000000000000240e-05,-2.000000000000000164e-05,-2.100000000000000087e-04,-5.599999999999999509e-04,-2.000000000000000096e-04,1.000000000000000082e-05,1.899999999999999834e-04,6.000000000000000000e+00,1.100000000000000000e+01
3.139700000000000000e+04,-3.099999999999999999e-04,-5.000000000000000240e-05,-2.000000000000000164e-05,-2.100000000000000087e-04,-5.599999999999999509e-04,-2.000000000000000096e-04,1.000000000000000082e-05,1.899999999999999834e-04,6.000000000000000000e+00,1.100000000000000000e+01
3.139800000000000000e+04,-3.099999999999999999e-04,-5.000000000000000240e-05,-2.000000000000000164e-05,-2.100000000000000087e-04,-5.599999999999999509e-04,-2.000000000000000096e-04,1.000000000000000082e-05,1.899999999999999834e-04,6.000000000000000000e+00,1.100000000000000000e+01
3.139900000000000000e+04,-3.099999999999999999e-04,-5.000000000000000240e-05,-2.000000000000000164e-05,-2.100000000000000087e-04,-5.599999999999999509e-04,-2.000000000000000096e-04,1.000000000000000082e-05,1.899999999999999834e-04,6.000000000000000000e+00,1.100000000000000000e+01
3.140000000000000000e+04,-3.099999999999999999e-04,-5.000000000000000240e-05,-2.000000000000000164e-05,-2.100000000000000087e-04,-5.599999999999999509e-04,-2.000000000000000096e-04,1.000000000000000082e-05,1.899999999999999834e-04,6.000000000000000000e+00,1.100000000000000000e+01
3.140100000000000000e+04,-3.099999999999999999e-04,-5.000000000000000240e-05,-2.000000000000000164e-05,-2.100000000000000087e-04,-5.599999999999999509e-04,-2.000000000000000096e-04,1.000000000000000082e-05,1.899999999999999834e-04,6.000000000000000000e+00,1.100000000000000000e+01
3.140200000000000000e+04,-3.099999999999999999e-04,-5.000000000000000240e-05,-2.000000000000000164e-05,-2.100000000000000087e-04,-5.599999999999999509e-04,-2.000000000000000096e-04,1.000000000000000082e-05,1.899999999999999834e-04,6.000000000000000000e+00,1.100000000000000000e+01
3.140300000000000000e+04,-3.099999999999999999e-04,-5.000000000000000240e-05,-2.000000000000000164e-05,-2.100000000000000087e-04,-5.599999999999999509e-04,-2.000000000000000096e-04,1.000000000000000082e-05,1.899999999999999834e-04,6.000000000000000000e+00,1.100000000000000000e+01
3.140400000000000000e+04,-3.099999999999999999e-04,-5.000000000000000240e-05,-2.000000000000000164e-05,-2.100000000000000087e-04,-5.599999999999999509e-04,-2.000000000000000096e-04,1.000000000000000082e-05,1.899999999999999834e-04,6.000000000000000000e+00,1.100000000000000000e+01
3.140500000000000000e+04,-3.099999999999999999e-04,-5.000000000000000240e-05,-2.000000000000000164e-05,-2.100000000000000087e-04,-5.599999999999999509e-04,-2.000000000000000096e-04,1.000000000000000082e-05,1.899999999999999834e-04,6.000000000000000000e+00,1.100000000000000000e+01
3.140600000000000000e+04,-3.099999999999999999e-04,-5.000000000000000240e-05,-2.000000000000000164e-05,-2.100000000000000087e-04,-5.599999999999999509e-04,-2.000000000000000096e-04,1.000000000000000082e-05,1.899999999999999834e-04,6.000000000000000000e+00,1.100000000000000000e+01
3.140700000000000000e+04,-3.099999999999999999e-04,-5.000000000000000240e-05,-2.000000000000000164e-05,-2.100000000000000087e-04,-5.599999999999999509e-04,-2.000000000000000096e-04,1.000000000000000082e-05,1.899999999999999834e-04,6.000000000000000000e+00,1.100000000000000000e+01
3.140800000000000000e+04,-3.099999999999999999e-04,-5.000000000000000240e-05,-2.000000000000000164e-05,-2.100000000000000087e-04,-5.599999999999999509e-04,-2.000000000000000096e-04,1.000000000000000082e-05,1.899999999999999834e-04,6.000000000000000000e+00,1.100000000000000000e+01
3.140900000000000000e+04,-3.099999999999999999e-04,-5.000000000000000240e-05,-2.000000000000000164e-05,-2.100000000000000087e-04,-5.599999999999999509e-04,-2.000000000000000096e-04,1.000000000000000082e-05,1.899999999999999834e-04,6.000000000000000000e+00,1.100000000000000000e+01
3.141000000000000000e+04,-3.099999999999999999e-04,-5.000000000000000240e-05,-2.000000000000000164e-05,-2.100000000000000087e-04,-5.599999999999999509e-04,-2.000000000000000096e-04,1.000000000000000082e-05,1.899999999999999834e-04,6.000000000000000000e+00,1.100000000000000000e+01
3.141100000000000000e+04,-3.099999999999999999e-04,-5.000000000000000240e-05,-2.000000000000000164e-05,-2.100000000000000087e-04,-5.599999999999999509e-04,-2.000000000000000096e-04,1.000000000000000082e-05,1.899999999999999834e-04,6.000000000000000000e+00,1.100000000000000000e+01
3.141200000000000000e+04,-3.099999999999999999e-04,-5.000000000000000240e-05,-2.000000000000000164e-05,-2.100000000000000087e-04,-5.599999999999999509e-04,-2.000000000000000096e-04,1.000000000000000082e-05,1.899999999999999834e-04,6.000000000000000000e+00,1.100000000000000000e+01
3.141300000000000000e+04,-3.099999999999999999e-04,-5.000000000000000240e-05,-2.000000000000000164e-05,-2.100000000000000087e-04,-5.599999999999999509e-04,-2.000000000000000096e-04,1.000000000000000082e-05,1.899999999999999834e-04,6.000000000000000000e+00,1.100000000000000000e+01
3.141400000000000000e+04,-3.099999999999999999e-04,-5.000000000000000240e-05,-2.000000000000000164e-05,-2.100000000000000087e-04,-5.599999999999999509e-04,-2.000000000000000096e-04,1.000000000000000082e-05,1.899999999999999834e-04,6.000000000000000000e+00,1.100000000000000000e+01
3.141500000000000000e+04,-3.099999999999999999e-04,-5.000000000000000240e-05,-2.000000000000000164e-05,-2.100000000000000087e-04,-5.599999999999999509e-04,-2.000000000000000096e-04,1.000000000000000082e-05,1.899999999999999834e-04,6.000000000000000000e+00,1.100000000000000000e+01
3.141600000000000000e+04,-3.099999999999999999e-04,-5.000000000000000240e-05,-2.000000000000000164e-05,-2.100000000000000087e-04,-5.599999999999999509e-04,-2.000000000000000096e-04,1.000000000000000082e-05,1.899999999999999834e-04,6.000000000000000000e+00,1.100000000000000000e+01
3.141700000000000000e+04,-3.099999999999999999e-04,-5.000000000000000240e-05,-2.000000000000000164e-05,-2.100000000000000087e-04,-5.599999999999999509e-04,-2.000000000000000096e-04,1.000000000000000082e-05,1.899999999999999834e-04,6.000000000000000000e+00,1.100000000000000000e+01
3.141800000000000000e+04,5.999999999999999474e-04,2.000000000000000164e-05,2.000000000000000164e-05,-5.000000000000000240e-05,1.000000000000000082e-05,1.499999999999999869e-04,3.699999999999999947e-04,-1.000000000000000082e-05,6.000000000000000000e+00,1.100000000000000000e+01
3.141900000000000000e+04,-2.299999999999999799e-04,-5.000000000000000240e-05,-1.000000000000000082e-05,8.000000000000000654e-05,4.499999999999999877e-04,8.900000000000000576e-04,-1.300000000000000157e-04,-4.000000000000000327e-05,6.000000000000000000e+00,1.100000000000000000e+01
3.142000000000000000e+04,-2.299999999999999799e-04,-5.000000000000000240e-05,-1.000000000000000082e-05,8.000000000000000654e-05,4.499999999999999877e-04,8.900000000000000576e-04,-1.300000000000000157e-04,-4.000000000000000327e-05,6.000000000000000000e+00,1.100000000000000000e+01
3.142100000000000000e+04,-2.299999999999999799e-04,-5.000000000000000240e-05,-1.000000000000000082e-05,8.000000000000000654e-05,4.499999999999999877e-04,8.900000000000000576e-04,-1.300000000000000157e-04,-4.000000000000000327e-05,6.000000000000000000e+00,1.100000000000000000e+01
3.142200000000000000e+04,-2.299999999999999799e-04,-5.000000000000000240e-05,-1.000000000000000082e-05,8.000000000000000654e-05,4.499999999999999877e-04,8.900000000000000576e-04,-1.300000000000000157e-04,-4.000000000000000327e-05,6.000000000000000000e+00,1.100000000000000000e+01
3.142300000000000000e+04,-2.299999999999999799e-04,-5.000000000000000240e-05,-1.000000000000000082e-05,8.000000000000000654e-05,4.499999999999999877e-04,8.900000000000000576e-04,-1.300000000000000157e-04,-4.000000000000000327e-05,6.000000000000000000e+00,1.100000000000000000e+01
3.142400000000000000e+04,-2.299999999999999799e-04,-5.000000000000000240e-05,-1.000000000000000082e-05,8.000000000000000654e-05,4.499999999999999877e-04,8.900000000000000576e-04,-1.300000000000000157e-04,-4.000000000000000327e-05,6.000000000000000000e+00,1.100000000000000000e+01
3.142500000000000000e+04,-2.299999999999999799e-04,-5.000000000000000240e-05,-1.000000000000000082e-05,8.000000000000000654e-05,4.499999999999999877e-04,8.900000000000000576e-04,-1.300000000000000157e-04,-4.000000000000000327e-05,6.000000000000000000e+00,1.100000000000000000e+01
3.142600000000000000e+04,-2.299999999999999799e-04,-5.000000000000000240e-05,-1.000000000000000082e-05,8.000000000000000654e-05,4.499999999999999877e-04,8.900000000000000576e-04,-1.300000000000000157e-04,-4.000000000000000327e-05,6.000000000000000000e+00,1.100000000000000000e+01
3.142700000000000000e+04,-2.299999999999999799e-04,-5.000000000000000240e-05,-1.000000000000000082e-05,8.000000000000000654e-05,4.499999999999999877e-04,8.900000000000000576e-04,-1.300000000000000157e-04,-4.000000000000000327e-05,6.000000000000000000e+00,1.100000000000000000e+01
3.142800000000000000e+04,-2.299999999999999799e-04,-5.000000000000000240e-05,-1.000000000000000082e-05,8.000000000000000654e-05,4.499999999999999877e-04,8.900000000000000576e-04,-1.300000000000000157e-04,-4.000000000000000327e-05,6.000000000000000000e+00,1.100000000000000000e+01
3.142900000000000000e+04,-2.299999999999999799e-04,-5.000000000000000240e-05,-1.000000000000000082e-05,8.000000000000000654e-05,4.499999999999999877e-04,8.900000000000000576e-04,-1.300000000000000157e-04,-4.000000000000000327e-05,6.000000000000000000e+00,1.100000000000000000e+01
3.143000000000000000e+04,-2.299999999999999799e-04,-5.000000000000000240e-05,-1.000000000000000082e-05,8.000000000000000654e-05,4.499999999999999877e-04,8.900000000000000576e-04,-1.300000000000000157e-04,-4.000000000000000327e-05,6.000000000000000000e+00,1.100000000000000000e+01
3.143100000000000000e+04,-2.299999999999999799e-04,-5.000000000000000240e-05,-1.000000000000000082e-05,8.000000000000000654e-05,4.499999999999999877e-04,8.900000000000000576e-04,-1.300000000000000157e-04,-4.000000000000000327e-05,6.000000000000000000e+00,1.100000000000000000e+01
3.143200000000000000e+04,-2.299999999999999799e-04,-5.000000000000000240e-05,-1.000000000000000082e-05,8.000000000000000654e-05,4.499999999999999877e-04,8.900000000000000576e-04,-1.300000000000000157e-04,-4.000000000000000327e-05,6.000000000000000000e+00,1.100000000000000000e+01
3.143300000000000000e+04,-2.299999999999999799e-04,-5.000000000000000240e-05,-1.000000000000000082e-05,8.000000000000000654e-05,4.499999999999999877e-04,8.900000000000000576e-04,-1.300000000000000157e-04,-4.000000000000000327e-05,6.000000000000000000e+00,1.100000000000000000e+01
3.143400000000000000e+04,-2.299999999999999799e-04,-5.000000000000000240e-05,-1.000000000000000082e-05,8.000000000000000654e-05,4.499999999999999877e-04,8.900000000000000576e-04,-1.300000000000000157e-04,-4.000000000000000327e-05,6.000000000000000000e+00,1.100000000000000000e+01
3.143500000000000000e+04,-2.299999999999999799e-04,-5.000000000000000240e-05,-1.000000000000000082e-05,8.000000000000000654e-05,4.499999999999999877e-04,8.900000000000000576e-04,-1.300000000000000157e-04,-4.000000000000000327e-05,6.000000000000000000e+00,1.100000000000000000e+01
3.143700000000000000e+04,-2.299999999999999799e-04,-5.000000000000000240e-05,-1.000000000000000082e-05,8.000000000000000654e-05,4.499999999999999877e-04,8.900000000000000576e-04,-1.300000000000000157e-04,-4.000000000000000327e-05,6.000000000000000000e+00,1.100000000000000000e+01
3.143900000000000000e+04,-2.299999999999999799e-04,-5.000000000000000240e-05,-1.000000000000000082e-05,8.000000000000000654e-05,4.499999999999999877e-04,8.900000000000000576e-04,-1.300000000000000157e-04,-4.000000000000000327e-05,6.000000000000000000e+00,1.100000000000000000e+01
3.144100000000000000e+04,-2.299999999999999799e-04,-5.000000000000000240e-05,-1.000000000000000082e-05,8.000000000000000654e-05,4.499999999999999877e-04,8.900000000000000576e-04,-1.300000000000000157e-04,-4.000000000000000327e-05,6.000000000000000000e+00,1.100000000000000000e+01
3.144200000000000000e+04,-8.199999999999999824e-04,-1.199999999999999895e-04,-9.000000000000000567e-05,-1.399999999999999877e-04,-2.000000000000000096e-04,-1.209999999999999921e-03,2.999999999999999737e-05,-1.899999999999999834e-04,6.000000000000000000e+00,1.100000000000000000e+01
3.144300000000000000e+04,-8.199999999999999824e-04,-1.199999999999999895e-04,-9.000000000000000567e-05,-1.399999999999999877e-04,-2.000000000000000096e-04,-1.209999999999999921e-03,2.999999999999999737e-05,-1.899999999999999834e-04,6.000000000000000000e+00,1.100000000000000000e+01
3.144400000000000000e+04,-8.199999999999999824e-04,-1.199999999999999895e-04,-9.000000000000000567e-05,-1.399999999999999877e-04,-2.000000000000000096e-04,-1.209999999999999921e-03,2.999999999999999737e-05,-1.899999999999999834e-04,6.000000000000000000e+00,1.100000000000000000e+01
3.144500000000000000e+04,-8.199999999999999824e-04,-1.199999999999999895e-04,-9.000000000000000567e-05,-1.399999999999999877e-04,-2.000000000000000096e-04,-1.209999999999999921e-03,2.999999999999999737e-05,-1.899999999999999834e-04,6.000000000000000000e+00,1.100000000000000000e+01
3.144600000000000000e+04,-8.199999999999999824e-04,-1.199999999999999895e-04,-9.000000000000000567e-05,-1.399999999999999877e-04,-2.000000000000000096e-04,-1.209999999999999921e-03,2.999999999999999737e-05,-1.899999999999999834e-04,6.000000000000000000e+00,1.100000000000000000e+01
3.144700000000000000e+04,-8.199999999999999824e-04,-1.199999999999999895e-04,-9.000000000000000567e-05,-1.399999999999999877e-04,-2.000000000000000096e-04,-1.209999999999999921e-03,2.999999999999999737e-05,-1.899999999999999834e-04,6.000000000000000000e+00,1.100000000000000000e+01
3.144800000000000000e+04,-8.199999999999999824e-04,-1.199999999999999895e-04,-9.000000000000000567e-05,-1.399999999999999877e-04,-2.000000000000000096e-04,-1.209999999999999921e-03,2.999999999999999737e-05,-1.899999999999999834e-04,6.000000000000000000e+00,1.100000000000000000e+01
3.144900000000000000e+04,-8.199999999999999824e-04,-1.199999999999999895e-04,-9.000000000000000567e-05,-1.399999999999999877e-04,-2.000000000000000096e-04,-1.209999999999999921e-03,2.999999999999999737e-05,-1.899999999999999834e-04,6.000000000000000000e+00,1.100000000000000000e+01
3.145000000000000000e+04,-8.199999999999999824e-04,-1.199999999999999895e-04,-9.000000000000000567e-05,-1.399999999999999877e-04,-2.000000000000000096e-04,-1.209999999999999921e-03,2.999999999999999737e-05,-1.899999999999999834e-04,6.000000000000000000e+00,1.100000000000000000e+01
3.145100000000000000e+04,-8.199999999999999824e-04,-1.199999999999999895e-04,-9.000000000000000567e-05,-1.399999999999999877e-04,-2.000000000000000096e-04,-1.209999999999999921e-03,2.999999999999999737e-05,-1.899999999999999834e-04,6.000000000000000000e+00,1.100000000000000000e+01
3.145200000000000000e+04,-8.199999999999999824e-04,-1.199999999999999895e-04,-9.000000000000000567e-05,-1.399999999999999877e-04,-2.000000000000000096e-04,-1.209999999999999921e-03,2.999999999999999737e-05,-1.899999999999999834e-04,6.000000000000000000e+00,1.100000000000000000e+01
3.145300000000000000e+04,-8.199999999999999824e-04,-1.199999999999999895e-04,-9.000000000000000567e-05,-1.399999999999999877e-04,-2.000000000000000096e-04,-1.209999999999999921e-03,2.999999999999999737e-05,-1.899999999999999834e-04,6.000000000000000000e+00,1.100000000000000000e+01
3.145400000000000000e+04,-8.199999999999999824e-04,-1.199999999999999895e-04,-9.000000000000000567e-05,-1.399999999999999877e-04,-2.000000000000000096e-04,-1.209999999999999921e-03,2.999999999999999737e-05,-1.899999999999999834e-04,6.000000000000000000e+00,1.100000000000000000e+01
3.145500000000000000e+04,-3.299999999999999982e-04,-5.000000000000000240e-05,-1.100000000000000039e-04,-1.600000000000000131e-04,-9.199999999999999194e-04,4.799999999999999580e-04,-2.299999999999999799e-04,-2.000000000000000164e-05,6.000000000000000000e+00,1.100000000000000000e+01
3.145600000000000000e+04,-3.099999999999999999e-04,-4.000000000000000327e-05,0.000000000000000000e+00,2.999999999999999737e-05,-1.000000000000000048e-04,1.899999999999999834e-04,-3.799999999999999667e-04,-5.000000000000000240e-05,6.000000000000000000e+00,1.100000000000000000e+01
3.145700000000000000e+04,-3.099999999999999999e-04,-4.000000000000000327e-05,0.000000000000000000e+00,2.999999999999999737e-05,-1.000000000000000048e-04,1.899999999999999834e-04,-3.799999999999999667e-04,-5.000000000000000240e-05,6.000000000000000000e+00,1.100000000000000000e+01
3.145800000000000000e+04,-3.099999999999999999e-04,-4.000000000000000327e-05,0.000000000000000000e+00,2.999999999999999737e-05,-1.000000000000000048e-04,1.899999999999999834e-04,-3.799999999999999667e-04,-5.000000000000000240e-05,6.000000000000000000e+00,1.100000000000000000e+01
3.145900000000000000e+04,-3.099999999999999999e-04,-4.000000000000000327e-05,0.000000000000000000e+00,2.999999999999999737e-05,-1.000000000000000048e-04,1.899999999999999834e-04,-3.799999999999999667e-04,-5.000000000000000240e-05,6.000000000000000000e+00,1.100000000000000000e+01
3.146000000000000000e+04,-3.099999999999999999e-04,-4.000000000000000327e-05,0.000000000000000000e+00,2.999999999999999737e-05,-1.000000000000000048e-04,1.899999999999999834e-04,-3.799999999999999667e-04,-5.000000000000000240e-05,6.000000000000000000e+00,1.100000000000000000e+01
3.146100000000000000e+04,-3.099999999999999999e-04,-4.000000000000000327e-05,0.000000000000000000e+00,2.999999999999999737e-05,-1.000000000000000048e-04,1.899999999999999834e-04,-3.799999999999999667e-04,-5.000000000000000240e-05,6.000000000000000000e+00,1.100000000000000000e+01
3.146200000000000000e+04,-3.099999999999999999e-04,-4.000000000000000327e-05,0.000000000000000000e+00,2.999999999999999737e-05,-1.000000000000000048e-04,1.899999999999999834e-04,-3.799999999999999667e-04,-5.000000000000000240e-05,6.000000000000000000e+00,1.100000000000000000e+01
3.146300000000000000e+04,-3.099999999999999999e-04,-4.000000000000000327e-05,0.000000000000000000e+00,2.999999999999999737e-05,-1.000000000000000048e-04,1.899999999999999834e-04,-3.799999999999999667e-04,-5.000000000000000240e-05,6.000000000000000000e+00,1.100000000000000000e+01
3.146400000000000000e+04,-3.099999999999999999e-04,-4.000000000000000327e-05,0.000000000000000000e+00,2.999999999999999737e-05,-1.000000000000000048e-04,1.899999999999999834e-04,-3.799999999999999667e-04,-5.000000000000000240e-05,6.000000000000000000e+00,1.100000000000000000e+01
3.146500000000000000e+04,-3.099999999999999999e-04,-4.000000000000000327e-05,0.000000000000000000e+00,2.999999999999999737e-05,-1.000000000000000048e-04,1.899999999999999834e-04,-3.799999999999999667e-04,-5.000000000000000240e-05,6.000000000000000000e+00,1.100000000000000000e+01
3.146600000000000000e+04,-3.099999999999999999e-04,-4.000000000000000327e-05,0.000000000000000000e+00,2.999999999999999737e-05,-1.000000000000000048e-04,1.899999999999999834e-04,-3.799999999999999667e-04,-5.000000000000000240e-05,6.000000000000000000e+00,1.100000000000000000e+01
3.146700000000000000e+04,-3.099999999999999999e-04,-4.000000000000000327e-05,0.000000000000000000e+00,2.999999999999999737e-05,-1.000000000000000048e-04,1.899999999999999834e-04,-3.799999999999999667e-04,-5.000000000000000240e-05,6.000000000000000000e+00,1.100000000000000000e+01
3.146800000000000000e+04,-3.099999999999999999e-04,-4.000000000000000327e-05,0.000000000000000000e+00,2.999999999999999737e-05,-1.000000000000000048e-04,1.899999999999999834e-04,-3.799999999999999667e-04,-5.000000000000000240e-05,6.000000000000000000e+00,1.100000000000000000e+01
3.146900000000000000e+04,-3.099999999999999999e-04,-4.000000000000000327e-05,0.000000000000000000e+00,2.999999999999999737e-05,-1.000000000000000048e-04,1.899999999999999834e-04,-3.799999999999999667e-04,-5.000000000000000240e-05,6.000000000000000000e+00,1.100000000000000000e+01
3.147000000000000000e+04,-3.099999999999999999e-04,-4.000000000000000327e-05,0.000000000000000000e+00,2.999999999999999737e-05,-1.000000000000000048e-04,1.899999999999999834e-04,-3.799999999999999667e-04,-5.000000000000000240e-05,6.000000000000000000e+00,1.100000000000000000e+01
3.147100000000000000e+04,-3.099999999999999999e-04,-4.000000000000000327e-05,0.000000000000000000e+00,2.999999999999999737e-05,-1.000000000000000048e-04,1.899999999999999834e-04,-3.799999999999999667e-04,-5.000000000000000240e-05,6.000000000000000000e+00,1.100000000000000000e+01
3.147200000000000000e+04,-3.099999999999999999e-04,-4.000000000000000327e-05,0.000000000000000000e+00,2.999999999999999737e-05,-1.000000000000000048e-04,1.899999999999999834e-04,-3.799999999999999667e-04,-5.000000000000000240e-05,6.000000000000000000e+00,1.100000000000000000e+01
3.147300000000000000e+04,-3.099999999999999999e-04,-4.000000000000000327e-05,0.000000000000000000e+00,2.999999999999999737e-05,-1.000000000000000048e-04,1.899999999999999834e-04,-3.799999999999999667e-04,-5.000000000000000240e-05,6.000000000000000000e+00,1.100000000000000000e+01
3.147400000000000000e+04,-3.099999999999999999e-04,-4.000000000000000327e-05,0.000000000000000000e+00,2.999999999999999737e-05,-1.000000000000000048e-04,1.899999999999999834e-04,-3.799999999999999667e-04,-5.000000000000000240e-05,6.000000000000000000e+00,1.100000000000000000e+01
3.147500000000000000e+04,-3.099999999999999999e-04,-4.000000000000000327e-05,0.000000000000000000e+00,2.999999999999999737e-05,-1.000000000000000048e-04,1.899999999999999834e-04,-3.799999999999999667e-04,-5.000000000000000240e-05,6.000000000000000000e+00,1.100000000000000000e+01
3.147600000000000000e+04,-3.099999999999999999e-04,-4.000000000000000327e-05,0.000000000000000000e+00,2.999999999999999737e-05,-1.000000000000000048e-04,1.899999999999999834e-04,-3.799999999999999667e-04,-5.000000000000000240e-05,6.000000000000000000e+00,1.100000000000000000e+01
3.147700000000000000e+04,-3.099999999999999999e-04,-4.000000000000000327e-05,0.000000000000000000e+00,2.999999999999999737e-05,-1.000000000000000048e-04,1.899999999999999834e-04,-3.799999999999999667e-04,-5.000000000000000240e-05,6.000000000000000000e+00,1.100000000000000000e+01
3.147800000000000000e+04,5.599999999999999509e-04,0.000000000000000000e+00,5.999999999999999474e-05,-1.199999999999999895e-04,1.499999999999999869e-04,-1.100000000000000066e-03,-2.999999999999999737e-05,-6.999999999999999387e-05,6.000000000000000000e+00,1.100000000000000000e+01
3.147900000000000000e+04,6.199999999999999999e-04,2.999999999999999737e-05,1.000000000000000082e-05,-1.199999999999999895e-04,4.000000000000000327e-05,4.099999999999999912e-04,-6.799999999999999404e-04,-5.000000000000000240e-05,6.000000000000000000e+00,1.100000000000000000e+01
3.148000000000000000e+04,6.199999999999999999e-04,2.999999999999999737e-05,1.000000000000000082e-05,-1.199999999999999895e-04,4.000000000000000327e-05,4.099999999999999912e-04,-6.799999999999999404e-04,-5.000000000000000240e-05,6.000000000000000000e+00,1.100000000000000000e+01
3.148100000000000000e+04,6.199999999999999999e-04,2.999999999999999737e-05,1.000000000000000082e-05,-1.199999999999999895e-04,4.000000000000000327e-05,4.099999999999999912e-04,-6.799999999999999404e-04,-5.000000000000000240e-05,6.000000000000000000e+00,1.100000000000000000e+01
3.148200000000000000e+04,6.199999999999999999e-04,2.999999999999999737e-05,1.000000000000000082e-05,-1.199999999999999895e-04,4.000000000000000327e-05,4.099999999999999912e-04,-6.799999999999999404e-04,-5.000000000000000240e-05,6.000000000000000000e+00,1.100000000000000000e+01
3.148300000000000000e+04,6.199999999999999999e-04,2.999999999999999737e-05,1.000000000000000082e-05,-1.199999999999999895e-04,4.000000000000000327e-05,4.099999999999999912e-04,-6.799999999999999404e-04,-5.000000000000000240e-05,6.000000000000000000e+00,1.100000000000000000e+01
3.148400000000000000e+04,6.199999999999999999e-04,2.999999999999999737e-05,1.000000000000000082e-05,-1.199999999999999895e-04,4.000000000000000327e-05,4.099999999999999912e-04,-6.799999999999999404e-04,-5.000000000000000240e-05,6.000000000000000000e+00,1.100000000000000000e+01
3.148500000000000000e+04,6.199999999999999999e-04,2.999999999999999737e-05,1.000000000000000082e-05,-1.199999999999999895e-04,4.000000000000000327e-05,4.099999999999999912e-04,-6.799999999999999404e-04,-5.000000000000000240e-05,6.000000000000000000e+00,1.100000000000000000e+01
3.148700000000000000e+04,6.199999999999999999e-04,2.999999999999999737e-05,1.000000000000000082e-05,-1.199999999999999895e-04,4.000000000000000327e-05,4.099999999999999912e-04,-6.799999999999999404e-04,-5.000000000000000240e-05,6.000000000000000000e+00,1.100000000000000000e+01
3.148900000000000000e+04,6.199999999999999999e-04,2.999999999999999737e-05,1.000000000000000082e-05,-1.199999999999999895e-04,4.000000000000000327e-05,4.099999999999999912e-04,-6.799999999999999404e-04,-5.000000000000000240e-05,6.000000000000000000e+00,1.100000000000000000e+01
3.149000000000000000e+04,6.199999999999999999e-04,2.999999999999999737e-05,1.000000000000000082e-05,-1.199999999999999895e-04,4.000000000000000327e-05,4.099999999999999912e-04,-6.799999999999999404e-04,-5.000000000000000240e-05,6.000000000000000000e+00,1.100000000000000000e+01
3.149100000000000000e+04,6.199999999999999999e-04,2.999999999999999737e-05,1.000000000000000082e-05,-1.199999999999999895e-04,4.000000000000000327e-05,4.099999999999999912e-04,-6.799999999999999404e-04,-5.000000000000000240e-05,6.000000000000000000e+00,1.100000000000000000e+01
3.149200000000000000e+04,6.199999999999999999e-04,2.999999999999999737e-05,1.000000000000000082e-05,-1.199999999999999895e-04,4.000000000000000327e-05,4.099999999999999912e-04,-6.799999999999999404e-04,-5.000000000000000240e-05,6.000000000000000000e+00,1.100000000000000000e+01
3.149300000000000000e+04,6.199999999999999999e-04,2.999999999999999737e-05,1.000000000000000082e-05,-1.199999999999999895e-04,4.000000000000000327e-05,4.099999999999999912e-04,-6.799999999999999404e-04,-5.000000000000000240e-05,6.000000000000000000e+00,1.100000000000000000e+01
3.149400000000000000e+04,6.199999999999999999e-04,2.999999999999999737e-05,1.000000000000000082e-05,-1.199999999999999895e-04,4.000000000000000327e-05,4.099999999999999912e-04,-6.799999999999999404e-04,-5.000000000000000240e-05,6.000000000000000000e+00,1.100000000000000000e+01
3.149500000000000000e+04,6.199999999999999999e-04,2.999999999999999737e-05,1.000000000000000082e-05,-1.199999999999999895e-04,4.000000000000000327e-05,4.099999999999999912e-04,-6.799999999999999404e-04,-5.000000000000000240e-05,6.000000000000000000e+00,1.100000000000000000e+01
3.149600000000000000e+04,6.199999999999999999e-04,2.999999999999999737e-05,1.000000000000000082e-05,-1.199999999999999895e-04,4.000000000000000327e-05,4.099999999999999912e-04,-6.799999999999999404e-04,-5.000000000000000240e-05,6.000000000000000000e+00,1.100000000000000000e+01
3.149700000000000000e+04,6.199999999999999999e-04,2.999999999999999737e-05,1.000000000000000082e-05,-1.199999999999999895e-04,4.000000000000000327e-05,4.099999999999999912e-04,-6.799999999999999404e-04,-5.000000000000000240e-05,6.000000000000000000e+00,1.100000000000000000e+01
3.149800000000000000e+04,6.199999999999999999e-04,2.999999999999999737e-05,1.000000000000000082e-05,-1.199999999999999895e-04,4.000000000000000327e-05,4.099999999999999912e-04,-6.799999999999999404e-04,-5.000000000000000240e-05,6.000000000000000000e+00,1.100000000000000000e+01
3.149900000000000000e+04,6.199999999999999999e-04,2.999999999999999737e-05,1.000000000000000082e-05,-1.199999999999999895e-04,4.000000000000000327e-05,4.099999999999999912e-04,-6.799999999999999404e-04,-5.000000000000000240e-05,6.000000000000000000e+00,1.100000000000000000e+01
3.150000000000000000e+04,6.199999999999999999e-04,2.999999999999999737e-05,1.000000000000000082e-05,-1.199999999999999895e-04,4.000000000000000327e-05,4.099999999999999912e-04,-6.799999999999999404e-04,-5.000000000000000240e-05,6.000000000000000000e+00,1.100000000000000000e+01
3.150100000000000000e+04,0.000000000000000000e+00,-1.000000000000000082e-05,-2.000000000000000164e-05,1.199999999999999895e-04,-7.500000000000000156e-04,2.799999999999999755e-04,0.000000000000000000e+00,-6.999999999999999387e-05,6.000000000000000000e+00,1.100000000000000000e+01
3.150200000000000000e+04,1.100000000000000066e-03,-5.000000000000000240e-05,1.499999999999999869e-04,2.700000000000000035e-04,-1.000000000000000048e-04,3.799999999999999667e-04,3.499999999999999964e-04,4.200000000000000174e-04,6.000000000000000000e+00,1.100000000000000000e+01
