5.879000000000000000e+04,2.000000000000000164e-05,1.000000000000000082e-05,1.000000000000000082e-05,-4.899999999999999842e-04,-1.399999999999999877e-04,-4.000000000000000327e-05,-1.000000000000000082e-05,-1.000000000000000082e-05,4.000000000000000000e+00,2.100000000000000000e+01
5.879200000000000000e+04,2.000000000000000164e-05,1.000000000000000082e-05,1.000000000000000082e-05,-4.899999999999999842e-04,-1.399999999999999877e-04,-4.000000000000000327e-05,-1.000000000000000082e-05,-1.000000000000000082e-05,4.000000000000000000e+00,2.100000000000000000e+01
5.879300000000000000e+04,2.000000000000000164e-05,1.000000000000000082e-05,1.000000000000000082e-05,-4.899999999999999842e-04,-1.399999999999999877e-04,-4.000000000000000327e-05,-1.000000000000000082e-05,-1.000000000000000082e-05,4.000000000000000000e+00,2.100000000000000000e+01
5.879400000000000000e+04,2.000000000000000164e-05,1.000000000000000082e-05,1.000000000000000082e-05,-4.899999999999999842e-04,-1.399999999999999877e-04,-4.000000000000000327e-05,-1.000000000000000082e-05,-1.000000000000000082e-05,4.000000000000000000e+00,2.100000000000000000e+01
5.879500000000000000e+04,2.000000000000000164e-05,1.000000000000000082e-05,1.000000000000000082e-05,-4.899999999999999842e-04,-1.399999999999999877e-04,-4.000000000000000327e-05,-1.000000000000000082e-05,-1.000000000000000082e-05,4.000000000000000000e+00,2.100000000000000000e+01
5.879600000000000000e+04,2.000000000000000164e-05,1.000000000000000082e-05,1.000000000000000082e-05,-4.899999999999999842e-04,-1.399999999999999877e-04,-4.000000000000000327e-05,-1.000000000000000082e-05,-1.000000000000000082e-05,4.000000000000000000e+00,2.100000000000000000e+01
5.879700000000000000e+04,2.000000000000000164e-05,1.000000000000000082e-05,1.000000000000000082e-05,-4.899999999999999842e-04,-1.399999999999999877e-04,-4.000000000000000327e-05,-1.000000000000000082e-05,-1.000000000000000082e-05,4.000000000000000000e+00,2.100000000000000000e+01
5.879800000000000000e+04,2.000000000000000164e-05,1.000000000000000082e-05,1.000000000000000082e-05,-4.899999999999999842e-04,-1.399999999999999877e-04,-4.000000000000000327e-05,-1.000000000000000082e-05,-1.000000000000000082e-05,4.000000000000000000e+00,2.100000000000000000e+01
5.879900000000000000e+04,2.000000000000000164e-05,1.000000000000000082e-05,1.000000000000000082e-05,-4.899999999999999842e-04,-1.399999999999999877e-04,-4.000000000000000327e-05,-1.000000000000000082e-05,-1.000000000000000082e-05,4.000000000000000000e+00,2.100000000000000000e+01
5.880000000000000000e+04,2.000000000000000164e-05,1.000000000000000082e-05,1.000000000000000082e-05,-4.899999999999999842e-04,-1.399999999999999877e-04,-4.000000000000000327e-05,-1.000000000000000082e-05,-1.000000000000000082e-05,4.000000000000000000e+00,2.100000000000000000e+01
5.880100000000000000e+04,2.000000000000000164e-05,1.000000000000000082e-05,1.000000000000000082e-05,-4.899999999999999842e-04,-1.399999999999999877e-04,-4.000000000000000327e-05,-1.000000000000000082e-05,-1.000000000000000082e-05,4.000000000000000000e+00,2.100000000000000000e+01
5.880200000000000000e+04,-4.000000000000000327e-05,-6.999999999999999387e-05,-1.399999999999999877e-04,-2.399999999999999790e-04,2.000000000000000164e-05,-9.000000000000000567e-05,-9.000000000000000567e-05,-5.000000000000000240e-05,4.000000000000000000e+00,2.100000000000000000e+01
5.880300000000000000e+04,2.999999999999999737e-05,5.000000000000000240e-05,5.999999999999999474e-05,-1.800000000000000113e-04,1.499999999999999869e-04,1.699999999999999851e-04,5.999999999999999474e-05,5.000000000000000240e-05,4.000000000000000000e+00,2.100000000000000000e+01
5.880400000000000000e+04,-5.999999999999999474e-05,-5.999999999999999474e-05,-2.999999999999999737e-05,-1.000000000000000082e-05,-3.600000000000000227e-04,-2.000000000000000096e-04,-1.000000000000000048e-04,-6.999999999999999387e-05,4.000000000000000000e+00,2.100000000000000000e+01
5.880500000000000000e+04,-5.999999999999999474e-05,-5.999999999999999474e-05,-2.999999999999999737e-05,-1.000000000000000082e-05,-3.600000000000000227e-04,-2.000000000000000096e-04,-1.000000000000000048e-04,-6.999999999999999387e-05,4.000000000000000000e+00,2.100000000000000000e+01
5.880600000000000000e+04,-5.999999999999999474e-05,-5.999999999999999474e-05,-2.999999999999999737e-05,-1.000000000000000082e-05,-3.600000000000000227e-04,-2.000000000000000096e-04,-1.000000000000000048e-04,-6.999999999999999387e-05,4.000000000000000000e+00,2.100000000000000000e+01
5.880700000000000000e+04,-5.999999999999999474e-05,-5.999999999999999474e-05,-2.999999999999999737e-05,-1.000000000000000082e-05,-3.600000000000000227e-04,-2.000000000000000096e-04,-1.000000000000000048e-04,-6.999999999999999387e-05,4.000000000000000000e+00,2.100000000000000000e+01
5.880800000000000000e+04,-5.999999999999999474e-05,-5.999999999999999474e-05,-2.999999999999999737e-05,-1.000000000000000082e-05,-3.600000000000000227e-04,-2.000000000000000096e-04,-1.000000000000000048e-04,-6.999999999999999387e-05,4.000000000000000000e+00,2.100000000000000000e+01
5.880900000000000000e+04,-5.999999999999999474e-05,-5.999999999999999474e-05,-2.999999999999999737e-05,-1.000000000000000082e-05,-3.600000000000000227e-04,-2.000000000000000096e-04,-1.000000000000000048e-04,-6.999999999999999387e-05,4.000000000000000000e+00,2.100000000000000000e+01
5.881000000000000000e+04,-5.999999999999999474e-05,-5.999999999999999474e-05,-2.999999999999999737e-05,-1.000000000000000082e-05,-3.600000000000000227e-04,-2.000000000000000096e-04,-1.000000000000000048e-04,-6.999999999999999387e-05,4.000000000000000000e+00,2.100000000000000000e+01
5.881100000000000000e+04,-5.999999999999999474e-05,-5.999999999999999474e-05,-2.999999999999999737e-05,-1.000000000000000082e-05,-3.600000000000000227e-04,-2.000000000000000096e-04,-1.000000000000000048e-04,-6.999999999999999387e-05,4.000000000000000000e+00,2.100000000000000000e+01
5.881200000000000000e+04,-5.999999999999999474e-05,-5.999999999999999474e-05,-2.999999999999999737e-05,-1.000000000000000082e-05,-3.600000000000000227e-04,-2.000000000000000096e-04,-1.000000000000000048e-04,-6.999999999999999387e-05,4.000000000000000000e+00,2.100000000000000000e+01
5.881300000000000000e+04,-5.999999999999999474e-05,-5.999999999999999474e-05,-2.999999999999999737e-05,-1.000000000000000082e-05,-3.600000000000000227e-04,-2.000000000000000096e-04,-1.000000000000000048e-04,-6.999999999999999387e-05,4.000000000000000000e+00,2.100000000000000000e+01
5.881400000000000000e+04,-5.999999999999999474e-05,-5.999999999999999474e-05,-2.999999999999999737e-05,-1.000000000000000082e-05,-3.600000000000000227e-04,-2.000000000000000096e-04,-1.000000000000000048e-04,-6.999999999999999387e-05,4.000000000000000000e+00,2.100000000000000000e+01
5.881500000000000000e+04,-5.999999999999999474e-05,-5.999999999999999474e-05,-2.999999999999999737e-05,-1.000000000000000082e-05,-3.600000000000000227e-04,-2.000000000000000096e-04,-1.000000000000000048e-04,-6.999999999999999387e-05,4.000000000000000000e+00,2.100000000000000000e+01
5.881600000000000000e+04,0.000000000000000000e+00,1.000000000000000082e-05,-2.000000000000000164e-05,-2.900000000000000017e-04,-2.700000000000000035e-04,1.699999999999999851e-04,5.000000000000000240e-05,4.000000000000000327e-05,4.000000000000000000e+00,2.100000000000000000e+01
5.881700000000000000e+04,0.000000000000000000e+00,1.000000000000000082e-05,-2.000000000000000164e-05,-2.900000000000000017e-04,-2.700000000000000035e-04,1.699999999999999851e-04,5.000000000000000240e-05,4.000000000000000327e-05,4.000000000000000000e+00,2.100000000000000000e+01
5.881800000000000000e+04,0.000000000000000000e+00,1.000000000000000082e-05,-2.000000000000000164e-05,-2.900000000000000017e-04,-2.700000000000000035e-04,1.699999999999999851e-04,5.000000000000000240e-05,4.000000000000000327e-05,4.000000000000000000e+00,2.100000000000000000e+01
5.881900000000000000e+04,0.000000000000000000e+00,1.000000000000000082e-05,-2.000000000000000164e-05,-2.900000000000000017e-04,-2.700000000000000035e-04,1.699999999999999851e-04,5.000000000000000240e-05,4.000000000000000327e-05,4.000000000000000000e+00,2.100000000000000000e+01
5.882000000000000000e+04,0.000000000000000000e+00,1.000000000000000082e-05,-2.000000000000000164e-05,-2.900000000000000017e-04,-2.700000000000000035e-04,1.699999999999999851e-04,5.000000000000000240e-05,4.000000000000000327e-05,4.000000000000000000e+00,2.100000000000000000e+01
5.882100000000000000e+04,0.000000000000000000e+00,1.000000000000000082e-05,-2.000000000000000164e-05,-2.900000000000000017e-04,-2.700000000000000035e-04,1.699999999999999851e-04,5.000000000000000240e-05,4.000000000000000327e-05,4.000000000000000000e+00,2.100000000000000000e+01
5.882200000000000000e+04,0.000000000000000000e+00,1.000000000000000082e-05,-2.000000000000000164e-05,-2.900000000000000017e-04,-2.700000000000000035e-04,1.699999999999999851e-04,5.000000000000000240e-05,4.000000000000000327e-05,4.000000000000000000e+00,2.100000000000000000e+01
5.882300000000000000e+04,0.000000000000000000e+00,1.000000000000000082e-05,-2.000000000000000164e-05,-2.900000000000000017e-04,-2.700000000000000035e-04,1.699999999999999851e-04,5.000000000000000240e-05,4.000000000000000327e-05,4.000000000000000000e+00,2.100000000000000000e+01
5.882400000000000000e+04,-2.999999999999999737e-05,-4.000000000000000327e-05,-4.000000000000000327e-05,-1.800000000000000113e-04,-2.900000000000000017e-04,-1.399999999999999877e-04,-5.999999999999999474e-05,-2.999999999999999737e-05,4.000000000000000000e+00,2.100000000000000000e+01
5.882500000000000000e+04,-4.000000000000000327e-05,-8.000000000000000654e-05,-1.800000000000000113e-04,1.199999999999999895e-04,3.699999999999999947e-04,-9.000000000000000567e-05,-5.000000000000000240e-05,-2.999999999999999737e-05,4.000000000000000000e+00,2.100000000000000000e+01
5.882600000000000000e+04,-4.000000000000000327e-05,-8.000000000000000654e-05,-1.800000000000000113e-04,1.199999999999999895e-04,3.699999999999999947e-04,-9.000000000000000567e-05,-5.000000000000000240e-05,-2.999999999999999737e-05,4.000000000000000000e+00,2.100000000000000000e+01
5.882700000000000000e+04,-4.000000000000000327e-05,-8.000000000000000654e-05,-1.800000000000000113e-04,1.199999999999999895e-04,3.699999999999999947e-04,-9.000000000000000567e-05,-5.000000000000000240e-05,-2.999999999999999737e-05,4.000000000000000000e+00,2.100000000000000000e+01
5.882800000000000000e+04,-4.000000000000000327e-05,-8.000000000000000654e-05,-1.800000000000000113e-04,1.199999999999999895e-04,3.699999999999999947e-04,-9.000000000000000567e-05,-5.000000000000000240e-05,-2.999999999999999737e-05,4.000000000000000000e+00,2.100000000000000000e+01
5.882900000000000000e+04,-4.000000000000000327e-05,-8.000000000000000654e-05,-1.800000000000000113e-04,1.199999999999999895e-04,3.699999999999999947e-04,-9.000000000000000567e-05,-5.000000000000000240e-05,-2.999999999999999737e-05,4.000000000000000000e+00,2.100000000000000000e+01
5.883000000000000000e+04,-4.000000000000000327e-05,-8.000000000000000654e-05,-1.800000000000000113e-04,1.199999999999999895e-04,3.699999999999999947e-04,-9.000000000000000567e-05,-5.000000000000000240e-05,-2.999999999999999737e-05,4.000000000000000000e+00,2.100000000000000000e+01
5.883100000000000000e+04,-4.000000000000000327e-05,-8.000000000000000654e-05,-1.800000000000000113e-04,1.199999999999999895e-04,3.699999999999999947e-04,-9.000000000000000567e-05,-5.000000000000000240e-05,-2.999999999999999737e-05,4.000000000000000000e+00,2.100000000000000000e+01
5.883200000000000000e+04,-4.000000000000000327e-05,-8.000000000000000654e-05,-1.800000000000000113e-04,1.199999999999999895e-04,3.699999999999999947e-04,-9.000000000000000567e-05,-5.000000000000000240e-05,-2.999999999999999737e-05,4.000000000000000000e+00,2.100000000000000000e+01
5.883300000000000000e+04,-4.000000000000000327e-05,-8.000000000000000654e-05,-1.800000000000000113e-04,1.199999999999999895e-04,3.699999999999999947e-04,-9.000000000000000567e-05,-5.000000000000000240e-05,-2.999999999999999737e-05,4.000000000000000000e+00,2.100000000000000000e+01
5.883400000000000000e+04,-4.000000000000000327e-05,-8.000000000000000654e-05,-1.800000000000000113e-04,1.199999999999999895e-04,3.699999999999999947e-04,-9.000000000000000567e-05,-5.000000000000000240e-05,-2.999999999999999737e-05,4.000000000000000000e+00,2.100000000000000000e+01
5.883500000000000000e+04,-4.000000000000000327e-05,-8.000000000000000654e-05,-1.800000000000000113e-04,1.199999999999999895e-04,3.699999999999999947e-04,-9.000000000000000567e-05,-5.000000000000000240e-05,-2.999999999999999737e-05,4.000000000000000000e+00,2.100000000000000000e+01
5.883600000000000000e+04,-4.000000000000000327e-05,-8.000000000000000654e-05,-1.800000000000000113e-04,1.199999999999999895e-04,3.699999999999999947e-04,-9.000000000000000567e-05,-5.000000000000000240e-05,-2.999999999999999737e-05,4.000000000000000000e+00,2.100000000000000000e+01
5.883800000000000000e+04,-4.000000000000000327e-05,-8.000000000000000654e-05,-1.800000000000000113e-04,1.199999999999999895e-04,3.699999999999999947e-04,-9.000000000000000567e-05,-5.000000000000000240e-05,-2.999999999999999737e-05,4.000000000000000000e+00,2.100000000000000000e+01
5.883900000000000000e+04,4.000000000000000327e-05,2.000000000000000164e-05,4.000000000000000327e-05,-2.999999999999999737e-05,-9.000000000000000567e-05,1.499999999999999869e-04,1.000000000000000048e-04,2.000000000000000164e-05,4.000000000000000000e+00,2.100000000000000000e+01
5.884000000000000000e+04,1.000000000000000082e-05,0.000000000000000000e+00,2.000000000000000164e-05,1.100000000000000039e-04,-4.400000000000000157e-04,6.999999999999999387e-05,-2.000000000000000164e-05,0.000000000000000000e+00,4.000000000000000000e+00,2.100000000000000000e+01
5.884100000000000000e+04,-1.000000000000000082e-05,-1.000000000000000082e-05,-6.999999999999999387e-05,1.000000000000000048e-04,1.109999999999999876e-03,-1.399999999999999877e-04,0.000000000000000000e+00,-2.999999999999999737e-05,4.000000000000000000e+00,2.100000000000000000e+01
5.884200000000000000e+04,-1.000000000000000082e-05,-1.000000000000000082e-05,-6.999999999999999387e-05,1.000000000000000048e-04,1.109999999999999876e-03,-1.399999999999999877e-04,0.000000000000000000e+00,-2.999999999999999737e-05,4.000000000000000000e+00,2.100000000000000000e+01
5.884300000000000000e+04,-1.000000000000000082e-05,-1.000000000000000082e-05,-6.999999999999999387e-05,1.000000000000000048e-04,1.109999999999999876e-03,-1.399999999999999877e-04,0.000000000000000000e+00,-2.999999999999999737e-05,4.000000000000000000e+00,2.100000000000000000e+01
5.884400000000000000e+04,-1.000000000000000082e-05,-1.000000000000000082e-05,-6.999999999999999387e-05,1.000000000000000048e-04,1.109999999999999876e-03,-1.399999999999999877e-04,0.000000000000000000e+00,-2.999999999999999737e-05,4.000000000000000000e+00,2.100000000000000000e+01
5.884500000000000000e+04,-1.000000000000000082e-05,-1.000000000000000082e-05,-6.999999999999999387e-05,1.000000000000000048e-04,1.109999999999999876e-03,-1.399999999999999877e-04,0.000000000000000000e+00,-2.999999999999999737e-05,4.000000000000000000e+00,2.100000000000000000e+01
5.884600000000000000e+04,-1.000000000000000082e-05,-1.000000000000000082e-05,-6.999999999999999387e-05,1.000000000000000048e-04,1.109999999999999876e-03,-1.399999999999999877e-04,0.000000000000000000e+00,-2.999999999999999737e-05,4.000000000000000000e+00,2.100000000000000000e+01
5.884700000000000000e+04,-1.000000000000000082e-05,-1.000000000000000082e-05,-6.999999999999999387e-05,1.000000000000000048e-04,1.109999999999999876e-03,-1.399999999999999877e-04,0.000000000000000000e+00,-2.999999999999999737e-05,4.000000000000000000e+00,2.100000000000000000e+01
5.884800000000000000e+04,-1.000000000000000082e-05,-1.000000000000000082e-05,-6.999999999999999387e-05,1.000000000000000048e-04,1.109999999999999876e-03,-1.399999999999999877e-04,0.000000000000000000e+00,-2.999999999999999737e-05,4.000000000000000000e+00,2.100000000000000000e+01
5.884900000000000000e+04,-1.000000000000000082e-05,-1.000000000000000082e-05,-6.999999999999999387e-05,1.000000000000000048e-04,1.109999999999999876e-03,-1.399999999999999877e-04,0.000000000000000000e+00,-2.999999999999999737e-05,4.000000000000000000e+00,2.100000000000000000e+01
5.885000000000000000e+04,-1.000000000000000082e-05,-1.000000000000000082e-05,-6.999999999999999387e-05,1.000000000000000048e-04,1.109999999999999876e-03,-1.399999999999999877e-04,0.000000000000000000e+00,-2.999999999999999737e-05,4.000000000000000000e+00,2.100000000000000000e+01
5.885100000000000000e+04,-1.000000000000000082e-05,-1.000000000000000082e-05,-6.999999999999999387e-05,1.000000000000000048e-04,1.109999999999999876e-03,-1.399999999999999877e-04,0.000000000000000000e+00,-2.999999999999999737e-05,4.000000000000000000e+00,2.100000000000000000e+01
5.885200000000000000e+04,-1.000000000000000082e-05,-1.000000000000000082e-05,-6.999999999999999387e-05,1.000000000000000048e-04,1.109999999999999876e-03,-1.399999999999999877e-04,0.000000000000000000e+00,-2.999999999999999737e-05,4.000000000000000000e+00,2.100000000000000000e+01
5.885300000000000000e+04,-1.000000000000000082e-05,-1.000000000000000082e-05,-6.999999999999999387e-05,1.000000000000000048e-04,1.109999999999999876e-03,-1.399999999999999877e-04,0.000000000000000000e+00,-2.999999999999999737e-05,4.000000000000000000e+00,2.100000000000000000e+01
5.885400000000000000e+04,-1.000000000000000082e-05,-1.000000000000000082e-05,-6.999999999999999387e-05,1.000000000000000048e-04,1.109999999999999876e-03,-1.399999999999999877e-04,0.000000000000000000e+00,-2.999999999999999737e-05,4.000000000000000000e+00,2.100000000000000000e+01
5.885500000000000000e+04,-1.000000000000000082e-05,-1.000000000000000082e-05,-6.999999999999999387e-05,1.000000000000000048e-04,1.109999999999999876e-03,-1.399999999999999877e-04,0.000000000000000000e+00,-2.999999999999999737e-05,4.000000000000000000e+00,2.100000000000000000e+01
5.885600000000000000e+04,-1.000000000000000082e-05,-1.000000000000000082e-05,-6.999999999999999387e-05,1.000000000000000048e-04,1.109999999999999876e-03,-1.399999999999999877e-04,0.000000000000000000e+00,-2.999999999999999737e-05,4.000000000000000000e+00,2.100000000000000000e+01
5.885700000000000000e+04,-1.000000000000000082e-05,-1.000000000000000082e-05,-6.999999999999999387e-05,1.000000000000000048e-04,1.109999999999999876e-03,-1.399999999999999877e-04,0.000000000000000000e+00,-2.999999999999999737e-05,4.000000000000000000e+00,2.100000000000000000e+01
5.885800000000000000e+04,-1.000000000000000082e-05,-1.000000000000000082e-05,-6.999999999999999387e-05,1.000000000000000048e-04,1.109999999999999876e-03,-1.399999999999999877e-04,0.000000000000000000e+00,-2.999999999999999737e-05,4.000000000000000000e+00,2.100000000000000000e+01
5.885900000000000000e+04,-1.000000000000000082e-05,-1.000000000000000082e-05,-6.999999999999999387e-05,1.000000000000000048e-04,1.109999999999999876e-03,-1.399999999999999877e-04,0.000000000000000000e+00,-2.999999999999999737e-05,4.000000000000000000e+00,2.100000000000000000e+01
5.886000000000000000e+04,-1.000000000000000082e-05,-1.000000000000000082e-05,-6.999999999999999387e-05,1.000000000000000048e-04,1.109999999999999876e-03,-1.399999999999999877e-04,0.000000000000000000e+00,-2.999999999999999737e-05,4.000000000000000000e+00,2.100000000000000000e+01
5.886100000000000000e+04,-1.000000000000000082e-05,-1.000000000000000082e-05,-6.999999999999999387e-05,1.000000000000000048e-04,1.109999999999999876e-03,-1.399999999999999877e-04,0.000000000000000000e+00,-2.999999999999999737e-05,4.000000000000000000e+00,2.100000000000000000e+01
5.886200000000000000e+04,1.000000000000000082e-05,-2.000000000000000164e-05,-1.300000000000000157e-04,-4.799999999999999580e-04,-9.699999999999999421e-04,-2.700000000000000035e-04,-9.000000000000000567e-05,-2.000000000000000164e-05,4.000000000000000000e+00,2.100000000000000000e+01
5.886300000000000000e+04,-4.000000000000000327e-05,5.999999999999999474e-05,1.499999999999999869e-04,4.799999999999999580e-04,4.200000000000000174e-04,1.699999999999999851e-04,1.000000000000000082e-05,0.000000000000000000e+00,4.000000000000000000e+00,2.100000000000000000e+01
5.886400000000000000e+04,-4.000000000000000327e-05,-1.000000000000000048e-04,-1.600000000000000131e-04,1.600000000000000131e-04,1.199999999999999895e-04,1.300000000000000157e-04,-2.000000000000000164e-05,-2.999999999999999737e-05,4.000000000000000000e+00,2.100000000000000000e+01
5.886500000000000000e+04,-4.000000000000000327e-05,-1.000000000000000048e-04,-1.600000000000000131e-04,1.600000000000000131e-04,1.199999999999999895e-04,1.300000000000000157e-04,-2.000000000000000164e-05,-2.999999999999999737e-05,4.000000000000000000e+00,2.100000000000000000e+01
5.886600000000000000e+04,-4.000000000000000327e-05,-1.000000000000000048e-04,-1.600000000000000131e-04,1.600000000000000131e-04,1.199999999999999895e-04,1.300000000000000157e-04,-2.000000000000000164e-05,-2.999999999999999737e-05,4.000000000000000000e+00,2.100000000000000000e+01
5.886700000000000000e+04,-4.000000000000000327e-05,-1.000000000000000048e-04,-1.600000000000000131e-04,1.600000000000000131e-04,1.199999999999999895e-04,1.300000000000000157e-04,-2.000000000000000164e-05,-2.999999999999999737e-05,4.000000000000000000e+00,2.100000000000000000e+01
5.886800000000000000e+04,-4.000000000000000327e-05,-1.000000000000000048e-04,-1.600000000000000131e-04,1.600000000000000131e-04,1.199999999999999895e-04,1.300000000000000157e-04,-2.000000000000000164e-05,-2.999999999999999737e-05,4.000000000000000000e+00,2.100000000000000000e+01
5.886900000000000000e+04,-4.000000000000000327e-05,-1.000000000000000048e-04,-1.600000000000000131e-04,1.600000000000000131e-04,1.199999999999999895e-04,1.300000000000000157e-04,-2.000000000000000164e-05,-2.999999999999999737e-05,4.000000000000000000e+00,2.100000000000000000e+01
5.887000000000000000e+04,-4.000000000000000327e-05,-1.000000000000000048e-04,-1.600000000000000131e-04,1.600000000000000131e-04,1.199999999999999895e-04,1.300000000000000157e-04,-2.000000000000000164e-05,-2.999999999999999737e-05,4.000000000000000000e+00,2.100000000000000000e+01
5.887100000000000000e+04,-4.000000000000000327e-05,-1.000000000000000048e-04,-1.600000000000000131e-04,1.600000000000000131e-04,1.199999999999999895e-04,1.300000000000000157e-04,-2.000000000000000164e-05,-2.999999999999999737e-05,4.000000000000000000e+00,2.100000000000000000e+01
5.887200000000000000e+04,-4.000000000000000327e-05,-1.000000000000000048e-04,-1.600000000000000131e-04,1.600000000000000131e-04,1.199999999999999895e-04,1.300000000000000157e-04,-2.000000000000000164e-05,-2.999999999999999737e-05,4.000000000000000000e+00,2.100000000000000000e+01
5.887300000000000000e+04,-4.000000000000000327e-05,-1.000000000000000048e-04,-1.600000000000000131e-04,1.600000000000000131e-04,1.199999999999999895e-04,1.300000000000000157e-04,-2.000000000000000164e-05,-2.999999999999999737e-05,4.000000000000000000e+00,2.100000000000000000e+01
5.887400000000000000e+04,-4.000000000000000327e-05,-1.000000000000000048e-04,-1.600000000000000131e-04,1.600000000000000131e-04,1.199999999999999895e-04,1.300000000000000157e-04,-2.000000000000000164e-05,-2.999999999999999737e-05,4.000000000000000000e+00,2.100000000000000000e+01
5.887500000000000000e+04,-4.000000000000000327e-05,-1.000000000000000048e-04,-1.600000000000000131e-04,1.600000000000000131e-04,1.199999999999999895e-04,1.300000000000000157e-04,-2.000000000000000164e-05,-2.999999999999999737e-05,4.000000000000000000e+00,2.100000000000000000e+01
5.887600000000000000e+04,2.999999999999999737e-05,5.999999999999999474e-05,1.199999999999999895e-04,2.700000000000000035e-04,-2.100000000000000087e-04,1.499999999999999869e-04,4.000000000000000327e-05,2.999999999999999737e-05,4.000000000000000000e+00,2.100000000000000000e+01
5.887700000000000000e+04,2.999999999999999737e-05,5.999999999999999474e-05,1.199999999999999895e-04,2.700000000000000035e-04,-2.100000000000000087e-04,1.499999999999999869e-04,4.000000000000000327e-05,2.999999999999999737e-05,4.000000000000000000e+00,2.100000000000000000e+01
5.887800000000000000e+04,2.999999999999999737e-05,5.999999999999999474e-05,1.199999999999999895e-04,2.700000000000000035e-04,-2.100000000000000087e-04,1.499999999999999869e-04,4.000000000000000327e-05,2.999999999999999737e-05,4.000000000000000000e+00,2.100000000000000000e+01
5.887900000000000000e+04,2.999999999999999737e-05,5.999999999999999474e-05,1.199999999999999895e-04,2.700000000000000035e-04,-2.100000000000000087e-04,1.499999999999999869e-04,4.000000000000000327e-05,2.999999999999999737e-05,4.000000000000000000e+00,2.100000000000000000e+01
5.888000000000000000e+04,2.999999999999999737e-05,5.999999999999999474e-05,1.199999999999999895e-04,2.700000000000000035e-04,-2.100000000000000087e-04,1.499999999999999869e-04,4.000000000000000327e-05,2.999999999999999737e-05,4.000000000000000000e+00,2.100000000000000000e+01
5.888100000000000000e+04,2.999999999999999737e-05,5.999999999999999474e-05,1.199999999999999895e-04,2.700000000000000035e-04,-2.100000000000000087e-04,1.499999999999999869e-04,4.000000000000000327e-05,2.999999999999999737e-05,4.000000000000000000e+00,2.100000000000000000e+01
5.888200000000000000e+04,2.999999999999999737e-05,5.999999999999999474e-05,1.199999999999999895e-04,2.700000000000000035e-04,-2.100000000000000087e-04,1.499999999999999869e-04,4.000000000000000327e-05,2.999999999999999737e-05,4.000000000000000000e+00,2.100000000000000000e+01
5.888300000000000000e+04,2.999999999999999737e-05,5.999999999999999474e-05,1.199999999999999895e-04,2.700000000000000035e-04,-2.100000000000000087e-04,1.499999999999999869e-04,4.000000000000000327e-05,2.999999999999999737e-05,4.000000000000000000e+00,2.100000000000000000e+01
5.888400000000000000e+04,-1.000000000000000082e-05,-2.000000000000000164e-05,-5.000000000000000240e-05,1.000000000000000048e-04,4.000000000000000327e-05,-1.399999999999999877e-04,-2.999999999999999737e-05,-1.000000000000000082e-05,4.000000000000000000e+00,2.100000000000000000e+01
5.888500000000000000e+04,-2.000000000000000164e-05,2.999999999999999737e-05,4.000000000000000327e-05,1.000000000000000082e-05,-2.399999999999999790e-04,-1.199999999999999895e-04,-4.000000000000000327e-05,-2.000000000000000164e-05,4.000000000000000000e+00,2.100000000000000000e+01
5.888600000000000000e+04,-2.000000000000000164e-05,2.999999999999999737e-05,4.000000000000000327e-05,1.000000000000000082e-05,-2.399999999999999790e-04,-1.199999999999999895e-04,-4.000000000000000327e-05,-2.000000000000000164e-05,4.000000000000000000e+00,2.100000000000000000e+01
5.888800000000000000e+04,-2.000000000000000164e-05,2.999999999999999737e-05,4.000000000000000327e-05,1.000000000000000082e-05,-2.399999999999999790e-04,-1.199999999999999895e-04,-4.000000000000000327e-05,-2.000000000000000164e-05,4.000000000000000000e+00,2.100000000000000000e+01
5.888900000000000000e+04,-2.000000000000000164e-05,2.999999999999999737e-05,4.000000000000000327e-05,1.000000000000000082e-05,-2.399999999999999790e-04,-1.199999999999999895e-04,-4.000000000000000327e-05,-2.000000000000000164e-05,4.000000000000000000e+00,2.100000000000000000e+01
5.889000000000000000e+04,-2.000000000000000164e-05,2.999999999999999737e-05,4.000000000000000327e-05,1.000000000000000082e-05,-2.399999999999999790e-04,-1.199999999999999895e-04,-4.000000000000000327e-05,-2.000000000000000164e-05,4.000000000000000000e+00,2.100000000000000000e+01
5.889100000000000000e+04,-2.000000000000000164e-05,2.999999999999999737e-05,4.000000000000000327e-05,1.000000000000000082e-05,-2.399999999999999790e-04,-1.199999999999999895e-04,-4.000000000000000327e-05,-2.000000000000000164e-05,4.000000000000000000e+00,2.100000000000000000e+01
5.889200000000000000e+04,-2.000000000000000164e-05,2.999999999999999737e-05,4.000000000000000327e-05,1.000000000000000082e-05,-2.399999999999999790e-04,-1.199999999999999895e-04,-4.000000000000000327e-05,-2.000000000000000164e-05,4.000000000000000000e+00,2.100000000000000000e+01
5.889300000000000000e+04,-2.000000000000000164e-05,2.999999999999999737e-05,4.000000000000000327e-05,1.000000000000000082e-05,-2.399999999999999790e-04,-1.199999999999999895e-04,-4.000000000000000327e-05,-2.000000000000000164e-05,4.000000000000000000e+00,2.100000000000000000e+01
5.889400000000000000e+04,-2.000000000000000164e-05,2.999999999999999737e-05,4.000000000000000327e-05,1.000000000000000082e-05,-2.399999999999999790e-04,-1.199999999999999895e-04,-4.000000000000000327e-05,-2.000000000000000164e-05,4.000000000000000000e+00,2.100000000000000000e+01
5.889500000000000000e+04,-2.000000000000000164e-05,2.999999999999999737e-05,4.000000000000000327e-05,1.000000000000000082e-05,-2.399999999999999790e-04,-1.199999999999999895e-04,-4.000000000000000327e-05,-2.000000000000000164e-05,4.000000000000000000e+00,2.100000000000000000e+01
5.889600000000000000e+04,-2.000000000000000164e-05,2.999999999999999737e-05,4.000000000000000327e-05,1.000000000000000082e-05,-2.399999999999999790e-04,-1.199999999999999895e-04,-4.000000000000000327e-05,-2.000000000000000164e-05,4.000000000000000000e+00,2.100000000000000000e+01
5.889700000000000000e+04,-2.000000000000000164e-05,2.999999999999999737e-05,4.000000000000000327e-05,1.000000000000000082e-05,-2.399999999999999790e-04,-1.199999999999999895e-04,-4.000000000000000327e-05,-2.000000000000000164e-05,4.000000000000000000e+00,2.100000000000000000e+01
5.889800000000000000e+04,-2.000000000000000164e-05,2.999999999999999737e-05,4.000000000000000327e-05,1.000000000000000082e-05,-2.399999999999999790e-04,-1.199999999999999895e-04,-4.000000000000000327e-05,-2.000000000000000164e-05,4.000000000000000000e+00,2.100000000000000000e+01
5.889900000000000000e+04,0.000000000000000000e+00,-1.000000000000000082e-05,-2.000000000000000164e-05,-9.100000000000000016e-04,-7.399999999999999894e-04,-5.000000000000000240e-05,2.000000000000000164e-05,2.000000000000000164e-05,4.000000000000000000e+00,2.100000000000000000e+01
5.890000000000000000e+04,-5.000000000000000240e-05,-6.999999999999999387e-05,-1.300000000000000157e-04,3.299999999999999982e-04,-1.000000000000000082e-05,-2.000000000000000096e-04,-4.000000000000000327e-05,-5.999999999999999474e-05,4.000000000000000000e+00,2.100000000000000000e+01
5.890100000000000000e+04,2.000000000000000164e-05,5.000000000000000240e-05,1.100000000000000039e-04,1.300000000000000157e-04,2.200000000000000078e-04,2.999999999999999737e-04,5.999999999999999474e-05,1.000000000000000082e-05,4.000000000000000000e+00,2.100000000000000000e+01
5.890200000000000000e+04,2.000000000000000164e-05,5.000000000000000240e-05,1.100000000000000039e-04,1.300000000000000157e-04,2.200000000000000078e-04,2.999999999999999737e-04,5.999999999999999474e-05,1.000000000000000082e-05,4.000000000000000000e+00,2.100000000000000000e+01
5.890300000000000000e+04,2.000000000000000164e-05,5.000000000000000240e-05,1.100000000000000039e-04,1.300000000000000157e-04,2.200000000000000078e-04,2.999999999999999737e-04,5.999999999999999474e-05,1.000000000000000082e-05,4.000000000000000000e+00,2.100000000000000000e+01
5.890400000000000000e+04,2.000000000000000164e-05,5.000000000000000240e-05,1.100000000000000039e-04,1.300000000000000157e-04,2.200000000000000078e-04,2.999999999999999737e-04,5.999999999999999474e-05,1.000000000000000082e-05,4.000000000000000000e+00,2.100000000000000000e+01
5.890500000000000000e+04,2.000000000000000164e-05,5.000000000000000240e-05,1.100000000000000039e-04,1.300000000000000157e-04,2.200000000000000078e-04,2.999999999999999737e-04,5.999999999999999474e-05,1.000000000000000082e-05,4.000000000000000000e+00,2.100000000000000000e+01
5.890600000000000000e+04,2.000000000000000164e-05,5.000000000000000240e-05,1.100000000000000039e-04,1.300000000000000157e-04,2.200000000000000078e-04,2.999999999999999737e-04,5.999999999999999474e-05,1.000000000000000082e-05,4.000000000000000000e+00,2.100000000000000000e+01
5.890700000000000000e+04,2.000000000000000164e-05,5.000000000000000240e-05,1.100000000000000039e-04,1.300000000000000157e-04,2.200000000000000078e-04,2.999999999999999737e-04,5.999999999999999474e-05,1.000000000000000082e-05,4.000000000000000000e+00,2.100000000000000000e+01
5.890800000000000000e+04,2.000000000000000164e-05,5.000000000000000240e-05,1.100000000000000039e-04,1.300000000000000157e-04,2.200000000000000078e-04,2.999999999999999737e-04,5.999999999999999474e-05,1.000000000000000082e-05,4.000000000000000000e+00,2.100000000000000000e+01
5.890900000000000000e+04,2.000000000000000164e-05,5.000000000000000240e-05,1.100000000000000039e-04,1.300000000000000157e-04,2.200000000000000078e-04,2.999999999999999737e-04,5.999999999999999474e-05,1.000000000000000082e-05,4.000000000000000000e+00,2.100000000000000000e+01
5.891000000000000000e+04,2.000000000000000164e-05,5.000000000000000240e-05,1.100000000000000039e-04,1.300000000000000157e-04,2.200000000000000078e-04,2.999999999999999737e-04,5.999999999999999474e-05,1.000000000000000082e-05,4.000000000000000000e+00,2.100000000000000000e+01
5.891100000000000000e+04,2.000000000000000164e-05,5.000000000000000240e-05,1.100000000000000039e-04,1.300000000000000157e-04,2.200000000000000078e-04,2.999999999999999737e-04,5.999999999999999474e-05,1.000000000000000082e-05,4.000000000000000000e+00,2.100000000000000000e+01
5.891200000000000000e+04,2.000000000000000164e-05,5.000000000000000240e-05,1.100000000000000039e-04,1.300000000000000157e-04,2.200000000000000078e-04,2.999999999999999737e-04,5.999999999999999474e-05,1.000000000000000082e-05,4.000000000000000000e+00,2.100000000000000000e+01
5.891300000000000000e+04,2.000000000000000164e-05,5.000000000000000240e-05,1.100000000000000039e-04,1.300000000000000157e-04,2.200000000000000078e-04,2.999999999999999737e-04,5.999999999999999474e-05,1.000000000000000082e-05,4.000000000000000000e+00,2.100000000000000000e+01
5.891400000000000000e+04,2.000000000000000164e-05,5.000000000000000240e-05,1.100000000000000039e-04,1.300000000000000157e-04,2.200000000000000078e-04,2.999999999999999737e-04,5.999999999999999474e-05,1.000000000000000082e-05,4.000000000000000000e+00,2.100000000000000000e+01
5.891500000000000000e+04,2.000000000000000164e-05,5.000000000000000240e-05,1.100000000000000039e-04,1.300000000000000157e-04,2.200000000000000078e-04,2.999999999999999737e-04,5.999999999999999474e-05,1.000000000000000082e-05,4.000000000000000000e+00,2.100000000000000000e+01
5.891600000000000000e+04,2.000000000000000164e-05,5.000000000000000240e-05,1.100000000000000039e-04,1.300000000000000157e-04,2.200000000000000078e-04,2.999999999999999737e-04,5.999999999999999474e-05,1.000000000000000082e-05,4.000000000000000000e+00,2.100000000000000000e+01
5.891700000000000000e+04,2.000000000000000164e-05,5.000000000000000240e-05,1.100000000000000039e-04,1.300000000000000157e-04,2.200000000000000078e-04,2.999999999999999737e-04,5.999999999999999474e-05,1.000000000000000082e-05,4.000000000000000000e+00,2.100000000000000000e+01
5.891800000000000000e+04,2.000000000000000164e-05,5.000000000000000240e-05,1.100000000000000039e-04,1.300000000000000157e-04,2.200000000000000078e-04,2.999999999999999737e-04,5.999999999999999474e-05,1.000000000000000082e-05,4.000000000000000000e+00,2.100000000000000000e+01
5.891900000000000000e+04,2.000000000000000164e-05,5.000000000000000240e-05,1.100000000000000039e-04,1.300000000000000157e-04,2.200000000000000078e-04,2.999999999999999737e-04,5.999999999999999474e-05,1.000000000000000082e-05,4.000000000000000000e+00,2.100000000000000000e+01
5.892000000000000000e+04,2.000000000000000164e-05,5.000000000000000240e-05,1.100000000000000039e-04,1.300000000000000157e-04,2.200000000000000078e-04,2.999999999999999737e-04,5.999999999999999474e-05,1.000000000000000082e-05,4.000000000000000000e+00,2.100000000000000000e+01
5.892100000000000000e+04,2.000000000000000164e-05,5.000000000000000240e-05,1.100000000000000039e-04,1.300000000000000157e-04,2.200000000000000078e-04,2.999999999999999737e-04,5.999999999999999474e-05,1.000000000000000082e-05,4.000000000000000000e+00,2.100000000000000000e+01
5.892200000000000000e+04,2.000000000000000164e-05,6.999999999999999387e-05,2.399999999999999790e-04,1.600000000000000131e-04,-6.499999999999999702e-04,-4.000000000000000327e-05,1.000000000000000082e-05,2.999999999999999737e-05,4.000000000000000000e+00,2.100000000000000000e+01
5.892300000000000000e+04,2.000000000000000164e-05,-2.000000000000000164e-05,-5.999999999999999474e-05,1.399999999999999877e-04,-3.600000000000000227e-04,1.499999999999999869e-04,4.000000000000000327e-05,2.000000000000000164e-05,4.000000000000000000e+00,2.100000000000000000e+01
5.892400000000000000e+04,-4.000000000000000327e-05,-5.000000000000000240e-05,-2.999999999999999737e-05,6.999999999999999387e-05,2.900000000000000017e-04,-1.300000000000000157e-04,-4.000000000000000327e-05,-1.000000000000000082e-05,4.000000000000000000e+00,2.100000000000000000e+01
5.892500000000000000e+04,-4.000000000000000327e-05,-5.000000000000000240e-05,-2.999999999999999737e-05,6.999999999999999387e-05,2.900000000000000017e-04,-1.300000000000000157e-04,-4.000000000000000327e-05,-1.000000000000000082e-05,4.000000000000000000e+00,2.100000000000000000e+01
5.892600000000000000e+04,-4.000000000000000327e-05,-5.000000000000000240e-05,-2.999999999999999737e-05,6.999999999999999387e-05,2.900000000000000017e-04,-1.300000000000000157e-04,-4.000000000000000327e-05,-1.000000000000000082e-05,4.000000000000000000e+00,2.100000000000000000e+01
5.892700000000000000e+04,-4.000000000000000327e-05,-5.000000000000000240e-05,-2.999999999999999737e-05,6.999999999999999387e-05,2.900000000000000017e-04,-1.300000000000000157e-04,-4.000000000000000327e-05,-1.000000000000000082e-05,4.000000000000000000e+00,2.100000000000000000e+01
5.892800000000000000e+04,-4.000000000000000327e-05,-5.000000000000000240e-05,-2.999999999999999737e-05,6.999999999999999387e-05,2.900000000000000017e-04,-1.300000000000000157e-04,-4.000000000000000327e-05,-1.000000000000000082e-05,4.000000000000000000e+00,2.100000000000000000e+01
5.892900000000000000e+04,-4.000000000000000327e-05,-5.000000000000000240e-05,-2.999999999999999737e-05,6.999999999999999387e-05,2.900000000000000017e-04,-1.300000000000000157e-04,-4.000000000000000327e-05,-1.000000000000000082e-05,4.000000000000000000e+00,2.100000000000000000e+01
5.893000000000000000e+04,-4.000000000000000327e-05,-5.000000000000000240e-05,-2.999999999999999737e-05,6.999999999999999387e-05,2.900000000000000017e-04,-1.300000000000000157e-04,-4.000000000000000327e-05,-1.000000000000000082e-05,4.000000000000000000e+00,2.100000000000000000e+01
5.893100000000000000e+04,-4.000000000000000327e-05,-5.000000000000000240e-05,-2.999999999999999737e-05,6.999999999999999387e-05,2.900000000000000017e-04,-1.300000000000000157e-04,-4.000000000000000327e-05,-1.000000000000000082e-05,4.000000000000000000e+00,2.100000000000000000e+01
5.893200000000000000e+04,-4.000000000000000327e-05,-5.000000000000000240e-05,-2.999999999999999737e-05,6.999999999999999387e-05,2.900000000000000017e-04,-1.300000000000000157e-04,-4.000000000000000327e-05,-1.000000000000000082e-05,4.000000000000000000e+00,2.100000000000000000e+01
5.893300000000000000e+04,-4.000000000000000327e-05,-5.000000000000000240e-05,-2.999999999999999737e-05,6.999999999999999387e-05,2.900000000000000017e-04,-1.300000000000000157e-04,-4.000000000000000327e-05,-1.000000000000000082e-05,4.000000000000000000e+00,2.100000000000000000e+01
5.893400000000000000e+04,-4.000000000000000327e-05,-5.000000000000000240e-05,-2.999999999999999737e-05,6.999999999999999387e-05,2.900000000000000017e-04,-1.300000000000000157e-04,-4.000000000000000327e-05,-1.000000000000000082e-05,4.000000000000000000e+00,2.100000000000000000e+01
5.893500000000000000e+04,-4.000000000000000327e-05,-5.000000000000000240e-05,-2.999999999999999737e-05,6.999999999999999387e-05,2.900000000000000017e-04,-1.300000000000000157e-04,-4.000000000000000327e-05,-1.000000000000000082e-05,4.000000000000000000e+00,2.100000000000000000e+01
5.893600000000000000e+04,-4.000000000000000327e-05,-5.000000000000000240e-05,-2.999999999999999737e-05,6.999999999999999387e-05,2.900000000000000017e-04,-1.300000000000000157e-04,-4.000000000000000327e-05,-1.000000000000000082e-05,4.000000000000000000e+00,2.100000000000000000e+01
5.893800000000000000e+04,-4.000000000000000327e-05,-5.000000000000000240e-05,-2.999999999999999737e-05,6.999999999999999387e-05,2.900000000000000017e-04,-1.300000000000000157e-04,-4.000000000000000327e-05,-1.000000000000000082e-05,4.000000000000000000e+00,2.100000000000000000e+01
5.893900000000000000e+04,-4.000000000000000327e-05,-5.000000000000000240e-05,-2.999999999999999737e-05,6.999999999999999387e-05,2.900000000000000017e-04,-1.300000000000000157e-04,-4.000000000000000327e-05,-1.000000000000000082e-05,4.000000000000000000e+00,2.100000000000000000e+01
5.894000000000000000e+04,-4.000000000000000327e-05,-5.000000000000000240e-05,-2.999999999999999737e-05,6.999999999999999387e-05,2.900000000000000017e-04,-1.300000000000000157e-04,-4.000000000000000327e-05,-1.000000000000000082e-05,4.000000000000000000e+00,2.100000000000000000e+01
5.894100000000000000e+04,-4.000000000000000327e-05,-5.000000000000000240e-05,-2.999999999999999737e-05,6.999999999999999387e-05,2.900000000000000017e-04,-1.300000000000000157e-04,-4.000000000000000327e-05,-1.000000000000000082e-05,4.000000000000000000e+00,2.100000000000000000e+01
5.894200000000000000e+04,-4.000000000000000327e-05,-5.000000000000000240e-05,-2.999999999999999737e-05,6.999999999999999387e-05,2.900000000000000017e-04,-1.300000000000000157e-04,-4.000000000000000327e-05,-1.000000000000000082e-05,4.000000000000000000e+00,2.100000000000000000e+01
5.894300000000000000e+04,-4.000000000000000327e-05,-5.000000000000000240e-05,-2.999999999999999737e-05,6.999999999999999387e-05,2.900000000000000017e-04,-1.300000000000000157e-04,-4.000000000000000327e-05,-1.000000000000000082e-05,4.000000000000000000e+00,2.100000000000000000e+01
5.894400000000000000e+04,2.999999999999999737e-05,4.000000000000000327e-05,2.999999999999999737e-05,2.799999999999999755e-04,-1.499999999999999869e-04,-5.000000000000000240e-05,-1.000000000000000082e-05,0.000000000000000000e+00,4.000000000000000000e+00,2.100000000000000000e+01
5.894500000000000000e+04,-2.999999999999999737e-05,-4.000000000000000327e-05,-9.000000000000000567e-05,-4.799999999999999580e-04,-4.000000000000000192e-04,-1.699999999999999851e-04,-2.999999999999999737e-05,-4.000000000000000327e-05,4.000000000000000000e+00,2.100000000000000000e+01
5.894600000000000000e+04,4.000000000000000327e-05,4.000000000000000327e-05,5.999999999999999474e-05,-2.999999999999999737e-04,-1.219999999999999947e-03,1.300000000000000157e-04,2.000000000000000164e-05,2.000000000000000164e-05,4.000000000000000000e+00,2.100000000000000000e+01
5.894700000000000000e+04,4.000000000000000327e-05,4.000000000000000327e-05,5.999999999999999474e-05,-2.999999999999999737e-04,-1.219999999999999947e-03,1.300000000000000157e-04,2.000000000000000164e-05,2.000000000000000164e-05,4.000000000000000000e+00,2.100000000000000000e+01
5.894800000000000000e+04,4.000000000000000327e-05,4.000000000000000327e-05,5.999999999999999474e-05,-2.999999999999999737e-04,-1.219999999999999947e-03,1.300000000000000157e-04,2.000000000000000164e-05,2.000000000000000164e-05,4.000000000000000000e+00,2.100000000000000000e+01
5.894900000000000000e+04,4.000000000000000327e-05,4.000000000000000327e-05,5.999999999999999474e-05,-2.999999999999999737e-04,-1.219999999999999947e-03,1.300000000000000157e-04,2.000000000000000164e-05,2.000000000000000164e-05,4.000000000000000000e+00,2.100000000000000000e+01
5.895000000000000000e+04,4.000000000000000327e-05,4.000000000000000327e-05,5.999999999999999474e-05,-2.999999999999999737e-04,-1.219999999999999947e-03,1.300000000000000157e-04,2.000000000000000164e-05,2.000000000000000164e-05,4.000000000000000000e+00,2.100000000000000000e+01
5.895100000000000000e+04,4.000000000000000327e-05,4.000000000000000327e-05,5.999999999999999474e-05,-2.999999999999999737e-04,-1.219999999999999947e-03,1.300000000000000157e-04,2.000000000000000164e-05,2.000000000000000164e-05,4.000000000000000000e+00,2.100000000000000000e+01
5.895200000000000000e+04,4.000000000000000327e-05,4.000000000000000327e-05,5.999999999999999474e-05,-2.999999999999999737e-04,-1.219999999999999947e-03,1.300000000000000157e-04,2.000000000000000164e-05,2.000000000000000164e-05,4.000000000000000000e+00,2.100000000000000000e+01
5.895300000000000000e+04,4.000000000000000327e-05,4.000000000000000327e-05,5.999999999999999474e-05,-2.999999999999999737e-04,-1.219999999999999947e-03,1.300000000000000157e-04,2.000000000000000164e-05,2.000000000000000164e-05,4.000000000000000000e+00,2.100000000000000000e+01
5.895400000000000000e+04,4.000000000000000327e-05,4.000000000000000327e-05,5.999999999999999474e-05,-2.999999999999999737e-04,-1.219999999999999947e-03,1.300000000000000157e-04,2.000000000000000164e-05,2.000000000000000164e-05,4.000000000000000000e+00,2.100000000000000000e+01
5.895500000000000000e+04,4.000000000000000327e-05,4.000000000000000327e-05,5.999999999999999474e-05,-2.999999999999999737e-04,-1.219999999999999947e-03,1.300000000000000157e-04,2.000000000000000164e-05,2.000000000000000164e-05,4.000000000000000000e+00,2.100000000000000000e+01
5.895600000000000000e+04,4.000000000000000327e-05,4.000000000000000327e-05,5.999999999999999474e-05,-2.999999999999999737e-04,-1.219999999999999947e-03,1.300000000000000157e-04,2.000000000000000164e-05,2.000000000000000164e-05,4.000000000000000000e+00,2.100000000000000000e+01
5.895700000000000000e+04,4.000000000000000327e-05,4.000000000000000327e-05,5.999999999999999474e-05,-2.999999999999999737e-04,-1.219999999999999947e-03,1.300000000000000157e-04,2.000000000000000164e-05,2.000000000000000164e-05,4.000000000000000000e+00,2.100000000000000000e+01
5.895800000000000000e+04,4.000000000000000327e-05,4.000000000000000327e-05,5.999999999999999474e-05,-2.999999999999999737e-04,-1.219999999999999947e-03,1.300000000000000157e-04,2.000000000000000164e-05,2.000000000000000164e-05,4.000000000000000000e+00,2.100000000000000000e+01
5.895900000000000000e+04,-4.000000000000000327e-05,-2.999999999999999737e-05,5.000000000000000240e-05,1.019999999999999856e-03,8.900000000000000576e-04,3.099999999999999999e-04,0.000000000000000000e+00,0.000000000000000000e+00,4.000000000000000000e+00,2.100000000000000000e+01
5.896000000000000000e+04,0.000000000000000000e+00,-5.000000000000000240e-05,-5.999999999999999474e-05,5.000000000000000240e-05,-1.000000000000000082e-05,0.000000000000000000e+00,0.000000000000000000e+00,-2.000000000000000164e-05,4.000000000000000000e+00,2.100000000000000000e+01
5.896100000000000000e+04,0.000000000000000000e+00,2.999999999999999737e-05,2.999999999999999737e-05,-9.000000000000000567e-05,-2.999999999999999737e-05,-5.000000000000000240e-05,-1.000000000000000082e-05,0.000000000000000000e+00,4.000000000000000000e+00,2.100000000000000000e+01
5.896200000000000000e+04,0.000000000000000000e+00,2.999999999999999737e-05,2.999999999999999737e-05,-9.000000000000000567e-05,-2.999999999999999737e-05,-5.000000000000000240e-05,-1.000000000000000082e-05,0.000000000000000000e+00,4.000000000000000000e+00,2.100000000000000000e+01
5.896300000000000000e+04,0.000000000000000000e+00,2.999999999999999737e-05,2.999999999999999737e-05,-9.000000000000000567e-05,-2.999999999999999737e-05,-5.000000000000000240e-05,-1.000000000000000082e-05,0.000000000000000000e+00,4.000000000000000000e+00,2.100000000000000000e+01
5.896400000000000000e+04,0.000000000000000000e+00,2.999999999999999737e-05,2.999999999999999737e-05,-9.000000000000000567e-05,-2.999999999999999737e-05,-5.000000000000000240e-05,-1.000000000000000082e-05,0.000000000000000000e+00,4.000000000000000000e+00,2.100000000000000000e+01
5.896500000000000000e+04,0.000000000000000000e+00,2.999999999999999737e-05,2.999999999999999737e-05,-9.000000000000000567e-05,-2.999999999999999737e-05,-5.000000000000000240e-05,-1.000000000000000082e-05,0.000000000000000000e+00,4.000000000000000000e+00,2.100000000000000000e+01
5.896600000000000000e+04,0.000000000000000000e+00,2.999999999999999737e-05,2.999999999999999737e-05,-9.000000000000000567e-05,-2.999999999999999737e-05,-5.000000000000000240e-05,-1.000000000000000082e-05,0.000000000000000000e+00,4.000000000000000000e+00,2.100000000000000000e+01
5.896700000000000000e+04,0.000000000000000000e+00,2.999999999999999737e-05,2.999999999999999737e-05,-9.000000000000000567e-05,-2.999999999999999737e-05,-5.000000000000000240e-05,-1.000000000000000082e-05,0.000000000000000000e+00,4.000000000000000000e+00,2.100000000000000000e+01
5.896800000000000000e+04,0.000000000000000000e+00,2.999999999999999737e-05,2.999999999999999737e-05,-9.000000000000000567e-05,-2.999999999999999737e-05,-5.000000000000000240e-05,-1.000000000000000082e-05,0.000000000000000000e+00,4.000000000000000000e+00,2.100000000000000000e+01
5.896900000000000000e+04,0.000000000000000000e+00,2.999999999999999737e-05,2.999999999999999737e-05,-9.000000000000000567e-05,-2.999999999999999737e-05,-5.000000000000000240e-05,-1.000000000000000082e-05,0.000000000000000000e+00,4.000000000000000000e+00,2.100000000000000000e+01
5.897000000000000000e+04,0.000000000000000000e+00,2.999999999999999737e-05,2.999999999999999737e-05,-9.000000000000000567e-05,-2.999999999999999737e-05,-5.000000000000000240e-05,-1.000000000000000082e-05,0.000000000000000000e+00,4.000000000000000000e+00,2.100000000000000000e+01
5.897100000000000000e+04,0.000000000000000000e+00,2.999999999999999737e-05,2.999999999999999737e-05,-9.000000000000000567e-05,-2.999999999999999737e-05,-5.000000000000000240e-05,-1.000000000000000082e-05,0.000000000000000000e+00,4.000000000000000000e+00,2.100000000000000000e+01
5.897200000000000000e+04,0.000000000000000000e+00,2.999999999999999737e-05,2.999999999999999737e-05,-9.000000000000000567e-05,-2.999999999999999737e-05,-5.000000000000000240e-05,-1.000000000000000082e-05,0.000000000000000000e+00,4.000000000000000000e+00,2.100000000000000000e+01
5.897300000000000000e+04,0.000000000000000000e+00,2.999999999999999737e-05,2.999999999999999737e-05,-9.000000000000000567e-05,-2.999999999999999737e-05,-5.000000000000000240e-05,-1.000000000000000082e-05,0.000000000000000000e+00,4.000000000000000000e+00,2.100000000000000000e+01
5.897400000000000000e+04,0.000000000000000000e+00,2.999999999999999737e-05,2.999999999999999737e-05,-9.000000000000000567e-05,-2.999999999999999737e-05,-5.000000000000000240e-05,-1.000000000000000082e-05,0.000000000000000000e+00,4.000000000000000000e+00,2.100000000000000000e+01
5.897500000000000000e+04,0.000000000000000000e+00,2.999999999999999737e-05,2.999999999999999737e-05,-9.000000000000000567e-05,-2.999999999999999737e-05,-5.000000000000000240e-05,-1.000000000000000082e-05,0.000000000000000000e+00,4.000000000000000000e+00,2.100000000000000000e+01
5.897600000000000000e+04,0.000000000000000000e+00,2.999999999999999737e-05,2.999999999999999737e-05,-9.000000000000000567e-05,-2.999999999999999737e-05,-5.000000000000000240e-05,-1.000000000000000082e-05,0.000000000000000000e+00,4.000000000000000000e+00,2.100000000000000000e+01
5.897700000000000000e+04,0.000000000000000000e+00,2.999999999999999737e-05,2.999999999999999737e-05,-9.000000000000000567e-05,-2.999999999999999737e-05,-5.000000000000000240e-05,-1.000000000000000082e-05,0.000000000000000000e+00,4.000000000000000000e+00,2.100000000000000000e+01
5.897800000000000000e+04,0.000000000000000000e+00,2.999999999999999737e-05,2.999999999999999737e-05,-9.000000000000000567e-05,-2.999999999999999737e-05,-5.000000000000000240e-05,-1.000000000000000082e-05,0.000000000000000000e+00,4.000000000000000000e+00,2.100000000000000000e+01
5.897900000000000000e+04,0.000000000000000000e+00,2.999999999999999737e-05,2.999999999999999737e-05,-9.000000000000000567e-05,-2.999999999999999737e-05,-5.000000000000000240e-05,-1.000000000000000082e-05,0.000000000000000000e+00,4.000000000000000000e+00,2.100000000000000000e+01
5.898000000000000000e+04,0.000000000000000000e+00,2.999999999999999737e-05,2.999999999999999737e-05,-9.000000000000000567e-05,-2.999999999999999737e-05,-5.000000000000000240e-05,-1.000000000000000082e-05,0.000000000000000000e+00,4.000000000000000000e+00,2.100000000000000000e+01
5.898100000000000000e+04,0.000000000000000000e+00,2.999999999999999737e-05,2.999999999999999737e-05,-9.000000000000000567e-05,-2.999999999999999737e-05,-5.000000000000000240e-05,-1.000000000000000082e-05,0.000000000000000000e+00,4.000000000000000000e+00,2.100000000000000000e+01
5.898200000000000000e+04,-5.000000000000000240e-05,-1.000000000000000048e-04,-1.600000000000000131e-04,-3.200000000000000262e-04,-1.499999999999999869e-04,-2.000000000000000164e-05,-8.000000000000000654e-05,-4.000000000000000327e-05,4.000000000000000000e+00,2.100000000000000000e+01
5.898300000000000000e+04,-1.000000000000000082e-05,0.000000000000000000e+00,4.000000000000000327e-05,-2.700000000000000035e-04,-1.000000000000000048e-04,5.999999999999999474e-05,0.000000000000000000e+00,-1.000000000000000082e-05,4.000000000000000000e+00,2.100000000000000000e+01
5.898400000000000000e+04,-5.000000000000000240e-05,-5.999999999999999474e-05,-1.499999999999999869e-04,0.000000000000000000e+00,5.999999999999999474e-05,-1.100000000000000039e-04,-1.000000000000000048e-04,-5.999999999999999474e-05,4.000000000000000000e+00,2.100000000000000000e+01
5.898500000000000000e+04,-5.000000000000000240e-05,-5.999999999999999474e-05,-1.499999999999999869e-04,0.000000000000000000e+00,5.999999999999999474e-05,-1.100000000000000039e-04,-1.000000000000000048e-04,-5.999999999999999474e-05,4.000000000000000000e+00,2.100000000000000000e+01
5.898600000000000000e+04,-5.000000000000000240e-05,-5.999999999999999474e-05,-1.499999999999999869e-04,0.000000000000000000e+00,5.999999999999999474e-05,-1.100000000000000039e-04,-1.000000000000000048e-04,-5.999999999999999474e-05,4.000000000000000000e+00,2.100000000000000000e+01
5.898800000000000000e+04,-5.000000000000000240e-05,-5.999999999999999474e-05,-1.499999999999999869e-04,0.000000000000000000e+00,5.999999999999999474e-05,-1.100000000000000039e-04,-1.000000000000000048e-04,-5.999999999999999474e-05,4.000000000000000000e+00,2.100000000000000000e+01
5.898900000000000000e+04,-5.000000000000000240e-05,-5.999999999999999474e-05,-1.499999999999999869e-04,0.000000000000000000e+00,5.999999999999999474e-05,-1.100000000000000039e-04,-1.000000000000000048e-04,-5.999999999999999474e-05,4.000000000000000000e+00,2.100000000000000000e+01
5.899000000000000000e+04,-5.000000000000000240e-05,-5.999999999999999474e-05,-1.499999999999999869e-04,0.000000000000000000e+00,5.999999999999999474e-05,-1.100000000000000039e-04,-1.000000000000000048e-04,-5.999999999999999474e-05,4.000000000000000000e+00,2.100000000000000000e+01
5.899100000000000000e+04,-5.000000000000000240e-05,-5.999999999999999474e-05,-1.499999999999999869e-04,0.000000000000000000e+00,5.999999999999999474e-05,-1.100000000000000039e-04,-1.000000000000000048e-04,-5.999999999999999474e-05,4.000000000000000000e+00,2.100000000000000000e+01
5.899200000000000000e+04,-5.000000000000000240e-05,-5.999999999999999474e-05,-1.499999999999999869e-04,0.000000000000000000e+00,5.999999999999999474e-05,-1.100000000000000039e-04,-1.000000000000000048e-04,-5.999999999999999474e-05,4.000000000000000000e+00,2.100000000000000000e+01
5.899400000000000000e+04,-5.000000000000000240e-05,-5.999999999999999474e-05,-1.499999999999999869e-04,0.000000000000000000e+00,5.999999999999999474e-05,-1.100000000000000039e-04,-1.000000000000000048e-04,-5.999999999999999474e-05,4.000000000000000000e+00,2.100000000000000000e+01
5.899500000000000000e+04,-5.000000000000000240e-05,-5.999999999999999474e-05,-1.499999999999999869e-04,0.000000000000000000e+00,5.999999999999999474e-05,-1.100000000000000039e-04,-1.000000000000000048e-04,-5.999999999999999474e-05,4.000000000000000000e+00,2.100000000000000000e+01
5.899600000000000000e+04,-5.000000000000000240e-05,-5.999999999999999474e-05,-1.499999999999999869e-04,0.000000000000000000e+00,5.999999999999999474e-05,-1.100000000000000039e-04,-1.000000000000000048e-04,-5.999999999999999474e-05,4.000000000000000000e+00,2.100000000000000000e+01
5.899700000000000000e+04,-5.000000000000000240e-05,-5.999999999999999474e-05,-1.499999999999999869e-04,0.000000000000000000e+00,5.999999999999999474e-05,-1.100000000000000039e-04,-1.000000000000000048e-04,-5.999999999999999474e-05,4.000000000000000000e+00,2.100000000000000000e+01
5.899800000000000000e+04,-5.000000000000000240e-05,-5.999999999999999474e-05,-1.499999999999999869e-04,0.000000000000000000e+00,5.999999999999999474e-05,-1.100000000000000039e-04,-1.000000000000000048e-04,-5.999999999999999474e-05,4.000000000000000000e+00,2.100000000000000000e+01
5.899900000000000000e+04,-5.000000000000000240e-05,-5.999999999999999474e-05,-1.499999999999999869e-04,0.000000000000000000e+00,5.999999999999999474e-05,-1.100000000000000039e-04,-1.000000000000000048e-04,-5.999999999999999474e-05,4.000000000000000000e+00,2.100000000000000000e+01
5.900000000000000000e+04,-5.000000000000000240e-05,-5.999999999999999474e-05,-1.499999999999999869e-04,0.000000000000000000e+00,5.999999999999999474e-05,-1.100000000000000039e-04,-1.000000000000000048e-04,-5.999999999999999474e-05,4.000000000000000000e+00,2.100000000000000000e+01
5.900100000000000000e+04,-5.000000000000000240e-05,-5.999999999999999474e-05,-1.499999999999999869e-04,0.000000000000000000e+00,5.999999999999999474e-05,-1.100000000000000039e-04,-1.000000000000000048e-04,-5.999999999999999474e-05,4.000000000000000000e+00,2.100000000000000000e+01
5.900200000000000000e+04,-5.000000000000000240e-05,-5.999999999999999474e-05,-1.499999999999999869e-04,0.000000000000000000e+00,5.999999999999999474e-05,-1.100000000000000039e-04,-1.000000000000000048e-04,-5.999999999999999474e-05,4.000000000000000000e+00,2.100000000000000000e+01
5.900300000000000000e+04,-5.000000000000000240e-05,-5.999999999999999474e-05,-1.499999999999999869e-04,0.000000000000000000e+00,5.999999999999999474e-05,-1.100000000000000039e-04,-1.000000000000000048e-04,-5.999999999999999474e-05,4.000000000000000000e+00,2.100000000000000000e+01
5.900400000000000000e+04,0.000000000000000000e+00,-1.000000000000000082e-05,0.000000000000000000e+00,1.000000000000000048e-04,-4.099999999999999912e-04,-2.900000000000000017e-04,-4.000000000000000327e-05,-2.000000000000000164e-05,4.000000000000000000e+00,2.100000000000000000e+01
5.900500000000000000e+04,-1.000000000000000082e-05,-2.000000000000000164e-05,0.000000000000000000e+00,2.000000000000000164e-05,1.399999999999999877e-04,0.000000000000000000e+00,-2.999999999999999737e-05,-1.000000000000000082e-05,4.000000000000000000e+00,2.100000000000000000e+01
5.900600000000000000e+04,5.000000000000000240e-05,5.999999999999999474e-05,1.000000000000000048e-04,3.200000000000000262e-04,-2.399999999999999790e-04,5.800000000000000034e-04,0.000000000000000000e+00,2.999999999999999737e-05,4.000000000000000000e+00,2.100000000000000000e+01
5.900700000000000000e+04,5.000000000000000240e-05,5.999999999999999474e-05,1.000000000000000048e-04,3.200000000000000262e-04,-2.399999999999999790e-04,5.800000000000000034e-04,0.000000000000000000e+00,2.999999999999999737e-05,4.000000000000000000e+00,2.100000000000000000e+01
5.900800000000000000e+04,5.000000000000000240e-05,5.999999999999999474e-05,1.000000000000000048e-04,3.200000000000000262e-04,-2.399999999999999790e-04,5.800000000000000034e-04,0.000000000000000000e+00,2.999999999999999737e-05,4.000000000000000000e+00,2.100000000000000000e+01
5.900900000000000000e+04,5.000000000000000240e-05,5.999999999999999474e-05,1.000000000000000048e-04,3.200000000000000262e-04,-2.399999999999999790e-04,5.800000000000000034e-04,0.000000000000000000e+00,2.999999999999999737e-05,4.000000000000000000e+00,2.100000000000000000e+01
5.901000000000000000e+04,5.000000000000000240e-05,5.999999999999999474e-05,1.000000000000000048e-04,3.200000000000000262e-04,-2.399999999999999790e-04,5.800000000000000034e-04,0.000000000000000000e+00,2.999999999999999737e-05,4.000000000000000000e+00,2.100000000000000000e+01
5.901100000000000000e+04,5.000000000000000240e-05,5.999999999999999474e-05,1.000000000000000048e-04,3.200000000000000262e-04,-2.399999999999999790e-04,5.800000000000000034e-04,0.000000000000000000e+00,2.999999999999999737e-05,4.000000000000000000e+00,2.100000000000000000e+01
5.901200000000000000e+04,5.000000000000000240e-05,5.999999999999999474e-05,1.000000000000000048e-04,3.200000000000000262e-04,-2.399999999999999790e-04,5.800000000000000034e-04,0.000000000000000000e+00,2.999999999999999737e-05,4.000000000000000000e+00,2.100000000000000000e+01
5.901300000000000000e+04,5.000000000000000240e-05,5.999999999999999474e-05,1.000000000000000048e-04,3.200000000000000262e-04,-2.399999999999999790e-04,5.800000000000000034e-04,0.000000000000000000e+00,2.999999999999999737e-05,4.000000000000000000e+00,2.100000000000000000e+01
5.901400000000000000e+04,5.000000000000000240e-05,5.999999999999999474e-05,1.000000000000000048e-04,3.200000000000000262e-04,-2.399999999999999790e-04,5.800000000000000034e-04,0.000000000000000000e+00,2.999999999999999737e-05,4.000000000000000000e+00,2.100000000000000000e+01
5.901500000000000000e+04,5.000000000000000240e-05,5.999999999999999474e-05,1.000000000000000048e-04,3.200000000000000262e-04,-2.399999999999999790e-04,5.800000000000000034e-04,0.000000000000000000e+00,2.999999999999999737e-05,4.000000000000000000e+00,2.100000000000000000e+01
5.901600000000000000e+04,5.000000000000000240e-05,5.999999999999999474e-05,1.000000000000000048e-04,3.200000000000000262e-04,-2.399999999999999790e-04,5.800000000000000034e-04,0.000000000000000000e+00,2.999999999999999737e-05,4.000000000000000000e+00,2.100000000000000000e+01
5.901700000000000000e+04,5.000000000000000240e-05,5.999999999999999474e-05,1.000000000000000048e-04,3.200000000000000262e-04,-2.399999999999999790e-04,5.800000000000000034e-04,0.000000000000000000e+00,2.999999999999999737e-05,4.000000000000000000e+00,2.100000000000000000e+01
5.901800000000000000e+04,5.000000000000000240e-05,5.999999999999999474e-05,1.000000000000000048e-04,3.200000000000000262e-04,-2.399999999999999790e-04,5.800000000000000034e-04,0.000000000000000000e+00,2.999999999999999737e-05,4.000000000000000000e+00,2.100000000000000000e+01
5.901900000000000000e+04,5.000000000000000240e-05,5.999999999999999474e-05,1.000000000000000048e-04,3.200000000000000262e-04,-2.399999999999999790e-04,5.800000000000000034e-04,0.000000000000000000e+00,2.999999999999999737e-05,4.000000000000000000e+00,2.100000000000000000e+01
5.902000000000000000e+04,0.000000000000000000e+00,1.000000000000000082e-05,-2.999999999999999737e-05,-4.000000000000000192e-04,-6.900000000000000751e-04,-8.000000000000000654e-05,1.000000000000000082e-05,-2.000000000000000164e-05,4.000000000000000000e+00,2.100000000000000000e+01
5.902100000000000000e+04,-4.000000000000000327e-05,-8.000000000000000654e-05,-1.000000000000000048e-04,-2.000000000000000164e-05,-1.800000000000000113e-04,5.999999999999999474e-05,-2.000000000000000164e-05,-1.000000000000000082e-05,4.000000000000000000e+00,2.100000000000000000e+01
5.902200000000000000e+04,-4.000000000000000327e-05,-8.000000000000000654e-05,-1.000000000000000048e-04,-2.000000000000000164e-05,-1.800000000000000113e-04,5.999999999999999474e-05,-2.000000000000000164e-05,-1.000000000000000082e-05,4.000000000000000000e+00,2.100000000000000000e+01
5.902300000000000000e+04,-4.000000000000000327e-05,-8.000000000000000654e-05,-1.000000000000000048e-04,-2.000000000000000164e-05,-1.800000000000000113e-04,5.999999999999999474e-05,-2.000000000000000164e-05,-1.000000000000000082e-05,4.000000000000000000e+00,2.100000000000000000e+01
5.902400000000000000e+04,-4.000000000000000327e-05,-8.000000000000000654e-05,-1.000000000000000048e-04,-2.000000000000000164e-05,-1.800000000000000113e-04,5.999999999999999474e-05,-2.000000000000000164e-05,-1.000000000000000082e-05,4.000000000000000000e+00,2.100000000000000000e+01
5.902500000000000000e+04,-4.000000000000000327e-05,-8.000000000000000654e-05,-1.000000000000000048e-04,-2.000000000000000164e-05,-1.800000000000000113e-04,5.999999999999999474e-05,-2.000000000000000164e-05,-1.000000000000000082e-05,4.000000000000000000e+00,2.100000000000000000e+01
5.902600000000000000e+04,-4.000000000000000327e-05,-8.000000000000000654e-05,-1.000000000000000048e-04,-2.000000000000000164e-05,-1.800000000000000113e-04,5.999999999999999474e-05,-2.000000000000000164e-05,-1.000000000000000082e-05,4.000000000000000000e+00,2.100000000000000000e+01
5.902700000000000000e+04,-4.000000000000000327e-05,-8.000000000000000654e-05,-1.000000000000000048e-04,-2.000000000000000164e-05,-1.800000000000000113e-04,5.999999999999999474e-05,-2.000000000000000164e-05,-1.000000000000000082e-05,4.000000000000000000e+00,2.100000000000000000e+01
5.902800000000000000e+04,-4.000000000000000327e-05,-8.000000000000000654e-05,-1.000000000000000048e-04,-2.000000000000000164e-05,-1.800000000000000113e-04,5.999999999999999474e-05,-2.000000000000000164e-05,-1.000000000000000082e-05,4.000000000000000000e+00,2.100000000000000000e+01
5.902900000000000000e+04,-4.000000000000000327e-05,-8.000000000000000654e-05,-1.000000000000000048e-04,-2.000000000000000164e-05,-1.800000000000000113e-04,5.999999999999999474e-05,-2.000000000000000164e-05,-1.000000000000000082e-05,4.000000000000000000e+00,2.100000000000000000e+01
5.903000000000000000e+04,-4.000000000000000327e-05,-8.000000000000000654e-05,-1.000000000000000048e-04,-2.000000000000000164e-05,-1.800000000000000113e-04,5.999999999999999474e-05,-2.000000000000000164e-05,-1.000000000000000082e-05,4.000000000000000000e+00,2.100000000000000000e+01
5.903100000000000000e+04,-4.000000000000000327e-05,-8.000000000000000654e-05,-1.000000000000000048e-04,-2.000000000000000164e-05,-1.800000000000000113e-04,5.999999999999999474e-05,-2.000000000000000164e-05,-1.000000000000000082e-05,4.000000000000000000e+00,2.100000000000000000e+01
5.903200000000000000e+04,-4.000000000000000327e-05,-8.000000000000000654e-05,-1.000000000000000048e-04,-2.000000000000000164e-05,-1.800000000000000113e-04,5.999999999999999474e-05,-2.000000000000000164e-05,-1.000000000000000082e-05,4.000000000000000000e+00,2.100000000000000000e+01
5.903300000000000000e+04,-4.000000000000000327e-05,-8.000000000000000654e-05,-1.000000000000000048e-04,-2.000000000000000164e-05,-1.800000000000000113e-04,5.999999999999999474e-05,-2.000000000000000164e-05,-1.000000000000000082e-05,4.000000000000000000e+00,2.100000000000000000e+01
5.903400000000000000e+04,-4.000000000000000327e-05,-8.000000000000000654e-05,-1.000000000000000048e-04,-2.000000000000000164e-05,-1.800000000000000113e-04,5.999999999999999474e-05,-2.000000000000000164e-05,-1.000000000000000082e-05,4.000000000000000000e+00,2.100000000000000000e+01
5.903500000000000000e+04,-4.000000000000000327e-05,-8.000000000000000654e-05,-1.000000000000000048e-04,-2.000000000000000164e-05,-1.800000000000000113e-04,5.999999999999999474e-05,-2.000000000000000164e-05,-1.000000000000000082e-05,4.000000000000000000e+00,2.100000000000000000e+01
5.903600000000000000e+04,-4.000000000000000327e-05,-8.000000000000000654e-05,-1.000000000000000048e-04,-2.000000000000000164e-05,-1.800000000000000113e-04,5.999999999999999474e-05,-2.000000000000000164e-05,-1.000000000000000082e-05,4.000000000000000000e+00,2.100000000000000000e+01
5.903800000000000000e+04,-4.000000000000000327e-05,-8.000000000000000654e-05,-1.000000000000000048e-04,-2.000000000000000164e-05,-1.800000000000000113e-04,5.999999999999999474e-05,-2.000000000000000164e-05,-1.000000000000000082e-05,4.000000000000000000e+00,2.100000000000000000e+01
5.903900000000000000e+04,-4.000000000000000327e-05,-8.000000000000000654e-05,-1.000000000000000048e-04,-2.000000000000000164e-05,-1.800000000000000113e-04,5.999999999999999474e-05,-2.000000000000000164e-05,-1.000000000000000082e-05,4.000000000000000000e+00,2.100000000000000000e+01
5.904000000000000000e+04,-4.000000000000000327e-05,-8.000000000000000654e-05,-1.000000000000000048e-04,-2.000000000000000164e-05,-1.800000000000000113e-04,5.999999999999999474e-05,-2.000000000000000164e-05,-1.000000000000000082e-05,4.000000000000000000e+00,2.100000000000000000e+01
5.904100000000000000e+04,-4.000000000000000327e-05,-8.000000000000000654e-05,-1.000000000000000048e-04,-2.000000000000000164e-05,-1.800000000000000113e-04,5.999999999999999474e-05,-2.000000000000000164e-05,-1.000000000000000082e-05,4.000000000000000000e+00,2.100000000000000000e+01
5.904200000000000000e+04,-5.000000000000000240e-05,-2.999999999999999737e-05,-8.000000000000000654e-05,-2.000000000000000164e-05,5.000000000000000240e-05,-4.000000000000000327e-05,-2.999999999999999737e-05,-1.000000000000000082e-05,4.000000000000000000e+00,2.100000000000000000e+01
5.904300000000000000e+04,-8.000000000000000654e-05,-2.000000000000000164e-05,2.000000000000000164e-05,-2.399999999999999790e-04,2.000000000000000096e-04,-6.999999999999999387e-05,-2.999999999999999737e-05,-4.000000000000000327e-05,4.000000000000000000e+00,2.100000000000000000e+01
5.904400000000000000e+04,-1.000000000000000082e-05,-2.000000000000000164e-05,2.000000000000000164e-05,6.199999999999999999e-04,4.899999999999999842e-04,-1.300000000000000157e-04,5.000000000000000240e-05,2.000000000000000164e-05,4.000000000000000000e+00,2.100000000000000000e+01
5.904500000000000000e+04,-1.000000000000000082e-05,-2.000000000000000164e-05,2.000000000000000164e-05,6.199999999999999999e-04,4.899999999999999842e-04,-1.300000000000000157e-04,5.000000000000000240e-05,2.000000000000000164e-05,4.000000000000000000e+00,2.100000000000000000e+01
5.904600000000000000e+04,-1.000000000000000082e-05,-2.000000000000000164e-05,2.000000000000000164e-05,6.199999999999999999e-04,4.899999999999999842e-04,-1.300000000000000157e-04,5.000000000000000240e-05,2.000000000000000164e-05,4.000000000000000000e+00,2.100000000000000000e+01
5.904700000000000000e+04,-1.000000000000000082e-05,-2.000000000000000164e-05,2.000000000000000164e-05,6.199999999999999999e-04,4.899999999999999842e-04,-1.300000000000000157e-04,5.000000000000000240e-05,2.000000000000000164e-05,4.000000000000000000e+00,2.100000000000000000e+01
5.904800000000000000e+04,-1.000000000000000082e-05,-2.000000000000000164e-05,2.000000000000000164e-05,6.199999999999999999e-04,4.899999999999999842e-04,-1.300000000000000157e-04,5.000000000000000240e-05,2.000000000000000164e-05,4.000000000000000000e+00,2.100000000000000000e+01
5.904900000000000000e+04,-1.000000000000000082e-05,-2.000000000000000164e-05,2.000000000000000164e-05,6.199999999999999999e-04,4.899999999999999842e-04,-1.300000000000000157e-04,5.000000000000000240e-05,2.000000000000000164e-05,4.000000000000000000e+00,2.100000000000000000e+01
5.905000000000000000e+04,-1.000000000000000082e-05,-2.000000000000000164e-05,2.000000000000000164e-05,6.199999999999999999e-04,4.899999999999999842e-04,-1.300000000000000157e-04,5.000000000000000240e-05,2.000000000000000164e-05,4.000000000000000000e+00,2.100000000000000000e+01
5.905100000000000000e+04,-1.000000000000000082e-05,-2.000000000000000164e-05,2.000000000000000164e-05,6.199999999999999999e-04,4.899999999999999842e-04,-1.300000000000000157e-04,5.000000000000000240e-05,2.000000000000000164e-05,4.000000000000000000e+00,2.100000000000000000e+01
5.905200000000000000e+04,-1.000000000000000082e-05,-2.000000000000000164e-05,2.000000000000000164e-05,6.199999999999999999e-04,4.899999999999999842e-04,-1.300000000000000157e-04,5.000000000000000240e-05,2.000000000000000164e-05,4.000000000000000000e+00,2.100000000000000000e+01
5.905300000000000000e+04,-1.000000000000000082e-05,-2.000000000000000164e-05,2.000000000000000164e-05,6.199999999999999999e-04,4.899999999999999842e-04,-1.300000000000000157e-04,5.000000000000000240e-05,2.000000000000000164e-05,4.000000000000000000e+00,2.100000000000000000e+01
5.905400000000000000e+04,-1.000000000000000082e-05,-2.000000000000000164e-05,2.000000000000000164e-05,6.199999999999999999e-04,4.899999999999999842e-04,-1.300000000000000157e-04,5.000000000000000240e-05,2.000000000000000164e-05,4.000000000000000000e+00,2.100000000000000000e+01
5.905500000000000000e+04,-1.000000000000000082e-05,-2.000000000000000164e-05,2.000000000000000164e-05,6.199999999999999999e-04,4.899999999999999842e-04,-1.300000000000000157e-04,5.000000000000000240e-05,2.000000000000000164e-05,4.000000000000000000e+00,2.100000000000000000e+01
5.905600000000000000e+04,-1.000000000000000082e-05,-2.000000000000000164e-05,2.000000000000000164e-05,6.199999999999999999e-04,4.899999999999999842e-04,-1.300000000000000157e-04,5.000000000000000240e-05,2.000000000000000164e-05,4.000000000000000000e+00,2.100000000000000000e+01
5.905700000000000000e+04,-1.000000000000000082e-05,-2.000000000000000164e-05,2.000000000000000164e-05,6.199999999999999999e-04,4.899999999999999842e-04,-1.300000000000000157e-04,5.000000000000000240e-05,2.000000000000000164e-05,4.000000000000000000e+00,2.100000000000000000e+01
5.905800000000000000e+04,-1.000000000000000082e-05,-2.000000000000000164e-05,2.000000000000000164e-05,6.199999999999999999e-04,4.899999999999999842e-04,-1.300000000000000157e-04,5.000000000000000240e-05,2.000000000000000164e-05,4.000000000000000000e+00,2.100000000000000000e+01
5.905900000000000000e+04,-1.000000000000000082e-05,-2.000000000000000164e-05,2.000000000000000164e-05,6.199999999999999999e-04,4.899999999999999842e-04,-1.300000000000000157e-04,5.000000000000000240e-05,2.000000000000000164e-05,4.000000000000000000e+00,2.100000000000000000e+01
5.906000000000000000e+04,-1.000000000000000082e-05,-2.000000000000000164e-05,2.000000000000000164e-05,6.199999999999999999e-04,4.899999999999999842e-04,-1.300000000000000157e-04,5.000000000000000240e-05,2.000000000000000164e-05,4.000000000000000000e+00,2.100000000000000000e+01
5.906100000000000000e+04,-1.000000000000000082e-05,-2.000000000000000164e-05,2.000000000000000164e-05,6.199999999999999999e-04,4.899999999999999842e-04,-1.300000000000000157e-04,5.000000000000000240e-05,2.000000000000000164e-05,4.000000000000000000e+00,2.100000000000000000e+01
5.906200000000000000e+04,-1.000000000000000082e-05,-2.000000000000000164e-05,2.000000000000000164e-05,6.199999999999999999e-04,4.899999999999999842e-04,-1.300000000000000157e-04,5.000000000000000240e-05,2.000000000000000164e-05,4.000000000000000000e+00,2.100000000000000000e+01
5.906300000000000000e+04,-1.000000000000000082e-05,-2.000000000000000164e-05,2.000000000000000164e-05,6.199999999999999999e-04,4.899999999999999842e-04,-1.300000000000000157e-04,5.000000000000000240e-05,2.000000000000000164e-05,4.000000000000000000e+00,2.100000000000000000e+01
5.906400000000000000e+04,2.999999999999999737e-05,-1.000000000000000082e-05,-6.999999999999999387e-05,-5.000000000000000240e-05,3.499999999999999964e-04,-1.499999999999999869e-04,-4.000000000000000327e-05,-2.999999999999999737e-05,4.000000000000000000e+00,2.100000000000000000e+01
5.906500000000000000e+04,2.999999999999999737e-05,-1.000000000000000082e-05,-6.999999999999999387e-05,-5.000000000000000240e-05,3.499999999999999964e-04,-1.499999999999999869e-04,-4.000000000000000327e-05,-2.999999999999999737e-05,4.000000000000000000e+00,2.100000000000000000e+01
5.906600000000000000e+04,2.999999999999999737e-05,-1.000000000000000082e-05,-6.999999999999999387e-05,-5.000000000000000240e-05,3.499999999999999964e-04,-1.499999999999999869e-04,-4.000000000000000327e-05,-2.999999999999999737e-05,4.000000000000000000e+00,2.100000000000000000e+01
5.906700000000000000e+04,2.999999999999999737e-05,-1.000000000000000082e-05,-6.999999999999999387e-05,-5.000000000000000240e-05,3.499999999999999964e-04,-1.499999999999999869e-04,-4.000000000000000327e-05,-2.999999999999999737e-05,4.000000000000000000e+00,2.100000000000000000e+01
5.906800000000000000e+04,2.999999999999999737e-05,-1.000000000000000082e-05,-6.999999999999999387e-05,-5.000000000000000240e-05,3.499999999999999964e-04,-1.499999999999999869e-04,-4.000000000000000327e-05,-2.999999999999999737e-05,4.000000000000000000e+00,2.100000000000000000e+01
5.906900000000000000e+04,2.999999999999999737e-05,-1.000000000000000082e-05,-6.999999999999999387e-05,-5.000000000000000240e-05,3.499999999999999964e-04,-1.499999999999999869e-04,-4.000000000000000327e-05,-2.999999999999999737e-05,4.000000000000000000e+00,2.100000000000000000e+01
5.907000000000000000e+04,2.999999999999999737e-05,-1.000000000000000082e-05,-6.999999999999999387e-05,-5.000000000000000240e-05,3.499999999999999964e-04,-1.499999999999999869e-04,-4.000000000000000327e-05,-2.999999999999999737e-05,4.000000000000000000e+00,2.100000000000000000e+01
5.907100000000000000e+04,-5.000000000000000240e-05,-5.999999999999999474e-05,-1.199999999999999895e-04,-6.799999999999999404e-04,2.799999999999999755e-04,-2.100000000000000087e-04,-5.999999999999999474e-05,-2.999999999999999737e-05,4.000000000000000000e+00,2.100000000000000000e+01
5.907200000000000000e+04,-5.000000000000000240e-05,-5.999999999999999474e-05,-1.199999999999999895e-04,-6.799999999999999404e-04,2.799999999999999755e-04,-2.100000000000000087e-04,-5.999999999999999474e-05,-2.999999999999999737e-05,4.000000000000000000e+00,2.100000000000000000e+01
5.907300000000000000e+04,-5.000000000000000240e-05,-5.999999999999999474e-05,-1.199999999999999895e-04,-6.799999999999999404e-04,2.799999999999999755e-04,-2.100000000000000087e-04,-5.999999999999999474e-05,-2.999999999999999737e-05,4.000000000000000000e+00,2.100000000000000000e+01
5.907400000000000000e+04,-5.000000000000000240e-05,-5.999999999999999474e-05,-1.199999999999999895e-04,-6.799999999999999404e-04,2.799999999999999755e-04,-2.100000000000000087e-04,-5.999999999999999474e-05,-2.999999999999999737e-05,4.000000000000000000e+00,2.100000000000000000e+01
5.907500000000000000e+04,-5.000000000000000240e-05,-5.999999999999999474e-05,-1.199999999999999895e-04,-6.799999999999999404e-04,2.799999999999999755e-04,-2.100000000000000087e-04,-5.999999999999999474e-05,-2.999999999999999737e-05,4.000000000000000000e+00,2.100000000000000000e+01
5.907600000000000000e+04,-5.000000000000000240e-05,-5.999999999999999474e-05,-1.199999999999999895e-04,-6.799999999999999404e-04,2.799999999999999755e-04,-2.100000000000000087e-04,-5.999999999999999474e-05,-2.999999999999999737e-05,4.000000000000000000e+00,2.100000000000000000e+01
5.907700000000000000e+04,-5.000000000000000240e-05,-5.999999999999999474e-05,-1.199999999999999895e-04,-6.799999999999999404e-04,2.799999999999999755e-04,-2.100000000000000087e-04,-5.999999999999999474e-05,-2.999999999999999737e-05,4.000000000000000000e+00,2.100000000000000000e+01
5.907800000000000000e+04,-5.000000000000000240e-05,-5.999999999999999474e-05,-1.199999999999999895e-04,-6.799999999999999404e-04,2.799999999999999755e-04,-2.100000000000000087e-04,-5.999999999999999474e-05,-2.999999999999999737e-05,4.000000000000000000e+00,2.100000000000000000e+01
5.907900000000000000e+04,1.000000000000000082e-05,0.000000000000000000e+00,9.000000000000000567e-05,1.800000000000000113e-04,9.000000000000000567e-05,5.999999999999999474e-05,1.000000000000000082e-05,0.000000000000000000e+00,4.000000000000000000e+00,2.100000000000000000e+01
5.908000000000000000e+04,1.000000000000000082e-05,0.000000000000000000e+00,9.000000000000000567e-05,1.800000000000000113e-04,9.000000000000000567e-05,5.999999999999999474e-05,1.000000000000000082e-05,0.000000000000000000e+00,4.000000000000000000e+00,2.100000000000000000e+01
5.908100000000000000e+04,1.000000000000000082e-05,2.999999999999999737e-05,1.499999999999999869e-04,3.799999999999999667e-04,1.499999999999999869e-04,5.000000000000000240e-05,5.000000000000000240e-05,2.000000000000000164e-05,4.000000000000000000e+00,2.100000000000000000e+01
5.908200000000000000e+04,1.000000000000000082e-05,2.999999999999999737e-05,1.499999999999999869e-04,3.799999999999999667e-04,1.499999999999999869e-04,5.000000000000000240e-05,5.000000000000000240e-05,2.000000000000000164e-05,4.000000000000000000e+00,2.100000000000000000e+01
5.908300000000000000e+04,1.000000000000000082e-05,2.999999999999999737e-05,1.499999999999999869e-04,3.799999999999999667e-04,1.499999999999999869e-04,5.000000000000000240e-05,5.000000000000000240e-05,2.000000000000000164e-05,4.000000000000000000e+00,2.100000000000000000e+01
5.908400000000000000e+04,1.000000000000000082e-05,2.999999999999999737e-05,1.499999999999999869e-04,3.799999999999999667e-04,1.499999999999999869e-04,5.000000000000000240e-05,5.000000000000000240e-05,2.000000000000000164e-05,4.000000000000000000e+00,2.100000000000000000e+01
5.908500000000000000e+04,1.000000000000000082e-05,2.999999999999999737e-05,1.499999999999999869e-04,3.799999999999999667e-04,1.499999999999999869e-04,5.000000000000000240e-05,5.000000000000000240e-05,2.000000000000000164e-05,4.000000000000000000e+00,2.100000000000000000e+01
5.908600000000000000e+04,1.000000000000000082e-05,2.999999999999999737e-05,1.499999999999999869e-04,3.799999999999999667e-04,1.499999999999999869e-04,5.000000000000000240e-05,5.000000000000000240e-05,2.000000000000000164e-05,4.000000000000000000e+00,2.100000000000000000e+01
5.908800000000000000e+04,1.000000000000000082e-05,2.999999999999999737e-05,1.499999999999999869e-04,3.799999999999999667e-04,1.499999999999999869e-04,5.000000000000000240e-05,5.000000000000000240e-05,2.000000000000000164e-05,4.000000000000000000e+00,2.100000000000000000e+01
5.908900000000000000e+04,1.000000000000000082e-05,2.999999999999999737e-05,1.499999999999999869e-04,3.799999999999999667e-04,1.499999999999999869e-04,5.000000000000000240e-05,5.000000000000000240e-05,2.000000000000000164e-05,4.000000000000000000e+00,2.100000000000000000e+01
5.909000000000000000e+04,1.000000000000000082e-05,2.999999999999999737e-05,1.499999999999999869e-04,3.799999999999999667e-04,1.499999999999999869e-04,5.000000000000000240e-05,5.000000000000000240e-05,2.000000000000000164e-05,4.000000000000000000e+00,2.100000000000000000e+01
5.909100000000000000e+04,1.000000000000000082e-05,2.999999999999999737e-05,1.499999999999999869e-04,3.799999999999999667e-04,1.499999999999999869e-04,5.000000000000000240e-05,5.000000000000000240e-05,2.000000000000000164e-05,4.000000000000000000e+00,2.100000000000000000e+01
5.909200000000000000e+04,1.000000000000000082e-05,2.999999999999999737e-05,1.499999999999999869e-04,3.799999999999999667e-04,1.499999999999999869e-04,5.000000000000000240e-05,5.000000000000000240e-05,2.000000000000000164e-05,4.000000000000000000e+00,2.100000000000000000e+01
5.909300000000000000e+04,1.000000000000000082e-05,2.999999999999999737e-05,1.499999999999999869e-04,3.799999999999999667e-04,1.499999999999999869e-04,5.000000000000000240e-05,5.000000000000000240e-05,2.000000000000000164e-05,4.000000000000000000e+00,2.100000000000000000e+01
5.909400000000000000e+04,1.000000000000000082e-05,2.999999999999999737e-05,1.499999999999999869e-04,3.799999999999999667e-04,1.499999999999999869e-04,5.000000000000000240e-05,5.000000000000000240e-05,2.000000000000000164e-05,4.000000000000000000e+00,2.100000000000000000e+01
5.909500000000000000e+04,1.000000000000000082e-05,2.999999999999999737e-05,1.499999999999999869e-04,3.799999999999999667e-04,1.499999999999999869e-04,5.000000000000000240e-05,5.000000000000000240e-05,2.000000000000000164e-05,4.000000000000000000e+00,2.100000000000000000e+01
5.909600000000000000e+04,1.000000000000000082e-05,2.999999999999999737e-05,1.499999999999999869e-04,3.799999999999999667e-04,1.499999999999999869e-04,5.000000000000000240e-05,5.000000000000000240e-05,2.000000000000000164e-05,4.000000000000000000e+00,2.100000000000000000e+01
5.909700000000000000e+04,1.000000000000000082e-05,2.999999999999999737e-05,1.499999999999999869e-04,3.799999999999999667e-04,1.499999999999999869e-04,5.000000000000000240e-05,5.000000000000000240e-05,2.000000000000000164e-05,4.000000000000000000e+00,2.100000000000000000e+01
5.909800000000000000e+04,1.000000000000000082e-05,2.999999999999999737e-05,1.499999999999999869e-04,3.799999999999999667e-04,1.499999999999999869e-04,5.000000000000000240e-05,5.000000000000000240e-05,2.000000000000000164e-05,4.000000000000000000e+00,2.100000000000000000e+01
5.909900000000000000e+04,1.000000000000000082e-05,2.999999999999999737e-05,1.499999999999999869e-04,3.799999999999999667e-04,1.499999999999999869e-04,5.000000000000000240e-05,5.000000000000000240e-05,2.000000000000000164e-05,4.000000000000000000e+00,2.100000000000000000e+01
5.910000000000000000e+04,1.000000000000000082e-05,2.999999999999999737e-05,1.499999999999999869e-04,3.799999999999999667e-04,1.499999999999999869e-04,5.000000000000000240e-05,5.000000000000000240e-05,2.000000000000000164e-05,4.000000000000000000e+00,2.100000000000000000e+01
5.910100000000000000e+04,-1.000000000000000082e-05,-2.000000000000000164e-05,-8.000000000000000654e-05,-6.599999999999999964e-04,-8.900000000000000576e-04,1.000000000000000082e-05,-4.000000000000000327e-05,-2.000000000000000164e-05,4.000000000000000000e+00,2.100000000000000000e+01
5.910300000000000000e+04,-1.000000000000000082e-05,-2.000000000000000164e-05,-8.000000000000000654e-05,-6.599999999999999964e-04,-8.900000000000000576e-04,1.000000000000000082e-05,-4.000000000000000327e-05,-2.000000000000000164e-05,4.000000000000000000e+00,2.100000000000000000e+01
5.910400000000000000e+04,-1.000000000000000082e-05,-2.000000000000000164e-05,-8.000000000000000654e-05,-6.599999999999999964e-04,-8.900000000000000576e-04,1.000000000000000082e-05,-4.000000000000000327e-05,-2.000000000000000164e-05,4.000000000000000000e+00,2.100000000000000000e+01
5.910500000000000000e+04,-1.000000000000000082e-05,-2.000000000000000164e-05,-8.000000000000000654e-05,-6.599999999999999964e-04,-8.900000000000000576e-04,1.000000000000000082e-05,-4.000000000000000327e-05,-2.000000000000000164e-05,4.000000000000000000e+00,2.100000000000000000e+01
5.910600000000000000e+04,-1.000000000000000082e-05,-2.000000000000000164e-05,-8.000000000000000654e-05,-6.599999999999999964e-04,-8.900000000000000576e-04,1.000000000000000082e-05,-4.000000000000000327e-05,-2.000000000000000164e-05,4.000000000000000000e+00,2.100000000000000000e+01
5.910700000000000000e+04,-1.000000000000000082e-05,-2.000000000000000164e-05,-8.000000000000000654e-05,-6.599999999999999964e-04,-8.900000000000000576e-04,1.000000000000000082e-05,-4.000000000000000327e-05,-2.000000000000000164e-05,4.000000000000000000e+00,2.100000000000000000e+01
5.910800000000000000e+04,-1.000000000000000082e-05,-2.000000000000000164e-05,-8.000000000000000654e-05,-6.599999999999999964e-04,-8.900000000000000576e-04,1.000000000000000082e-05,-4.000000000000000327e-05,-2.000000000000000164e-05,4.000000000000000000e+00,2.100000000000000000e+01
5.910900000000000000e+04,-1.000000000000000082e-05,-2.000000000000000164e-05,-8.000000000000000654e-05,-6.599999999999999964e-04,-8.900000000000000576e-04,1.000000000000000082e-05,-4.000000000000000327e-05,-2.000000000000000164e-05,4.000000000000000000e+00,2.100000000000000000e+01
5.911000000000000000e+04,1.000000000000000082e-05,1.000000000000000082e-05,0.000000000000000000e+00,-4.200000000000000174e-04,2.999999999999999737e-05,-1.699999999999999851e-04,0.000000000000000000e+00,-1.000000000000000082e-05,4.000000000000000000e+00,2.100000000000000000e+01
5.911100000000000000e+04,1.000000000000000082e-05,1.000000000000000082e-05,0.000000000000000000e+00,-4.200000000000000174e-04,2.999999999999999737e-05,-1.699999999999999851e-04,0.000000000000000000e+00,-1.000000000000000082e-05,4.000000000000000000e+00,2.100000000000000000e+01
5.911200000000000000e+04,1.000000000000000082e-05,1.000000000000000082e-05,0.000000000000000000e+00,-4.200000000000000174e-04,2.999999999999999737e-05,-1.699999999999999851e-04,0.000000000000000000e+00,-1.000000000000000082e-05,4.000000000000000000e+00,2.100000000000000000e+01
5.911300000000000000e+04,1.000000000000000082e-05,1.000000000000000082e-05,0.000000000000000000e+00,-4.200000000000000174e-04,2.999999999999999737e-05,-1.699999999999999851e-04,0.000000000000000000e+00,-1.000000000000000082e-05,4.000000000000000000e+00,2.100000000000000000e+01
5.911400000000000000e+04,1.000000000000000082e-05,1.000000000000000082e-05,0.000000000000000000e+00,-4.200000000000000174e-04,2.999999999999999737e-05,-1.699999999999999851e-04,0.000000000000000000e+00,-1.000000000000000082e-05,4.000000000000000000e+00,2.100000000000000000e+01
5.911500000000000000e+04,1.000000000000000082e-05,1.000000000000000082e-05,0.000000000000000000e+00,-4.200000000000000174e-04,2.999999999999999737e-05,-1.699999999999999851e-04,0.000000000000000000e+00,-1.000000000000000082e-05,4.000000000000000000e+00,2.100000000000000000e+01
5.911600000000000000e+04,1.000000000000000082e-05,1.000000000000000082e-05,0.000000000000000000e+00,-4.200000000000000174e-04,2.999999999999999737e-05,-1.699999999999999851e-04,0.000000000000000000e+00,-1.000000000000000082e-05,4.000000000000000000e+00,2.100000000000000000e+01
5.911700000000000000e+04,1.000000000000000082e-05,1.000000000000000082e-05,0.000000000000000000e+00,-4.200000000000000174e-04,2.999999999999999737e-05,-1.699999999999999851e-04,0.000000000000000000e+00,-1.000000000000000082e-05,4.000000000000000000e+00,2.100000000000000000e+01
5.911800000000000000e+04,1.000000000000000082e-05,1.000000000000000082e-05,0.000000000000000000e+00,-4.200000000000000174e-04,2.999999999999999737e-05,-1.699999999999999851e-04,0.000000000000000000e+00,-1.000000000000000082e-05,4.000000000000000000e+00,2.100000000000000000e+01
5.912000000000000000e+04,1.000000000000000082e-05,1.000000000000000082e-05,0.000000000000000000e+00,-4.200000000000000174e-04,2.999999999999999737e-05,-1.699999999999999851e-04,0.000000000000000000e+00,-1.000000000000000082e-05,4.000000000000000000e+00,2.100000000000000000e+01
5.912100000000000000e+04,1.000000000000000082e-05,1.000000000000000082e-05,0.000000000000000000e+00,-4.200000000000000174e-04,2.999999999999999737e-05,-1.699999999999999851e-04,0.000000000000000000e+00,-1.000000000000000082e-05,4.000000000000000000e+00,2.100000000000000000e+01
5.912200000000000000e+04,1.000000000000000082e-05,1.000000000000000082e-05,0.000000000000000000e+00,-4.200000000000000174e-04,2.999999999999999737e-05,-1.699999999999999851e-04,0.000000000000000000e+00,-1.000000000000000082e-05,4.000000000000000000e+00,2.100000000000000000e+01
5.912300000000000000e+04,1.000000000000000082e-05,1.000000000000000082e-05,0.000000000000000000e+00,-4.200000000000000174e-04,2.999999999999999737e-05,-1.699999999999999851e-04,0.000000000000000000e+00,-1.000000000000000082e-05,4.000000000000000000e+00,2.100000000000000000e+01
5.912400000000000000e+04,-2.000000000000000164e-05,1.000000000000000082e-05,8.000000000000000654e-05,2.700000000000000035e-04,2.600000000000000314e-04,-2.000000000000000164e-05,2.999999999999999737e-05,0.000000000000000000e+00,4.000000000000000000e+00,2.100000000000000000e+01
5.912500000000000000e+04,-5.999999999999999474e-05,-8.000000000000000654e-05,-9.000000000000000567e-05,1.300000000000000157e-04,-2.000000000000000164e-05,-1.000000000000000048e-04,-5.999999999999999474e-05,-5.000000000000000240e-05,4.000000000000000000e+00,2.100000000000000000e+01
5.912600000000000000e+04,1.000000000000000082e-05,-4.000000000000000327e-05,-1.000000000000000048e-04,-2.799999999999999755e-04,3.299999999999999982e-04,6.999999999999999387e-05,-2.000000000000000164e-05,-1.000000000000000082e-05,4.000000000000000000e+00,2.100000000000000000e+01
5.912700000000000000e+04,1.000000000000000082e-05,-4.000000000000000327e-05,-1.000000000000000048e-04,-2.799999999999999755e-04,3.299999999999999982e-04,6.999999999999999387e-05,-2.000000000000000164e-05,-1.000000000000000082e-05,4.000000000000000000e+00,2.100000000000000000e+01
5.912800000000000000e+04,1.000000000000000082e-05,-4.000000000000000327e-05,-1.000000000000000048e-04,-2.799999999999999755e-04,3.299999999999999982e-04,6.999999999999999387e-05,-2.000000000000000164e-05,-1.000000000000000082e-05,4.000000000000000000e+00,2.100000000000000000e+01
5.912900000000000000e+04,1.000000000000000082e-05,-4.000000000000000327e-05,-1.000000000000000048e-04,-2.799999999999999755e-04,3.299999999999999982e-04,6.999999999999999387e-05,-2.000000000000000164e-05,-1.000000000000000082e-05,4.000000000000000000e+00,2.100000000000000000e+01
5.913000000000000000e+04,1.000000000000000082e-05,-4.000000000000000327e-05,-1.000000000000000048e-04,-2.799999999999999755e-04,3.299999999999999982e-04,6.999999999999999387e-05,-2.000000000000000164e-05,-1.000000000000000082e-05,4.000000000000000000e+00,2.100000000000000000e+01
5.913100000000000000e+04,1.000000000000000082e-05,-4.000000000000000327e-05,-1.000000000000000048e-04,-2.799999999999999755e-04,3.299999999999999982e-04,6.999999999999999387e-05,-2.000000000000000164e-05,-1.000000000000000082e-05,4.000000000000000000e+00,2.100000000000000000e+01
5.913200000000000000e+04,1.000000000000000082e-05,-4.000000000000000327e-05,-1.000000000000000048e-04,-2.799999999999999755e-04,3.299999999999999982e-04,6.999999999999999387e-05,-2.000000000000000164e-05,-1.000000000000000082e-05,4.000000000000000000e+00,2.100000000000000000e+01
5.913300000000000000e+04,1.000000000000000082e-05,-4.000000000000000327e-05,-1.000000000000000048e-04,-2.799999999999999755e-04,3.299999999999999982e-04,6.999999999999999387e-05,-2.000000000000000164e-05,-1.000000000000000082e-05,4.000000000000000000e+00,2.100000000000000000e+01
5.913400000000000000e+04,1.000000000000000082e-05,-4.000000000000000327e-05,-1.000000000000000048e-04,-2.799999999999999755e-04,3.299999999999999982e-04,6.999999999999999387e-05,-2.000000000000000164e-05,-1.000000000000000082e-05,4.000000000000000000e+00,2.100000000000000000e+01
5.913500000000000000e+04,1.000000000000000082e-05,-4.000000000000000327e-05,-1.000000000000000048e-04,-2.799999999999999755e-04,3.299999999999999982e-04,6.999999999999999387e-05,-2.000000000000000164e-05,-1.000000000000000082e-05,4.000000000000000000e+00,2.100000000000000000e+01
5.913600000000000000e+04,1.000000000000000082e-05,-4.000000000000000327e-05,-1.000000000000000048e-04,-2.799999999999999755e-04,3.299999999999999982e-04,6.999999999999999387e-05,-2.000000000000000164e-05,-1.000000000000000082e-05,4.000000000000000000e+00,2.100000000000000000e+01
5.913800000000000000e+04,1.000000000000000082e-05,-4.000000000000000327e-05,-1.000000000000000048e-04,-2.799999999999999755e-04,3.299999999999999982e-04,6.999999999999999387e-05,-2.000000000000000164e-05,-1.000000000000000082e-05,4.000000000000000000e+00,2.100000000000000000e+01
5.913900000000000000e+04,2.000000000000000164e-05,1.000000000000000082e-05,1.000000000000000082e-05,-5.000000000000000240e-05,0.000000000000000000e+00,-2.999999999999999737e-05,0.000000000000000000e+00,-1.000000000000000082e-05,4.000000000000000000e+00,2.100000000000000000e+01
5.914000000000000000e+04,2.000000000000000164e-05,1.000000000000000082e-05,1.000000000000000082e-05,-5.000000000000000240e-05,0.000000000000000000e+00,-2.999999999999999737e-05,0.000000000000000000e+00,-1.000000000000000082e-05,4.000000000000000000e+00,2.100000000000000000e+01
5.914100000000000000e+04,2.000000000000000164e-05,1.000000000000000082e-05,1.000000000000000082e-05,-5.000000000000000240e-05,0.000000000000000000e+00,-2.999999999999999737e-05,0.000000000000000000e+00,-1.000000000000000082e-05,4.000000000000000000e+00,2.100000000000000000e+01
5.914200000000000000e+04,2.000000000000000164e-05,1.000000000000000082e-05,1.000000000000000082e-05,-5.000000000000000240e-05,0.000000000000000000e+00,-2.999999999999999737e-05,0.000000000000000000e+00,-1.000000000000000082e-05,4.000000000000000000e+00,2.100000000000000000e+01
5.914300000000000000e+04,2.000000000000000164e-05,1.000000000000000082e-05,1.000000000000000082e-05,-5.000000000000000240e-05,0.000000000000000000e+00,-2.999999999999999737e-05,0.000000000000000000e+00,-1.000000000000000082e-05,4.000000000000000000e+00,2.100000000000000000e+01
5.914400000000000000e+04,2.000000000000000164e-05,1.000000000000000082e-05,1.000000000000000082e-05,-5.000000000000000240e-05,0.000000000000000000e+00,-2.999999999999999737e-05,0.000000000000000000e+00,-1.000000000000000082e-05,4.000000000000000000e+00,2.100000000000000000e+01
5.914500000000000000e+04,-1.000000000000000082e-05,4.000000000000000327e-05,9.000000000000000567e-05,1.800000000000000113e-04,5.900000000000000296e-04,9.000000000000000567e-05,2.000000000000000164e-05,1.000000000000000082e-05,4.000000000000000000e+00,2.100000000000000000e+01
5.914600000000000000e+04,2.000000000000000164e-05,0.000000000000000000e+00,1.199999999999999895e-04,6.300000000000000261e-04,1.499999999999999869e-04,0.000000000000000000e+00,2.000000000000000164e-05,1.000000000000000082e-05,4.000000000000000000e+00,2.100000000000000000e+01
5.914700000000000000e+04,2.000000000000000164e-05,0.000000000000000000e+00,1.199999999999999895e-04,6.300000000000000261e-04,1.499999999999999869e-04,0.000000000000000000e+00,2.000000000000000164e-05,1.000000000000000082e-05,4.000000000000000000e+00,2.100000000000000000e+01
5.914800000000000000e+04,2.000000000000000164e-05,0.000000000000000000e+00,1.199999999999999895e-04,6.300000000000000261e-04,1.499999999999999869e-04,0.000000000000000000e+00,2.000000000000000164e-05,1.000000000000000082e-05,4.000000000000000000e+00,2.100000000000000000e+01
5.914900000000000000e+04,2.000000000000000164e-05,0.000000000000000000e+00,1.199999999999999895e-04,6.300000000000000261e-04,1.499999999999999869e-04,0.000000000000000000e+00,2.000000000000000164e-05,1.000000000000000082e-05,4.000000000000000000e+00,2.100000000000000000e+01
5.915000000000000000e+04,2.000000000000000164e-05,0.000000000000000000e+00,1.199999999999999895e-04,6.300000000000000261e-04,1.499999999999999869e-04,0.000000000000000000e+00,2.000000000000000164e-05,1.000000000000000082e-05,4.000000000000000000e+00,2.100000000000000000e+01
5.915100000000000000e+04,2.000000000000000164e-05,0.000000000000000000e+00,1.199999999999999895e-04,6.300000000000000261e-04,1.499999999999999869e-04,0.000000000000000000e+00,2.000000000000000164e-05,1.000000000000000082e-05,4.000000000000000000e+00,2.100000000000000000e+01
5.915200000000000000e+04,2.000000000000000164e-05,0.000000000000000000e+00,1.199999999999999895e-04,6.300000000000000261e-04,1.499999999999999869e-04,0.000000000000000000e+00,2.000000000000000164e-05,1.000000000000000082e-05,4.000000000000000000e+00,2.100000000000000000e+01
5.915300000000000000e+04,2.000000000000000164e-05,0.000000000000000000e+00,1.199999999999999895e-04,6.300000000000000261e-04,1.499999999999999869e-04,0.000000000000000000e+00,2.000000000000000164e-05,1.000000000000000082e-05,4.000000000000000000e+00,2.100000000000000000e+01
5.915400000000000000e+04,2.000000000000000164e-05,0.000000000000000000e+00,1.199999999999999895e-04,6.300000000000000261e-04,1.499999999999999869e-04,0.000000000000000000e+00,2.000000000000000164e-05,1.000000000000000082e-05,4.000000000000000000e+00,2.100000000000000000e+01
5.915500000000000000e+04,2.000000000000000164e-05,0.000000000000000000e+00,1.199999999999999895e-04,6.300000000000000261e-04,1.499999999999999869e-04,0.000000000000000000e+00,2.000000000000000164e-05,1.000000000000000082e-05,4.000000000000000000e+00,2.100000000000000000e+01
5.915600000000000000e+04,2.000000000000000164e-05,0.000000000000000000e+00,1.199999999999999895e-04,6.300000000000000261e-04,1.499999999999999869e-04,0.000000000000000000e+00,2.000000000000000164e-05,1.000000000000000082e-05,4.000000000000000000e+00,2.100000000000000000e+01
5.915700000000000000e+04,2.000000000000000164e-05,0.000000000000000000e+00,1.199999999999999895e-04,6.300000000000000261e-04,1.499999999999999869e-04,0.000000000000000000e+00,2.000000000000000164e-05,1.000000000000000082e-05,4.000000000000000000e+00,2.100000000000000000e+01
5.915800000000000000e+04,2.000000000000000164e-05,0.000000000000000000e+00,1.199999999999999895e-04,6.300000000000000261e-04,1.499999999999999869e-04,0.000000000000000000e+00,2.000000000000000164e-05,1.000000000000000082e-05,4.000000000000000000e+00,2.100000000000000000e+01
5.915900000000000000e+04,2.000000000000000164e-05,0.000000000000000000e+00,1.199999999999999895e-04,6.300000000000000261e-04,1.499999999999999869e-04,0.000000000000000000e+00,2.000000000000000164e-05,1.000000000000000082e-05,4.000000000000000000e+00,2.100000000000000000e+01
5.916000000000000000e+04,2.000000000000000164e-05,0.000000000000000000e+00,1.199999999999999895e-04,6.300000000000000261e-04,1.499999999999999869e-04,0.000000000000000000e+00,2.000000000000000164e-05,1.000000000000000082e-05,4.000000000000000000e+00,2.100000000000000000e+01
5.916100000000000000e+04,2.000000000000000164e-05,0.000000000000000000e+00,1.199999999999999895e-04,6.300000000000000261e-04,1.499999999999999869e-04,0.000000000000000000e+00,2.000000000000000164e-05,1.000000000000000082e-05,4.000000000000000000e+00,2.100000000000000000e+01
5.916200000000000000e+04,0.000000000000000000e+00,0.000000000000000000e+00,2.999999999999999737e-05,1.300000000000000157e-04,1.300000000000000157e-04,2.399999999999999790e-04,2.000000000000000164e-05,-1.000000000000000082e-05,4.000000000000000000e+00,2.100000000000000000e+01
5.916300000000000000e+04,-2.000000000000000164e-05,-2.999999999999999737e-05,-5.999999999999999474e-05,-2.100000000000000087e-04,2.399999999999999790e-04,-8.000000000000000654e-05,-2.999999999999999737e-05,0.000000000000000000e+00,4.000000000000000000e+00,2.100000000000000000e+01
5.916400000000000000e+04,-1.000000000000000082e-05,4.000000000000000327e-05,9.000000000000000567e-05,0.000000000000000000e+00,-2.900000000000000017e-04,-5.500000000000000331e-04,2.000000000000000164e-05,-1.000000000000000082e-05,4.000000000000000000e+00,2.100000000000000000e+01
5.916500000000000000e+04,-1.000000000000000082e-05,4.000000000000000327e-05,9.000000000000000567e-05,0.000000000000000000e+00,-2.900000000000000017e-04,-5.500000000000000331e-04,2.000000000000000164e-05,-1.000000000000000082e-05,4.000000000000000000e+00,2.100000000000000000e+01
5.916600000000000000e+04,-1.000000000000000082e-05,4.000000000000000327e-05,9.000000000000000567e-05,0.000000000000000000e+00,-2.900000000000000017e-04,-5.500000000000000331e-04,2.000000000000000164e-05,-1.000000000000000082e-05,4.000000000000000000e+00,2.100000000000000000e+01
5.916700000000000000e+04,-1.000000000000000082e-05,4.000000000000000327e-05,9.000000000000000567e-05,0.000000000000000000e+00,-2.900000000000000017e-04,-5.500000000000000331e-04,2.000000000000000164e-05,-1.000000000000000082e-05,4.000000000000000000e+00,2.100000000000000000e+01
5.916800000000000000e+04,-1.000000000000000082e-05,4.000000000000000327e-05,9.000000000000000567e-05,0.000000000000000000e+00,-2.900000000000000017e-04,-5.500000000000000331e-04,2.000000000000000164e-05,-1.000000000000000082e-05,4.000000000000000000e+00,2.100000000000000000e+01
5.916900000000000000e+04,-1.000000000000000082e-05,4.000000000000000327e-05,9.000000000000000567e-05,0.000000000000000000e+00,-2.900000000000000017e-04,-5.500000000000000331e-04,2.000000000000000164e-05,-1.000000000000000082e-05,4.000000000000000000e+00,2.100000000000000000e+01
5.917000000000000000e+04,-1.000000000000000082e-05,4.000000000000000327e-05,9.000000000000000567e-05,0.000000000000000000e+00,-2.900000000000000017e-04,-5.500000000000000331e-04,2.000000000000000164e-05,-1.000000000000000082e-05,4.000000000000000000e+00,2.100000000000000000e+01
5.917100000000000000e+04,-1.000000000000000082e-05,4.000000000000000327e-05,9.000000000000000567e-05,0.000000000000000000e+00,-2.900000000000000017e-04,-5.500000000000000331e-04,2.000000000000000164e-05,-1.000000000000000082e-05,4.000000000000000000e+00,2.100000000000000000e+01
5.917200000000000000e+04,-1.000000000000000082e-05,4.000000000000000327e-05,9.000000000000000567e-05,0.000000000000000000e+00,-2.900000000000000017e-04,-5.500000000000000331e-04,2.000000000000000164e-05,-1.000000000000000082e-05,4.000000000000000000e+00,2.100000000000000000e+01
5.917300000000000000e+04,-1.000000000000000082e-05,4.000000000000000327e-05,9.000000000000000567e-05,0.000000000000000000e+00,-2.900000000000000017e-04,-5.500000000000000331e-04,2.000000000000000164e-05,-1.000000000000000082e-05,4.000000000000000000e+00,2.100000000000000000e+01
5.917400000000000000e+04,-1.000000000000000082e-05,4.000000000000000327e-05,9.000000000000000567e-05,0.000000000000000000e+00,-2.900000000000000017e-04,-5.500000000000000331e-04,2.000000000000000164e-05,-1.000000000000000082e-05,4.000000000000000000e+00,2.100000000000000000e+01
5.917500000000000000e+04,-1.000000000000000082e-05,4.000000000000000327e-05,9.000000000000000567e-05,0.000000000000000000e+00,-2.900000000000000017e-04,-5.500000000000000331e-04,2.000000000000000164e-05,-1.000000000000000082e-05,4.000000000000000000e+00,2.100000000000000000e+01
5.917600000000000000e+04,-1.000000000000000082e-05,4.000000000000000327e-05,9.000000000000000567e-05,0.000000000000000000e+00,-2.900000000000000017e-04,-5.500000000000000331e-04,2.000000000000000164e-05,-1.000000000000000082e-05,4.000000000000000000e+00,2.100000000000000000e+01
5.917700000000000000e+04,-1.000000000000000082e-05,4.000000000000000327e-05,9.000000000000000567e-05,0.000000000000000000e+00,-2.900000000000000017e-04,-5.500000000000000331e-04,2.000000000000000164e-05,-1.000000000000000082e-05,4.000000000000000000e+00,2.100000000000000000e+01
5.917800000000000000e+04,-1.000000000000000082e-05,4.000000000000000327e-05,9.000000000000000567e-05,0.000000000000000000e+00,-2.900000000000000017e-04,-5.500000000000000331e-04,2.000000000000000164e-05,-1.000000000000000082e-05,4.000000000000000000e+00,2.100000000000000000e+01
5.917900000000000000e+04,-1.000000000000000082e-05,4.000000000000000327e-05,9.000000000000000567e-05,0.000000000000000000e+00,-2.900000000000000017e-04,-5.500000000000000331e-04,2.000000000000000164e-05,-1.000000000000000082e-05,4.000000000000000000e+00,2.100000000000000000e+01
5.918000000000000000e+04,-1.000000000000000082e-05,4.000000000000000327e-05,9.000000000000000567e-05,0.000000000000000000e+00,-2.900000000000000017e-04,-5.500000000000000331e-04,2.000000000000000164e-05,-1.000000000000000082e-05,4.000000000000000000e+00,2.100000000000000000e+01
5.918100000000000000e+04,-1.000000000000000082e-05,4.000000000000000327e-05,9.000000000000000567e-05,0.000000000000000000e+00,-2.900000000000000017e-04,-5.500000000000000331e-04,2.000000000000000164e-05,-1.000000000000000082e-05,4.000000000000000000e+00,2.100000000000000000e+01
5.918200000000000000e+04,-1.000000000000000082e-05,4.000000000000000327e-05,9.000000000000000567e-05,0.000000000000000000e+00,-2.900000000000000017e-04,-5.500000000000000331e-04,2.000000000000000164e-05,-1.000000000000000082e-05,4.000000000000000000e+00,2.100000000000000000e+01
5.918300000000000000e+04,-1.000000000000000082e-05,4.000000000000000327e-05,9.000000000000000567e-05,0.000000000000000000e+00,-2.900000000000000017e-04,-5.500000000000000331e-04,2.000000000000000164e-05,-1.000000000000000082e-05,4.000000000000000000e+00,2.100000000000000000e+01
5.918400000000000000e+04,-2.999999999999999737e-05,-2.999999999999999737e-05,4.000000000000000327e-05,1.300000000000000157e-04,8.999999999999999754e-04,-5.999999999999999474e-05,-4.000000000000000327e-05,1.000000000000000082e-05,4.000000000000000000e+00,2.100000000000000000e+01
5.918500000000000000e+04,-2.999999999999999737e-05,-1.000000000000000082e-05,1.000000000000000082e-05,-4.000000000000000327e-05,-2.700000000000000035e-04,1.800000000000000113e-04,1.000000000000000082e-05,2.000000000000000164e-05,4.000000000000000000e+00,2.100000000000000000e+01
5.918700000000000000e+04,-1.000000000000000082e-05,-2.000000000000000164e-05,2.000000000000000164e-05,2.200000000000000078e-04,-2.200000000000000078e-04,1.000000000000000048e-04,2.000000000000000164e-05,1.000000000000000082e-05,4.000000000000000000e+00,2.100000000000000000e+01
5.918900000000000000e+04,-1.000000000000000082e-05,-2.000000000000000164e-05,2.000000000000000164e-05,2.200000000000000078e-04,-2.200000000000000078e-04,1.000000000000000048e-04,2.000000000000000164e-05,1.000000000000000082e-05,4.000000000000000000e+00,2.100000000000000000e+01
5.919000000000000000e+04,-1.000000000000000082e-05,-2.000000000000000164e-05,2.000000000000000164e-05,2.200000000000000078e-04,-2.200000000000000078e-04,1.000000000000000048e-04,2.000000000000000164e-05,1.000000000000000082e-05,4.000000000000000000e+00,2.100000000000000000e+01
5.919100000000000000e+04,-1.000000000000000082e-05,-2.000000000000000164e-05,2.000000000000000164e-05,2.200000000000000078e-04,-2.200000000000000078e-04,1.000000000000000048e-04,2.000000000000000164e-05,1.000000000000000082e-05,4.000000000000000000e+00,2.100000000000000000e+01
5.919200000000000000e+04,-1.000000000000000082e-05,-2.000000000000000164e-05,2.000000000000000164e-05,2.200000000000000078e-04,-2.200000000000000078e-04,1.000000000000000048e-04,2.000000000000000164e-05,1.000000000000000082e-05,4.000000000000000000e+00,2.100000000000000000e+01
5.919300000000000000e+04,-1.000000000000000082e-05,-2.000000000000000164e-05,2.000000000000000164e-05,2.200000000000000078e-04,-2.200000000000000078e-04,1.000000000000000048e-04,2.000000000000000164e-05,1.000000000000000082e-05,4.000000000000000000e+00,2.100000000000000000e+01
5.919400000000000000e+04,-1.000000000000000082e-05,-2.000000000000000164e-05,2.000000000000000164e-05,2.200000000000000078e-04,-2.200000000000000078e-04,1.000000000000000048e-04,2.000000000000000164e-05,1.000000000000000082e-05,4.000000000000000000e+00,2.100000000000000000e+01
5.919500000000000000e+04,-1.000000000000000082e-05,-2.000000000000000164e-05,2.000000000000000164e-05,2.200000000000000078e-04,-2.200000000000000078e-04,1.000000000000000048e-04,2.000000000000000164e-05,1.000000000000000082e-05,4.000000000000000000e+00,2.100000000000000000e+01
5.919600000000000000e+04,-1.000000000000000082e-05,-2.000000000000000164e-05,2.000000000000000164e-05,2.200000000000000078e-04,-2.200000000000000078e-04,1.000000000000000048e-04,2.000000000000000164e-05,1.000000000000000082e-05,4.000000000000000000e+00,2.100000000000000000e+01
5.919700000000000000e+04,-1.000000000000000082e-05,-2.000000000000000164e-05,2.000000000000000164e-05,2.200000000000000078e-04,-2.200000000000000078e-04,1.000000000000000048e-04,2.000000000000000164e-05,1.000000000000000082e-05,4.000000000000000000e+00,2.100000000000000000e+01
5.919800000000000000e+04,-1.000000000000000082e-05,-2.000000000000000164e-05,2.000000000000000164e-05,2.200000000000000078e-04,-2.200000000000000078e-04,1.000000000000000048e-04,2.000000000000000164e-05,1.000000000000000082e-05,4.000000000000000000e+00,2.100000000000000000e+01
5.919900000000000000e+04,-1.000000000000000082e-05,0.000000000000000000e+00,5.999999999999999474e-05,-2.999999999999999737e-05,-6.499999999999999702e-04,-1.199999999999999895e-04,-5.999999999999999474e-05,-4.000000000000000327e-05,4.000000000000000000e+00,2.100000000000000000e+01
5.920000000000000000e+04,-1.000000000000000082e-05,0.000000000000000000e+00,5.999999999999999474e-05,-2.999999999999999737e-05,-6.499999999999999702e-04,-1.199999999999999895e-04,-5.999999999999999474e-05,-4.000000000000000327e-05,4.000000000000000000e+00,2.100000000000000000e+01
5.920100000000000000e+04,-1.000000000000000082e-05,0.000000000000000000e+00,5.999999999999999474e-05,-2.999999999999999737e-05,-6.499999999999999702e-04,-1.199999999999999895e-04,-5.999999999999999474e-05,-4.000000000000000327e-05,4.000000000000000000e+00,2.100000000000000000e+01
5.920200000000000000e+04,-1.000000000000000082e-05,0.000000000000000000e+00,5.999999999999999474e-05,-2.999999999999999737e-05,-6.499999999999999702e-04,-1.199999999999999895e-04,-5.999999999999999474e-05,-4.000000000000000327e-05,4.000000000000000000e+00,2.100000000000000000e+01
5.920300000000000000e+04,-1.000000000000000082e-05,0.000000000000000000e+00,5.999999999999999474e-05,-2.999999999999999737e-05,-6.499999999999999702e-04,-1.199999999999999895e-04,-5.999999999999999474e-05,-4.000000000000000327e-05,4.000000000000000000e+00,2.100000000000000000e+01
5.920400000000000000e+04,-1.000000000000000082e-05,0.000000000000000000e+00,5.999999999999999474e-05,-2.999999999999999737e-05,-6.499999999999999702e-04,-1.199999999999999895e-04,-5.999999999999999474e-05,-4.000000000000000327e-05,4.000000000000000000e+00,2.100000000000000000e+01
5.920500000000000000e+04,2.000000000000000164e-05,0.000000000000000000e+00,5.000000000000000240e-05,2.000000000000000164e-05,-5.000000000000000104e-04,6.999999999999999387e-05,-2.000000000000000164e-05,-2.000000000000000164e-05,4.000000000000000000e+00,2.100000000000000000e+01
5.920600000000000000e+04,-2.000000000000000164e-05,-1.000000000000000082e-05,-5.000000000000000240e-05,-3.799999999999999667e-04,-5.200000000000000629e-04,-4.000000000000000327e-05,-1.000000000000000082e-05,-2.000000000000000164e-05,4.000000000000000000e+00,2.100000000000000000e+01
5.920700000000000000e+04,-2.000000000000000164e-05,-1.000000000000000082e-05,-5.000000000000000240e-05,-3.799999999999999667e-04,-5.200000000000000629e-04,-4.000000000000000327e-05,-1.000000000000000082e-05,-2.000000000000000164e-05,4.000000000000000000e+00,2.100000000000000000e+01
5.920800000000000000e+04,-2.000000000000000164e-05,-1.000000000000000082e-05,-5.000000000000000240e-05,-3.799999999999999667e-04,-5.200000000000000629e-04,-4.000000000000000327e-05,-1.000000000000000082e-05,-2.000000000000000164e-05,4.000000000000000000e+00,2.100000000000000000e+01
5.920900000000000000e+04,-2.000000000000000164e-05,-1.000000000000000082e-05,-5.000000000000000240e-05,-3.799999999999999667e-04,-5.200000000000000629e-04,-4.000000000000000327e-05,-1.000000000000000082e-05,-2.000000000000000164e-05,4.000000000000000000e+00,2.100000000000000000e+01
5.921000000000000000e+04,-2.000000000000000164e-05,-1.000000000000000082e-05,-5.000000000000000240e-05,-3.799999999999999667e-04,-5.200000000000000629e-04,-4.000000000000000327e-05,-1.000000000000000082e-05,-2.000000000000000164e-05,4.000000000000000000e+00,2.100000000000000000e+01
5.921100000000000000e+04,-2.000000000000000164e-05,-1.000000000000000082e-05,-5.000000000000000240e-05,-3.799999999999999667e-04,-5.200000000000000629e-04,-4.000000000000000327e-05,-1.000000000000000082e-05,-2.000000000000000164e-05,4.000000000000000000e+00,2.100000000000000000e+01
5.921200000000000000e+04,-2.000000000000000164e-05,-1.000000000000000082e-05,-5.000000000000000240e-05,-3.799999999999999667e-04,-5.200000000000000629e-04,-4.000000000000000327e-05,-1.000000000000000082e-05,-2.000000000000000164e-05,4.000000000000000000e+00,2.100000000000000000e+01
5.921300000000000000e+04,-2.000000000000000164e-05,-1.000000000000000082e-05,-5.000000000000000240e-05,-3.799999999999999667e-04,-5.200000000000000629e-04,-4.000000000000000327e-05,-1.000000000000000082e-05,-2.000000000000000164e-05,4.000000000000000000e+00,2.100000000000000000e+01
5.921400000000000000e+04,-2.000000000000000164e-05,-1.000000000000000082e-05,-5.000000000000000240e-05,-3.799999999999999667e-04,-5.200000000000000629e-04,-4.000000000000000327e-05,-1.000000000000000082e-05,-2.000000000000000164e-05,4.000000000000000000e+00,2.100000000000000000e+01
5.921500000000000000e+04,-2.000000000000000164e-05,-1.000000000000000082e-05,-5.000000000000000240e-05,-3.799999999999999667e-04,-5.200000000000000629e-04,-4.000000000000000327e-05,-1.000000000000000082e-05,-2.000000000000000164e-05,4.000000000000000000e+00,2.100000000000000000e+01
5.921600000000000000e+04,-2.000000000000000164e-05,-1.000000000000000082e-05,-5.000000000000000240e-05,-3.799999999999999667e-04,-5.200000000000000629e-04,-4.000000000000000327e-05,-1.000000000000000082e-05,-2.000000000000000164e-05,4.000000000000000000e+00,2.100000000000000000e+01
5.921700000000000000e+04,-2.000000000000000164e-05,-1.000000000000000082e-05,-5.000000000000000240e-05,-3.799999999999999667e-04,-5.200000000000000629e-04,-4.000000000000000327e-05,-1.000000000000000082e-05,-2.000000000000000164e-05,4.000000000000000000e+00,2.100000000000000000e+01
5.921800000000000000e+04,-2.000000000000000164e-05,-1.000000000000000082e-05,-5.000000000000000240e-05,-3.799999999999999667e-04,-5.200000000000000629e-04,-4.000000000000000327e-05,-1.000000000000000082e-05,-2.000000000000000164e-05,4.000000000000000000e+00,2.100000000000000000e+01
5.921900000000000000e+04,-2.000000000000000164e-05,-1.000000000000000082e-05,-5.000000000000000240e-05,-3.799999999999999667e-04,-5.200000000000000629e-04,-4.000000000000000327e-05,-1.000000000000000082e-05,-2.000000000000000164e-05,4.000000000000000000e+00,2.100000000000000000e+01
5.922000000000000000e+04,-2.000000000000000164e-05,-1.000000000000000082e-05,-5.000000000000000240e-05,-3.799999999999999667e-04,-5.200000000000000629e-04,-4.000000000000000327e-05,-1.000000000000000082e-05,-2.000000000000000164e-05,4.000000000000000000e+00,2.100000000000000000e+01
5.922100000000000000e+04,-2.000000000000000164e-05,-1.000000000000000082e-05,-5.000000000000000240e-05,-3.799999999999999667e-04,-5.200000000000000629e-04,-4.000000000000000327e-05,-1.000000000000000082e-05,-2.000000000000000164e-05,4.000000000000000000e+00,2.100000000000000000e+01
5.922200000000000000e+04,-5.000000000000000240e-05,-8.000000000000000654e-05,-1.699999999999999851e-04,-2.500000000000000052e-04,1.199999999999999895e-04,-1.100000000000000039e-04,-2.999999999999999737e-05,-1.000000000000000082e-05,4.000000000000000000e+00,2.100000000000000000e+01
5.922300000000000000e+04,1.000000000000000082e-05,2.000000000000000164e-05,9.000000000000000567e-05,1.000000000000000082e-05,1.399999999999999877e-04,9.000000000000000567e-05,4.000000000000000327e-05,0.000000000000000000e+00,4.000000000000000000e+00,2.100000000000000000e+01
5.922400000000000000e+04,0.000000000000000000e+00,1.000000000000000082e-05,4.000000000000000327e-05,-1.199999999999999895e-04,0.000000000000000000e+00,1.499999999999999869e-04,0.000000000000000000e+00,-2.999999999999999737e-05,4.000000000000000000e+00,2.100000000000000000e+01
5.922500000000000000e+04,0.000000000000000000e+00,1.000000000000000082e-05,4.000000000000000327e-05,-1.199999999999999895e-04,0.000000000000000000e+00,1.499999999999999869e-04,0.000000000000000000e+00,-2.999999999999999737e-05,4.000000000000000000e+00,2.100000000000000000e+01
5.922600000000000000e+04,0.000000000000000000e+00,1.000000000000000082e-05,4.000000000000000327e-05,-1.199999999999999895e-04,0.000000000000000000e+00,1.499999999999999869e-04,0.000000000000000000e+00,-2.999999999999999737e-05,4.000000000000000000e+00,2.100000000000000000e+01
5.922700000000000000e+04,0.000000000000000000e+00,1.000000000000000082e-05,4.000000000000000327e-05,-1.199999999999999895e-04,0.000000000000000000e+00,1.499999999999999869e-04,0.000000000000000000e+00,-2.999999999999999737e-05,4.000000000000000000e+00,2.100000000000000000e+01
5.922800000000000000e+04,0.000000000000000000e+00,1.000000000000000082e-05,4.000000000000000327e-05,-1.199999999999999895e-04,0.000000000000000000e+00,1.499999999999999869e-04,0.000000000000000000e+00,-2.999999999999999737e-05,4.000000000000000000e+00,2.100000000000000000e+01
5.922900000000000000e+04,0.000000000000000000e+00,1.000000000000000082e-05,4.000000000000000327e-05,-1.199999999999999895e-04,0.000000000000000000e+00,1.499999999999999869e-04,0.000000000000000000e+00,-2.999999999999999737e-05,4.000000000000000000e+00,2.100000000000000000e+01
5.923000000000000000e+04,0.000000000000000000e+00,1.000000000000000082e-05,4.000000000000000327e-05,-1.199999999999999895e-04,0.000000000000000000e+00,1.499999999999999869e-04,0.000000000000000000e+00,-2.999999999999999737e-05,4.000000000000000000e+00,2.100000000000000000e+01
5.923100000000000000e+04,0.000000000000000000e+00,1.000000000000000082e-05,4.000000000000000327e-05,-1.199999999999999895e-04,0.000000000000000000e+00,1.499999999999999869e-04,0.000000000000000000e+00,-2.999999999999999737e-05,4.000000000000000000e+00,2.100000000000000000e+01
5.923200000000000000e+04,0.000000000000000000e+00,1.000000000000000082e-05,4.000000000000000327e-05,-1.199999999999999895e-04,0.000000000000000000e+00,1.499999999999999869e-04,0.000000000000000000e+00,-2.999999999999999737e-05,4.000000000000000000e+00,2.100000000000000000e+01
