2.494200000000000000e+04,1.000000000000000082e-05,-2.999999999999999737e-05,-2.700000000000000035e-04,-4.000000000000000192e-04,3.299999999999999982e-04,2.399999999999999790e-04,8.000000000000000654e-05,2.999999999999999737e-05,5.000000000000000000e+00,9.000000000000000000e+00
2.494300000000000000e+04,1.000000000000000082e-05,-2.999999999999999737e-05,-2.700000000000000035e-04,-4.000000000000000192e-04,3.299999999999999982e-04,2.399999999999999790e-04,8.000000000000000654e-05,2.999999999999999737e-05,5.000000000000000000e+00,9.000000000000000000e+00
2.494400000000000000e+04,1.000000000000000082e-05,-2.999999999999999737e-05,-2.700000000000000035e-04,-4.000000000000000192e-04,3.299999999999999982e-04,2.399999999999999790e-04,8.000000000000000654e-05,2.999999999999999737e-05,5.000000000000000000e+00,9.000000000000000000e+00
2.494500000000000000e+04,1.000000000000000082e-05,-2.999999999999999737e-05,-2.700000000000000035e-04,-4.000000000000000192e-04,3.299999999999999982e-04,2.399999999999999790e-04,8.000000000000000654e-05,2.999999999999999737e-05,5.000000000000000000e+00,9.000000000000000000e+00
2.494600000000000000e+04,1.000000000000000082e-05,-2.999999999999999737e-05,-2.700000000000000035e-04,-4.000000000000000192e-04,3.299999999999999982e-04,2.399999999999999790e-04,8.000000000000000654e-05,2.999999999999999737e-05,5.000000000000000000e+00,9.000000000000000000e+00
2.494700000000000000e+04,1.000000000000000082e-05,-2.999999999999999737e-05,-2.700000000000000035e-04,-4.000000000000000192e-04,3.299999999999999982e-04,2.399999999999999790e-04,8.000000000000000654e-05,2.999999999999999737e-05,5.000000000000000000e+00,9.000000000000000000e+00
2.494800000000000000e+04,1.000000000000000082e-05,-2.999999999999999737e-05,-2.700000000000000035e-04,-4.000000000000000192e-04,3.299999999999999982e-04,2.399999999999999790e-04,8.000000000000000654e-05,2.999999999999999737e-05,5.000000000000000000e+00,9.000000000000000000e+00
2.494900000000000000e+04,1.000000000000000082e-05,-2.999999999999999737e-05,-2.700000000000000035e-04,-4.000000000000000192e-04,3.299999999999999982e-04,2.399999999999999790e-04,8.000000000000000654e-05,2.999999999999999737e-05,5.000000000000000000e+00,9.000000000000000000e+00
2.495000000000000000e+04,1.000000000000000082e-05,-2.999999999999999737e-05,-2.700000000000000035e-04,-4.000000000000000192e-04,3.299999999999999982e-04,2.399999999999999790e-04,8.000000000000000654e-05,2.999999999999999737e-05,5.000000000000000000e+00,9.000000000000000000e+00
2.495100000000000000e+04,1.000000000000000082e-05,1.199999999999999895e-04,3.499999999999999964e-04,-9.000000000000000567e-05,1.000000000000000082e-05,2.999999999999999737e-05,-1.399999999999999877e-04,-5.999999999999999474e-05,5.000000000000000000e+00,9.000000000000000000e+00
2.495200000000000000e+04,-5.999999999999999474e-05,-1.600000000000000131e-04,-3.600000000000000227e-04,3.499999999999999964e-04,5.999999999999999474e-04,0.000000000000000000e+00,-2.000000000000000164e-05,-5.000000000000000240e-05,5.000000000000000000e+00,9.000000000000000000e+00
2.495300000000000000e+04,4.000000000000000327e-05,1.899999999999999834e-04,6.499999999999999702e-04,1.499999999999999869e-04,8.000000000000000654e-05,4.000000000000000327e-05,0.000000000000000000e+00,5.000000000000000240e-05,5.000000000000000000e+00,9.000000000000000000e+00
2.495400000000000000e+04,4.000000000000000327e-05,1.899999999999999834e-04,6.499999999999999702e-04,1.499999999999999869e-04,8.000000000000000654e-05,4.000000000000000327e-05,0.000000000000000000e+00,5.000000000000000240e-05,5.000000000000000000e+00,9.000000000000000000e+00
2.495500000000000000e+04,4.000000000000000327e-05,1.899999999999999834e-04,6.499999999999999702e-04,1.499999999999999869e-04,8.000000000000000654e-05,4.000000000000000327e-05,0.000000000000000000e+00,5.000000000000000240e-05,5.000000000000000000e+00,9.000000000000000000e+00
2.495600000000000000e+04,4.000000000000000327e-05,1.899999999999999834e-04,6.499999999999999702e-04,1.499999999999999869e-04,8.000000000000000654e-05,4.000000000000000327e-05,0.000000000000000000e+00,5.000000000000000240e-05,5.000000000000000000e+00,9.000000000000000000e+00
2.495700000000000000e+04,4.000000000000000327e-05,1.899999999999999834e-04,6.499999999999999702e-04,1.499999999999999869e-04,8.000000000000000654e-05,4.000000000000000327e-05,0.000000000000000000e+00,5.000000000000000240e-05,5.000000000000000000e+00,9.000000000000000000e+00
2.495800000000000000e+04,4.000000000000000327e-05,1.899999999999999834e-04,6.499999999999999702e-04,1.499999999999999869e-04,8.000000000000000654e-05,4.000000000000000327e-05,0.000000000000000000e+00,5.000000000000000240e-05,5.000000000000000000e+00,9.000000000000000000e+00
2.495900000000000000e+04,4.000000000000000327e-05,1.899999999999999834e-04,6.499999999999999702e-04,1.499999999999999869e-04,8.000000000000000654e-05,4.000000000000000327e-05,0.000000000000000000e+00,5.000000000000000240e-05,5.000000000000000000e+00,9.000000000000000000e+00
2.496000000000000000e+04,4.000000000000000327e-05,1.899999999999999834e-04,6.499999999999999702e-04,1.499999999999999869e-04,8.000000000000000654e-05,4.000000000000000327e-05,0.000000000000000000e+00,5.000000000000000240e-05,5.000000000000000000e+00,9.000000000000000000e+00
2.496100000000000000e+04,4.000000000000000327e-05,1.899999999999999834e-04,6.499999999999999702e-04,1.499999999999999869e-04,8.000000000000000654e-05,4.000000000000000327e-05,0.000000000000000000e+00,5.000000000000000240e-05,5.000000000000000000e+00,9.000000000000000000e+00
2.496200000000000000e+04,4.000000000000000327e-05,1.899999999999999834e-04,6.499999999999999702e-04,1.499999999999999869e-04,8.000000000000000654e-05,4.000000000000000327e-05,0.000000000000000000e+00,5.000000000000000240e-05,5.000000000000000000e+00,9.000000000000000000e+00
2.496300000000000000e+04,4.000000000000000327e-05,1.899999999999999834e-04,6.499999999999999702e-04,1.499999999999999869e-04,8.000000000000000654e-05,4.000000000000000327e-05,0.000000000000000000e+00,5.000000000000000240e-05,5.000000000000000000e+00,9.000000000000000000e+00
2.496400000000000000e+04,4.000000000000000327e-05,1.899999999999999834e-04,6.499999999999999702e-04,1.499999999999999869e-04,8.000000000000000654e-05,4.000000000000000327e-05,0.000000000000000000e+00,5.000000000000000240e-05,5.000000000000000000e+00,9.000000000000000000e+00
2.496500000000000000e+04,4.000000000000000327e-05,1.899999999999999834e-04,6.499999999999999702e-04,1.499999999999999869e-04,8.000000000000000654e-05,4.000000000000000327e-05,0.000000000000000000e+00,5.000000000000000240e-05,5.000000000000000000e+00,9.000000000000000000e+00
2.496600000000000000e+04,4.000000000000000327e-05,1.899999999999999834e-04,6.499999999999999702e-04,1.499999999999999869e-04,8.000000000000000654e-05,4.000000000000000327e-05,0.000000000000000000e+00,5.000000000000000240e-05,5.000000000000000000e+00,9.000000000000000000e+00
2.496700000000000000e+04,4.000000000000000327e-05,1.899999999999999834e-04,6.499999999999999702e-04,1.499999999999999869e-04,8.000000000000000654e-05,4.000000000000000327e-05,0.000000000000000000e+00,5.000000000000000240e-05,5.000000000000000000e+00,9.000000000000000000e+00
2.496800000000000000e+04,4.000000000000000327e-05,1.899999999999999834e-04,6.499999999999999702e-04,1.499999999999999869e-04,8.000000000000000654e-05,4.000000000000000327e-05,0.000000000000000000e+00,5.000000000000000240e-05,5.000000000000000000e+00,9.000000000000000000e+00
2.496900000000000000e+04,4.000000000000000327e-05,1.899999999999999834e-04,6.499999999999999702e-04,1.499999999999999869e-04,8.000000000000000654e-05,4.000000000000000327e-05,0.000000000000000000e+00,5.000000000000000240e-05,5.000000000000000000e+00,9.000000000000000000e+00
2.497000000000000000e+04,4.000000000000000327e-05,1.899999999999999834e-04,6.499999999999999702e-04,1.499999999999999869e-04,8.000000000000000654e-05,4.000000000000000327e-05,0.000000000000000000e+00,5.000000000000000240e-05,5.000000000000000000e+00,9.000000000000000000e+00
2.497100000000000000e+04,4.000000000000000327e-05,1.899999999999999834e-04,6.499999999999999702e-04,1.499999999999999869e-04,8.000000000000000654e-05,4.000000000000000327e-05,0.000000000000000000e+00,5.000000000000000240e-05,5.000000000000000000e+00,9.000000000000000000e+00
2.497200000000000000e+04,4.000000000000000327e-05,1.899999999999999834e-04,6.499999999999999702e-04,1.499999999999999869e-04,8.000000000000000654e-05,4.000000000000000327e-05,0.000000000000000000e+00,5.000000000000000240e-05,5.000000000000000000e+00,9.000000000000000000e+00
2.497300000000000000e+04,4.000000000000000327e-05,1.899999999999999834e-04,6.499999999999999702e-04,1.499999999999999869e-04,8.000000000000000654e-05,4.000000000000000327e-05,0.000000000000000000e+00,5.000000000000000240e-05,5.000000000000000000e+00,9.000000000000000000e+00
2.497400000000000000e+04,1.000000000000000082e-05,9.000000000000000567e-05,2.900000000000000017e-04,2.100000000000000087e-04,-1.000000000000000082e-05,-2.799999999999999755e-04,-1.699999999999999851e-04,-1.000000000000000048e-04,5.000000000000000000e+00,9.000000000000000000e+00
2.497500000000000000e+04,-9.000000000000000567e-05,-6.999999999999999387e-05,4.599999999999999597e-04,4.000000000000000327e-05,-2.000000000000000096e-04,-2.200000000000000078e-04,-2.999999999999999737e-05,-6.999999999999999387e-05,5.000000000000000000e+00,9.000000000000000000e+00
2.497600000000000000e+04,-9.000000000000000567e-05,-6.999999999999999387e-05,4.599999999999999597e-04,4.000000000000000327e-05,-2.000000000000000096e-04,-2.200000000000000078e-04,-2.999999999999999737e-05,-6.999999999999999387e-05,5.000000000000000000e+00,9.000000000000000000e+00
2.497700000000000000e+04,-9.000000000000000567e-05,-6.999999999999999387e-05,4.599999999999999597e-04,4.000000000000000327e-05,-2.000000000000000096e-04,-2.200000000000000078e-04,-2.999999999999999737e-05,-6.999999999999999387e-05,5.000000000000000000e+00,9.000000000000000000e+00
2.497800000000000000e+04,-9.000000000000000567e-05,-6.999999999999999387e-05,4.599999999999999597e-04,4.000000000000000327e-05,-2.000000000000000096e-04,-2.200000000000000078e-04,-2.999999999999999737e-05,-6.999999999999999387e-05,5.000000000000000000e+00,9.000000000000000000e+00
2.497900000000000000e+04,-9.000000000000000567e-05,-6.999999999999999387e-05,4.599999999999999597e-04,4.000000000000000327e-05,-2.000000000000000096e-04,-2.200000000000000078e-04,-2.999999999999999737e-05,-6.999999999999999387e-05,5.000000000000000000e+00,9.000000000000000000e+00
2.498000000000000000e+04,-9.000000000000000567e-05,-6.999999999999999387e-05,4.599999999999999597e-04,4.000000000000000327e-05,-2.000000000000000096e-04,-2.200000000000000078e-04,-2.999999999999999737e-05,-6.999999999999999387e-05,5.000000000000000000e+00,9.000000000000000000e+00
2.498100000000000000e+04,-9.000000000000000567e-05,-6.999999999999999387e-05,4.599999999999999597e-04,4.000000000000000327e-05,-2.000000000000000096e-04,-2.200000000000000078e-04,-2.999999999999999737e-05,-6.999999999999999387e-05,5.000000000000000000e+00,9.000000000000000000e+00
2.498200000000000000e+04,-9.000000000000000567e-05,-6.999999999999999387e-05,4.599999999999999597e-04,4.000000000000000327e-05,-2.000000000000000096e-04,-2.200000000000000078e-04,-2.999999999999999737e-05,-6.999999999999999387e-05,5.000000000000000000e+00,9.000000000000000000e+00
2.498300000000000000e+04,-9.000000000000000567e-05,-6.999999999999999387e-05,4.599999999999999597e-04,4.000000000000000327e-05,-2.000000000000000096e-04,-2.200000000000000078e-04,-2.999999999999999737e-05,-6.999999999999999387e-05,5.000000000000000000e+00,9.000000000000000000e+00
2.498400000000000000e+04,-9.000000000000000567e-05,-6.999999999999999387e-05,4.599999999999999597e-04,4.000000000000000327e-05,-2.000000000000000096e-04,-2.200000000000000078e-04,-2.999999999999999737e-05,-6.999999999999999387e-05,5.000000000000000000e+00,9.000000000000000000e+00
2.498500000000000000e+04,-9.000000000000000567e-05,-6.999999999999999387e-05,4.599999999999999597e-04,4.000000000000000327e-05,-2.000000000000000096e-04,-2.200000000000000078e-04,-2.999999999999999737e-05,-6.999999999999999387e-05,5.000000000000000000e+00,9.000000000000000000e+00
2.498600000000000000e+04,-9.000000000000000567e-05,-6.999999999999999387e-05,4.599999999999999597e-04,4.000000000000000327e-05,-2.000000000000000096e-04,-2.200000000000000078e-04,-2.999999999999999737e-05,-6.999999999999999387e-05,5.000000000000000000e+00,9.000000000000000000e+00
2.498900000000000000e+04,-9.000000000000000567e-05,-6.999999999999999387e-05,4.599999999999999597e-04,4.000000000000000327e-05,-2.000000000000000096e-04,-2.200000000000000078e-04,-2.999999999999999737e-05,-6.999999999999999387e-05,5.000000000000000000e+00,9.000000000000000000e+00
2.499000000000000000e+04,-9.000000000000000567e-05,-6.999999999999999387e-05,4.599999999999999597e-04,4.000000000000000327e-05,-2.000000000000000096e-04,-2.200000000000000078e-04,-2.999999999999999737e-05,-6.999999999999999387e-05,5.000000000000000000e+00,9.000000000000000000e+00
2.499100000000000000e+04,-9.000000000000000567e-05,-6.999999999999999387e-05,4.599999999999999597e-04,4.000000000000000327e-05,-2.000000000000000096e-04,-2.200000000000000078e-04,-2.999999999999999737e-05,-6.999999999999999387e-05,5.000000000000000000e+00,9.000000000000000000e+00
2.499200000000000000e+04,-9.000000000000000567e-05,-6.999999999999999387e-05,4.599999999999999597e-04,4.000000000000000327e-05,-2.000000000000000096e-04,-2.200000000000000078e-04,-2.999999999999999737e-05,-6.999999999999999387e-05,5.000000000000000000e+00,9.000000000000000000e+00
2.499300000000000000e+04,-9.000000000000000567e-05,-6.999999999999999387e-05,4.599999999999999597e-04,4.000000000000000327e-05,-2.000000000000000096e-04,-2.200000000000000078e-04,-2.999999999999999737e-05,-6.999999999999999387e-05,5.000000000000000000e+00,9.000000000000000000e+00
2.499400000000000000e+04,-9.000000000000000567e-05,-6.999999999999999387e-05,4.599999999999999597e-04,4.000000000000000327e-05,-2.000000000000000096e-04,-2.200000000000000078e-04,-2.999999999999999737e-05,-6.999999999999999387e-05,5.000000000000000000e+00,9.000000000000000000e+00
2.499500000000000000e+04,-5.000000000000000240e-05,-1.199999999999999895e-04,-5.999999999999999474e-05,1.300000000000000157e-04,-1.899999999999999834e-04,-1.000000000000000048e-04,-1.000000000000000082e-05,-2.000000000000000164e-05,5.000000000000000000e+00,9.000000000000000000e+00
2.499600000000000000e+04,-5.000000000000000240e-05,-1.199999999999999895e-04,-5.999999999999999474e-05,1.300000000000000157e-04,-1.899999999999999834e-04,-1.000000000000000048e-04,-1.000000000000000082e-05,-2.000000000000000164e-05,5.000000000000000000e+00,9.000000000000000000e+00
2.499700000000000000e+04,-5.000000000000000240e-05,-1.199999999999999895e-04,-5.999999999999999474e-05,1.300000000000000157e-04,-1.899999999999999834e-04,-1.000000000000000048e-04,-1.000000000000000082e-05,-2.000000000000000164e-05,5.000000000000000000e+00,9.000000000000000000e+00
2.499800000000000000e+04,-5.000000000000000240e-05,-1.199999999999999895e-04,-5.999999999999999474e-05,1.300000000000000157e-04,-1.899999999999999834e-04,-1.000000000000000048e-04,-1.000000000000000082e-05,-2.000000000000000164e-05,5.000000000000000000e+00,9.000000000000000000e+00
2.499900000000000000e+04,-5.000000000000000240e-05,-1.199999999999999895e-04,-5.999999999999999474e-05,1.300000000000000157e-04,-1.899999999999999834e-04,-1.000000000000000048e-04,-1.000000000000000082e-05,-2.000000000000000164e-05,5.000000000000000000e+00,9.000000000000000000e+00
2.500000000000000000e+04,-5.000000000000000240e-05,-1.199999999999999895e-04,-5.999999999999999474e-05,1.300000000000000157e-04,-1.899999999999999834e-04,-1.000000000000000048e-04,-1.000000000000000082e-05,-2.000000000000000164e-05,5.000000000000000000e+00,9.000000000000000000e+00
2.500100000000000000e+04,-5.000000000000000240e-05,-1.199999999999999895e-04,-5.999999999999999474e-05,1.300000000000000157e-04,-1.899999999999999834e-04,-1.000000000000000048e-04,-1.000000000000000082e-05,-2.000000000000000164e-05,5.000000000000000000e+00,9.000000000000000000e+00
2.500200000000000000e+04,-5.000000000000000240e-05,-1.199999999999999895e-04,-5.999999999999999474e-05,1.300000000000000157e-04,-1.899999999999999834e-04,-1.000000000000000048e-04,-1.000000000000000082e-05,-2.000000000000000164e-05,5.000000000000000000e+00,9.000000000000000000e+00
2.500300000000000000e+04,-5.000000000000000240e-05,-1.199999999999999895e-04,-5.999999999999999474e-05,1.300000000000000157e-04,-1.899999999999999834e-04,-1.000000000000000048e-04,-1.000000000000000082e-05,-2.000000000000000164e-05,5.000000000000000000e+00,9.000000000000000000e+00
2.500400000000000000e+04,1.000000000000000082e-05,5.000000000000000240e-05,-1.399999999999999877e-04,2.999999999999999737e-05,-2.500000000000000052e-04,-2.500000000000000052e-04,-9.000000000000000567e-05,-4.000000000000000327e-05,5.000000000000000000e+00,9.000000000000000000e+00
2.500500000000000000e+04,1.000000000000000082e-05,5.000000000000000240e-05,-1.399999999999999877e-04,2.999999999999999737e-05,-2.500000000000000052e-04,-2.500000000000000052e-04,-9.000000000000000567e-05,-4.000000000000000327e-05,5.000000000000000000e+00,9.000000000000000000e+00
2.500600000000000000e+04,1.000000000000000082e-05,5.000000000000000240e-05,-1.399999999999999877e-04,2.999999999999999737e-05,-2.500000000000000052e-04,-2.500000000000000052e-04,-9.000000000000000567e-05,-4.000000000000000327e-05,5.000000000000000000e+00,9.000000000000000000e+00
2.500700000000000000e+04,1.000000000000000082e-05,5.000000000000000240e-05,-1.399999999999999877e-04,2.999999999999999737e-05,-2.500000000000000052e-04,-2.500000000000000052e-04,-9.000000000000000567e-05,-4.000000000000000327e-05,5.000000000000000000e+00,9.000000000000000000e+00
2.500800000000000000e+04,1.000000000000000082e-05,5.000000000000000240e-05,-1.399999999999999877e-04,2.999999999999999737e-05,-2.500000000000000052e-04,-2.500000000000000052e-04,-9.000000000000000567e-05,-4.000000000000000327e-05,5.000000000000000000e+00,9.000000000000000000e+00
2.500900000000000000e+04,1.000000000000000082e-05,5.000000000000000240e-05,-1.399999999999999877e-04,2.999999999999999737e-05,-2.500000000000000052e-04,-2.500000000000000052e-04,-9.000000000000000567e-05,-4.000000000000000327e-05,5.000000000000000000e+00,9.000000000000000000e+00
2.501000000000000000e+04,1.000000000000000082e-05,5.000000000000000240e-05,-1.399999999999999877e-04,2.999999999999999737e-05,-2.500000000000000052e-04,-2.500000000000000052e-04,-9.000000000000000567e-05,-4.000000000000000327e-05,5.000000000000000000e+00,9.000000000000000000e+00
2.501100000000000000e+04,1.000000000000000082e-05,5.000000000000000240e-05,-1.399999999999999877e-04,2.999999999999999737e-05,-2.500000000000000052e-04,-2.500000000000000052e-04,-9.000000000000000567e-05,-4.000000000000000327e-05,5.000000000000000000e+00,9.000000000000000000e+00
2.501200000000000000e+04,1.000000000000000082e-05,5.000000000000000240e-05,-1.399999999999999877e-04,2.999999999999999737e-05,-2.500000000000000052e-04,-2.500000000000000052e-04,-9.000000000000000567e-05,-4.000000000000000327e-05,5.000000000000000000e+00,9.000000000000000000e+00
2.501300000000000000e+04,1.000000000000000082e-05,5.000000000000000240e-05,-1.399999999999999877e-04,2.999999999999999737e-05,-2.500000000000000052e-04,-2.500000000000000052e-04,-9.000000000000000567e-05,-4.000000000000000327e-05,5.000000000000000000e+00,9.000000000000000000e+00
2.501400000000000000e+04,1.000000000000000082e-05,5.000000000000000240e-05,-1.399999999999999877e-04,2.999999999999999737e-05,-2.500000000000000052e-04,-2.500000000000000052e-04,-9.000000000000000567e-05,-4.000000000000000327e-05,5.000000000000000000e+00,9.000000000000000000e+00
2.501500000000000000e+04,1.000000000000000082e-05,5.000000000000000240e-05,-1.399999999999999877e-04,2.999999999999999737e-05,-2.500000000000000052e-04,-2.500000000000000052e-04,-9.000000000000000567e-05,-4.000000000000000327e-05,5.000000000000000000e+00,9.000000000000000000e+00
2.501600000000000000e+04,1.000000000000000082e-05,5.000000000000000240e-05,-1.399999999999999877e-04,2.999999999999999737e-05,-2.500000000000000052e-04,-2.500000000000000052e-04,-9.000000000000000567e-05,-4.000000000000000327e-05,5.000000000000000000e+00,9.000000000000000000e+00
2.501700000000000000e+04,1.000000000000000082e-05,5.000000000000000240e-05,-1.399999999999999877e-04,2.999999999999999737e-05,-2.500000000000000052e-04,-2.500000000000000052e-04,-9.000000000000000567e-05,-4.000000000000000327e-05,5.000000000000000000e+00,9.000000000000000000e+00
2.501800000000000000e+04,-4.000000000000000327e-05,-4.000000000000000327e-05,-1.000000000000000082e-05,-1.199999999999999895e-04,-5.400000000000000069e-04,-9.000000000000000567e-05,9.000000000000000567e-05,-2.999999999999999737e-05,5.000000000000000000e+00,9.000000000000000000e+00
2.501900000000000000e+04,-5.999999999999999474e-05,-2.399999999999999790e-04,-4.599999999999999597e-04,-3.200000000000000262e-04,2.799999999999999755e-04,4.000000000000000327e-05,-6.999999999999999387e-05,-5.000000000000000240e-05,5.000000000000000000e+00,9.000000000000000000e+00
2.502000000000000000e+04,-4.000000000000000327e-05,-2.799999999999999755e-04,-7.200000000000000453e-04,-6.099999999999999737e-04,-9.400000000000000803e-04,1.800000000000000113e-04,1.300000000000000157e-04,1.000000000000000048e-04,5.000000000000000000e+00,9.000000000000000000e+00
2.502100000000000000e+04,-4.000000000000000327e-05,-2.799999999999999755e-04,-7.200000000000000453e-04,-6.099999999999999737e-04,-9.400000000000000803e-04,1.800000000000000113e-04,1.300000000000000157e-04,1.000000000000000048e-04,5.000000000000000000e+00,9.000000000000000000e+00
2.502200000000000000e+04,-4.000000000000000327e-05,-2.799999999999999755e-04,-7.200000000000000453e-04,-6.099999999999999737e-04,-9.400000000000000803e-04,1.800000000000000113e-04,1.300000000000000157e-04,1.000000000000000048e-04,5.000000000000000000e+00,9.000000000000000000e+00
2.502300000000000000e+04,-4.000000000000000327e-05,-2.799999999999999755e-04,-7.200000000000000453e-04,-6.099999999999999737e-04,-9.400000000000000803e-04,1.800000000000000113e-04,1.300000000000000157e-04,1.000000000000000048e-04,5.000000000000000000e+00,9.000000000000000000e+00
2.502400000000000000e+04,-4.000000000000000327e-05,-2.799999999999999755e-04,-7.200000000000000453e-04,-6.099999999999999737e-04,-9.400000000000000803e-04,1.800000000000000113e-04,1.300000000000000157e-04,1.000000000000000048e-04,5.000000000000000000e+00,9.000000000000000000e+00
2.502500000000000000e+04,-4.000000000000000327e-05,-2.799999999999999755e-04,-7.200000000000000453e-04,-6.099999999999999737e-04,-9.400000000000000803e-04,1.800000000000000113e-04,1.300000000000000157e-04,1.000000000000000048e-04,5.000000000000000000e+00,9.000000000000000000e+00
2.502600000000000000e+04,-4.000000000000000327e-05,-2.799999999999999755e-04,-7.200000000000000453e-04,-6.099999999999999737e-04,-9.400000000000000803e-04,1.800000000000000113e-04,1.300000000000000157e-04,1.000000000000000048e-04,5.000000000000000000e+00,9.000000000000000000e+00
2.502700000000000000e+04,-4.000000000000000327e-05,-2.799999999999999755e-04,-7.200000000000000453e-04,-6.099999999999999737e-04,-9.400000000000000803e-04,1.800000000000000113e-04,1.300000000000000157e-04,1.000000000000000048e-04,5.000000000000000000e+00,9.000000000000000000e+00
2.502800000000000000e+04,-4.000000000000000327e-05,-2.799999999999999755e-04,-7.200000000000000453e-04,-6.099999999999999737e-04,-9.400000000000000803e-04,1.800000000000000113e-04,1.300000000000000157e-04,1.000000000000000048e-04,5.000000000000000000e+00,9.000000000000000000e+00
2.502900000000000000e+04,-4.000000000000000327e-05,-2.799999999999999755e-04,-7.200000000000000453e-04,-6.099999999999999737e-04,-9.400000000000000803e-04,1.800000000000000113e-04,1.300000000000000157e-04,1.000000000000000048e-04,5.000000000000000000e+00,9.000000000000000000e+00
2.503000000000000000e+04,-4.000000000000000327e-05,-2.799999999999999755e-04,-7.200000000000000453e-04,-6.099999999999999737e-04,-9.400000000000000803e-04,1.800000000000000113e-04,1.300000000000000157e-04,1.000000000000000048e-04,5.000000000000000000e+00,9.000000000000000000e+00
2.503100000000000000e+04,-4.000000000000000327e-05,-2.799999999999999755e-04,-7.200000000000000453e-04,-6.099999999999999737e-04,-9.400000000000000803e-04,1.800000000000000113e-04,1.300000000000000157e-04,1.000000000000000048e-04,5.000000000000000000e+00,9.000000000000000000e+00
2.503300000000000000e+04,-4.000000000000000327e-05,-2.799999999999999755e-04,-7.200000000000000453e-04,-6.099999999999999737e-04,-9.400000000000000803e-04,1.800000000000000113e-04,1.300000000000000157e-04,1.000000000000000048e-04,5.000000000000000000e+00,9.000000000000000000e+00
2.503400000000000000e+04,-4.000000000000000327e-05,-2.799999999999999755e-04,-7.200000000000000453e-04,-6.099999999999999737e-04,-9.400000000000000803e-04,1.800000000000000113e-04,1.300000000000000157e-04,1.000000000000000048e-04,5.000000000000000000e+00,9.000000000000000000e+00
2.503500000000000000e+04,-4.000000000000000327e-05,-2.799999999999999755e-04,-7.200000000000000453e-04,-6.099999999999999737e-04,-9.400000000000000803e-04,1.800000000000000113e-04,1.300000000000000157e-04,1.000000000000000048e-04,5.000000000000000000e+00,9.000000000000000000e+00
2.503600000000000000e+04,-4.000000000000000327e-05,-2.799999999999999755e-04,-7.200000000000000453e-04,-6.099999999999999737e-04,-9.400000000000000803e-04,1.800000000000000113e-04,1.300000000000000157e-04,1.000000000000000048e-04,5.000000000000000000e+00,9.000000000000000000e+00
2.503900000000000000e+04,-4.000000000000000327e-05,-2.799999999999999755e-04,-7.200000000000000453e-04,-6.099999999999999737e-04,-9.400000000000000803e-04,1.800000000000000113e-04,1.300000000000000157e-04,1.000000000000000048e-04,5.000000000000000000e+00,9.000000000000000000e+00
2.504000000000000000e+04,-4.000000000000000327e-05,-2.799999999999999755e-04,-7.200000000000000453e-04,-6.099999999999999737e-04,-9.400000000000000803e-04,1.800000000000000113e-04,1.300000000000000157e-04,1.000000000000000048e-04,5.000000000000000000e+00,9.000000000000000000e+00
2.504100000000000000e+04,4.000000000000000327e-05,5.000000000000000240e-05,8.000000000000000654e-05,4.200000000000000174e-04,4.599999999999999597e-04,1.300000000000000157e-04,1.199999999999999895e-04,8.000000000000000654e-05,5.000000000000000000e+00,9.000000000000000000e+00
2.504200000000000000e+04,5.000000000000000240e-05,1.100000000000000039e-04,3.499999999999999964e-04,1.000000000000000048e-04,-3.799999999999999667e-04,-6.999999999999999387e-05,-1.199999999999999895e-04,-5.999999999999999474e-05,5.000000000000000000e+00,9.000000000000000000e+00
2.504300000000000000e+04,-6.999999999999999387e-05,-2.100000000000000087e-04,-5.599999999999999509e-04,-1.199999999999999895e-04,-2.600000000000000314e-04,-8.000000000000000654e-05,-8.000000000000000654e-05,-4.000000000000000327e-05,5.000000000000000000e+00,9.000000000000000000e+00
2.504400000000000000e+04,-6.999999999999999387e-05,-2.100000000000000087e-04,-5.599999999999999509e-04,-1.199999999999999895e-04,-2.600000000000000314e-04,-8.000000000000000654e-05,-8.000000000000000654e-05,-4.000000000000000327e-05,5.000000000000000000e+00,9.000000000000000000e+00
2.504500000000000000e+04,-6.999999999999999387e-05,-2.100000000000000087e-04,-5.599999999999999509e-04,-1.199999999999999895e-04,-2.600000000000000314e-04,-8.000000000000000654e-05,-8.000000000000000654e-05,-4.000000000000000327e-05,5.000000000000000000e+00,9.000000000000000000e+00
2.504600000000000000e+04,-6.999999999999999387e-05,-2.100000000000000087e-04,-5.599999999999999509e-04,-1.199999999999999895e-04,-2.600000000000000314e-04,-8.000000000000000654e-05,-8.000000000000000654e-05,-4.000000000000000327e-05,5.000000000000000000e+00,9.000000000000000000e+00
2.504700000000000000e+04,-6.999999999999999387e-05,-2.100000000000000087e-04,-5.599999999999999509e-04,-1.199999999999999895e-04,-2.600000000000000314e-04,-8.000000000000000654e-05,-8.000000000000000654e-05,-4.000000000000000327e-05,5.000000000000000000e+00,9.000000000000000000e+00
2.504800000000000000e+04,-6.999999999999999387e-05,-2.100000000000000087e-04,-5.599999999999999509e-04,-1.199999999999999895e-04,-2.600000000000000314e-04,-8.000000000000000654e-05,-8.000000000000000654e-05,-4.000000000000000327e-05,5.000000000000000000e+00,9.000000000000000000e+00
2.504900000000000000e+04,-6.999999999999999387e-05,-2.100000000000000087e-04,-5.599999999999999509e-04,-1.199999999999999895e-04,-2.600000000000000314e-04,-8.000000000000000654e-05,-8.000000000000000654e-05,-4.000000000000000327e-05,5.000000000000000000e+00,9.000000000000000000e+00
2.505000000000000000e+04,-6.999999999999999387e-05,-2.100000000000000087e-04,-5.599999999999999509e-04,-1.199999999999999895e-04,-2.600000000000000314e-04,-8.000000000000000654e-05,-8.000000000000000654e-05,-4.000000000000000327e-05,5.000000000000000000e+00,9.000000000000000000e+00
2.505100000000000000e+04,-6.999999999999999387e-05,-2.100000000000000087e-04,-5.599999999999999509e-04,-1.199999999999999895e-04,-2.600000000000000314e-04,-8.000000000000000654e-05,-8.000000000000000654e-05,-4.000000000000000327e-05,5.000000000000000000e+00,9.000000000000000000e+00
2.505200000000000000e+04,-6.999999999999999387e-05,-2.100000000000000087e-04,-5.599999999999999509e-04,-1.199999999999999895e-04,-2.600000000000000314e-04,-8.000000000000000654e-05,-8.000000000000000654e-05,-4.000000000000000327e-05,5.000000000000000000e+00,9.000000000000000000e+00
2.505300000000000000e+04,-6.999999999999999387e-05,-2.100000000000000087e-04,-5.599999999999999509e-04,-1.199999999999999895e-04,-2.600000000000000314e-04,-8.000000000000000654e-05,-8.000000000000000654e-05,-4.000000000000000327e-05,5.000000000000000000e+00,9.000000000000000000e+00
2.505400000000000000e+04,-6.999999999999999387e-05,-2.100000000000000087e-04,-5.599999999999999509e-04,-1.199999999999999895e-04,-2.600000000000000314e-04,-8.000000000000000654e-05,-8.000000000000000654e-05,-4.000000000000000327e-05,5.000000000000000000e+00,9.000000000000000000e+00
2.505500000000000000e+04,-6.999999999999999387e-05,-2.100000000000000087e-04,-5.599999999999999509e-04,-1.199999999999999895e-04,-2.600000000000000314e-04,-8.000000000000000654e-05,-8.000000000000000654e-05,-4.000000000000000327e-05,5.000000000000000000e+00,9.000000000000000000e+00
2.505600000000000000e+04,-6.999999999999999387e-05,-2.100000000000000087e-04,-5.599999999999999509e-04,-1.199999999999999895e-04,-2.600000000000000314e-04,-8.000000000000000654e-05,-8.000000000000000654e-05,-4.000000000000000327e-05,5.000000000000000000e+00,9.000000000000000000e+00
2.505700000000000000e+04,-6.999999999999999387e-05,-2.100000000000000087e-04,-5.599999999999999509e-04,-1.199999999999999895e-04,-2.600000000000000314e-04,-8.000000000000000654e-05,-8.000000000000000654e-05,-4.000000000000000327e-05,5.000000000000000000e+00,9.000000000000000000e+00
2.505800000000000000e+04,-6.999999999999999387e-05,-2.100000000000000087e-04,-5.599999999999999509e-04,-1.199999999999999895e-04,-2.600000000000000314e-04,-8.000000000000000654e-05,-8.000000000000000654e-05,-4.000000000000000327e-05,5.000000000000000000e+00,9.000000000000000000e+00
2.505900000000000000e+04,-6.999999999999999387e-05,-2.100000000000000087e-04,-5.599999999999999509e-04,-1.199999999999999895e-04,-2.600000000000000314e-04,-8.000000000000000654e-05,-8.000000000000000654e-05,-4.000000000000000327e-05,5.000000000000000000e+00,9.000000000000000000e+00
2.506000000000000000e+04,-6.999999999999999387e-05,-2.100000000000000087e-04,-5.599999999999999509e-04,-1.199999999999999895e-04,-2.600000000000000314e-04,-8.000000000000000654e-05,-8.000000000000000654e-05,-4.000000000000000327e-05,5.000000000000000000e+00,9.000000000000000000e+00
2.506100000000000000e+04,-6.999999999999999387e-05,-2.100000000000000087e-04,-5.599999999999999509e-04,-1.199999999999999895e-04,-2.600000000000000314e-04,-8.000000000000000654e-05,-8.000000000000000654e-05,-4.000000000000000327e-05,5.000000000000000000e+00,9.000000000000000000e+00
2.506200000000000000e+04,-6.999999999999999387e-05,-2.100000000000000087e-04,-5.599999999999999509e-04,-1.199999999999999895e-04,-2.600000000000000314e-04,-8.000000000000000654e-05,-8.000000000000000654e-05,-4.000000000000000327e-05,5.000000000000000000e+00,9.000000000000000000e+00
2.506300000000000000e+04,-2.999999999999999737e-05,-2.999999999999999737e-05,-6.999999999999999387e-05,-1.100000000000000039e-04,-2.299999999999999799e-04,-1.899999999999999834e-04,5.000000000000000240e-05,-1.000000000000000082e-05,5.000000000000000000e+00,9.000000000000000000e+00
2.506400000000000000e+04,4.000000000000000327e-05,-2.000000000000000164e-05,-1.499999999999999869e-04,-4.200000000000000174e-04,-2.399999999999999790e-04,-4.000000000000000327e-05,0.000000000000000000e+00,-2.999999999999999737e-05,5.000000000000000000e+00,9.000000000000000000e+00
2.506500000000000000e+04,1.000000000000000082e-05,1.000000000000000082e-05,-4.000000000000000327e-05,4.099999999999999912e-04,2.200000000000000078e-04,5.000000000000000240e-05,-1.000000000000000082e-05,-2.999999999999999737e-05,5.000000000000000000e+00,9.000000000000000000e+00
2.506600000000000000e+04,1.000000000000000082e-05,1.000000000000000082e-05,-4.000000000000000327e-05,4.099999999999999912e-04,2.200000000000000078e-04,5.000000000000000240e-05,-1.000000000000000082e-05,-2.999999999999999737e-05,5.000000000000000000e+00,9.000000000000000000e+00
2.506700000000000000e+04,1.000000000000000082e-05,1.000000000000000082e-05,-4.000000000000000327e-05,4.099999999999999912e-04,2.200000000000000078e-04,5.000000000000000240e-05,-1.000000000000000082e-05,-2.999999999999999737e-05,5.000000000000000000e+00,9.000000000000000000e+00
2.506800000000000000e+04,1.000000000000000082e-05,1.000000000000000082e-05,-4.000000000000000327e-05,4.099999999999999912e-04,2.200000000000000078e-04,5.000000000000000240e-05,-1.000000000000000082e-05,-2.999999999999999737e-05,5.000000000000000000e+00,9.000000000000000000e+00
2.506900000000000000e+04,1.000000000000000082e-05,1.000000000000000082e-05,-4.000000000000000327e-05,4.099999999999999912e-04,2.200000000000000078e-04,5.000000000000000240e-05,-1.000000000000000082e-05,-2.999999999999999737e-05,5.000000000000000000e+00,9.000000000000000000e+00
2.507000000000000000e+04,1.000000000000000082e-05,1.000000000000000082e-05,-4.000000000000000327e-05,4.099999999999999912e-04,2.200000000000000078e-04,5.000000000000000240e-05,-1.000000000000000082e-05,-2.999999999999999737e-05,5.000000000000000000e+00,9.000000000000000000e+00
2.507100000000000000e+04,5.000000000000000240e-05,5.000000000000000240e-05,1.000000000000000082e-05,-3.799999999999999667e-04,-3.399999999999999702e-04,1.100000000000000039e-04,5.000000000000000240e-05,8.000000000000000654e-05,5.000000000000000000e+00,9.000000000000000000e+00
2.507200000000000000e+04,1.499999999999999869e-04,3.200000000000000262e-04,6.099999999999999737e-04,4.200000000000000174e-04,5.999999999999999474e-05,2.000000000000000096e-04,2.399999999999999790e-04,2.200000000000000078e-04,5.000000000000000000e+00,9.000000000000000000e+00
2.507300000000000000e+04,1.000000000000000082e-05,1.600000000000000131e-04,3.299999999999999982e-04,3.600000000000000227e-04,-1.100000000000000039e-04,-1.000000000000000082e-05,-1.199999999999999895e-04,-8.000000000000000654e-05,5.000000000000000000e+00,9.000000000000000000e+00
2.507400000000000000e+04,1.000000000000000082e-05,1.600000000000000131e-04,3.299999999999999982e-04,3.600000000000000227e-04,-1.100000000000000039e-04,-1.000000000000000082e-05,-1.199999999999999895e-04,-8.000000000000000654e-05,5.000000000000000000e+00,9.000000000000000000e+00
2.507500000000000000e+04,1.000000000000000082e-05,1.600000000000000131e-04,3.299999999999999982e-04,3.600000000000000227e-04,-1.100000000000000039e-04,-1.000000000000000082e-05,-1.199999999999999895e-04,-8.000000000000000654e-05,5.000000000000000000e+00,9.000000000000000000e+00
2.507600000000000000e+04,1.000000000000000082e-05,1.600000000000000131e-04,3.299999999999999982e-04,3.600000000000000227e-04,-1.100000000000000039e-04,-1.000000000000000082e-05,-1.199999999999999895e-04,-8.000000000000000654e-05,5.000000000000000000e+00,9.000000000000000000e+00
2.507700000000000000e+04,1.000000000000000082e-05,1.600000000000000131e-04,3.299999999999999982e-04,3.600000000000000227e-04,-1.100000000000000039e-04,-1.000000000000000082e-05,-1.199999999999999895e-04,-8.000000000000000654e-05,5.000000000000000000e+00,9.000000000000000000e+00
2.507900000000000000e+04,1.000000000000000082e-05,1.600000000000000131e-04,3.299999999999999982e-04,3.600000000000000227e-04,-1.100000000000000039e-04,-1.000000000000000082e-05,-1.199999999999999895e-04,-8.000000000000000654e-05,5.000000000000000000e+00,9.000000000000000000e+00
2.508000000000000000e+04,1.000000000000000082e-05,1.600000000000000131e-04,3.299999999999999982e-04,3.600000000000000227e-04,-1.100000000000000039e-04,-1.000000000000000082e-05,-1.199999999999999895e-04,-8.000000000000000654e-05,5.000000000000000000e+00,9.000000000000000000e+00
2.508100000000000000e+04,1.000000000000000082e-05,1.600000000000000131e-04,3.299999999999999982e-04,3.600000000000000227e-04,-1.100000000000000039e-04,-1.000000000000000082e-05,-1.199999999999999895e-04,-8.000000000000000654e-05,5.000000000000000000e+00,9.000000000000000000e+00
2.508200000000000000e+04,1.000000000000000082e-05,1.600000000000000131e-04,3.299999999999999982e-04,3.600000000000000227e-04,-1.100000000000000039e-04,-1.000000000000000082e-05,-1.199999999999999895e-04,-8.000000000000000654e-05,5.000000000000000000e+00,9.000000000000000000e+00
2.508300000000000000e+04,1.000000000000000082e-05,1.600000000000000131e-04,3.299999999999999982e-04,3.600000000000000227e-04,-1.100000000000000039e-04,-1.000000000000000082e-05,-1.199999999999999895e-04,-8.000000000000000654e-05,5.000000000000000000e+00,9.000000000000000000e+00
2.508400000000000000e+04,1.000000000000000082e-05,1.600000000000000131e-04,3.299999999999999982e-04,3.600000000000000227e-04,-1.100000000000000039e-04,-1.000000000000000082e-05,-1.199999999999999895e-04,-8.000000000000000654e-05,5.000000000000000000e+00,9.000000000000000000e+00
2.508500000000000000e+04,1.000000000000000082e-05,1.600000000000000131e-04,3.299999999999999982e-04,3.600000000000000227e-04,-1.100000000000000039e-04,-1.000000000000000082e-05,-1.199999999999999895e-04,-8.000000000000000654e-05,5.000000000000000000e+00,9.000000000000000000e+00
2.508600000000000000e+04,1.000000000000000082e-05,1.600000000000000131e-04,3.299999999999999982e-04,3.600000000000000227e-04,-1.100000000000000039e-04,-1.000000000000000082e-05,-1.199999999999999895e-04,-8.000000000000000654e-05,5.000000000000000000e+00,9.000000000000000000e+00
2.508900000000000000e+04,1.000000000000000082e-05,1.600000000000000131e-04,3.299999999999999982e-04,3.600000000000000227e-04,-1.100000000000000039e-04,-1.000000000000000082e-05,-1.199999999999999895e-04,-8.000000000000000654e-05,5.000000000000000000e+00,9.000000000000000000e+00
2.509000000000000000e+04,1.000000000000000082e-05,1.600000000000000131e-04,3.299999999999999982e-04,3.600000000000000227e-04,-1.100000000000000039e-04,-1.000000000000000082e-05,-1.199999999999999895e-04,-8.000000000000000654e-05,5.000000000000000000e+00,9.000000000000000000e+00
2.509100000000000000e+04,1.000000000000000082e-05,1.600000000000000131e-04,3.299999999999999982e-04,3.600000000000000227e-04,-1.100000000000000039e-04,-1.000000000000000082e-05,-1.199999999999999895e-04,-8.000000000000000654e-05,5.000000000000000000e+00,9.000000000000000000e+00
2.509200000000000000e+04,1.000000000000000082e-05,1.600000000000000131e-04,3.299999999999999982e-04,3.600000000000000227e-04,-1.100000000000000039e-04,-1.000000000000000082e-05,-1.199999999999999895e-04,-8.000000000000000654e-05,5.000000000000000000e+00,9.000000000000000000e+00
2.509300000000000000e+04,-1.000000000000000082e-05,1.100000000000000039e-04,1.899999999999999834e-04,2.999999999999999737e-04,1.899999999999999834e-04,2.999999999999999737e-05,-1.000000000000000048e-04,0.000000000000000000e+00,5.000000000000000000e+00,9.000000000000000000e+00
2.509400000000000000e+04,-1.000000000000000082e-05,1.100000000000000039e-04,1.899999999999999834e-04,2.999999999999999737e-04,1.899999999999999834e-04,2.999999999999999737e-05,-1.000000000000000048e-04,0.000000000000000000e+00,5.000000000000000000e+00,9.000000000000000000e+00
2.509500000000000000e+04,-5.000000000000000240e-05,6.999999999999999387e-05,4.799999999999999580e-04,6.700000000000000226e-04,-5.999999999999999474e-05,-1.399999999999999877e-04,-1.499999999999999869e-04,-1.199999999999999895e-04,5.000000000000000000e+00,9.000000000000000000e+00
2.509600000000000000e+04,-5.000000000000000240e-05,6.999999999999999387e-05,4.799999999999999580e-04,6.700000000000000226e-04,-5.999999999999999474e-05,-1.399999999999999877e-04,-1.499999999999999869e-04,-1.199999999999999895e-04,5.000000000000000000e+00,9.000000000000000000e+00
2.509700000000000000e+04,-5.000000000000000240e-05,6.999999999999999387e-05,4.799999999999999580e-04,6.700000000000000226e-04,-5.999999999999999474e-05,-1.399999999999999877e-04,-1.499999999999999869e-04,-1.199999999999999895e-04,5.000000000000000000e+00,9.000000000000000000e+00
2.509800000000000000e+04,-5.000000000000000240e-05,6.999999999999999387e-05,4.799999999999999580e-04,6.700000000000000226e-04,-5.999999999999999474e-05,-1.399999999999999877e-04,-1.499999999999999869e-04,-1.199999999999999895e-04,5.000000000000000000e+00,9.000000000000000000e+00
2.509900000000000000e+04,-5.000000000000000240e-05,6.999999999999999387e-05,4.799999999999999580e-04,6.700000000000000226e-04,-5.999999999999999474e-05,-1.399999999999999877e-04,-1.499999999999999869e-04,-1.199999999999999895e-04,5.000000000000000000e+00,9.000000000000000000e+00
2.510000000000000000e+04,-5.000000000000000240e-05,6.999999999999999387e-05,4.799999999999999580e-04,6.700000000000000226e-04,-5.999999999999999474e-05,-1.399999999999999877e-04,-1.499999999999999869e-04,-1.199999999999999895e-04,5.000000000000000000e+00,9.000000000000000000e+00
2.510100000000000000e+04,-5.000000000000000240e-05,6.999999999999999387e-05,4.799999999999999580e-04,6.700000000000000226e-04,-5.999999999999999474e-05,-1.399999999999999877e-04,-1.499999999999999869e-04,-1.199999999999999895e-04,5.000000000000000000e+00,9.000000000000000000e+00
2.510200000000000000e+04,-5.000000000000000240e-05,6.999999999999999387e-05,4.799999999999999580e-04,6.700000000000000226e-04,-5.999999999999999474e-05,-1.399999999999999877e-04,-1.499999999999999869e-04,-1.199999999999999895e-04,5.000000000000000000e+00,9.000000000000000000e+00
2.510300000000000000e+04,-5.000000000000000240e-05,6.999999999999999387e-05,4.799999999999999580e-04,6.700000000000000226e-04,-5.999999999999999474e-05,-1.399999999999999877e-04,-1.499999999999999869e-04,-1.199999999999999895e-04,5.000000000000000000e+00,9.000000000000000000e+00
2.510400000000000000e+04,-5.000000000000000240e-05,6.999999999999999387e-05,4.799999999999999580e-04,6.700000000000000226e-04,-5.999999999999999474e-05,-1.399999999999999877e-04,-1.499999999999999869e-04,-1.199999999999999895e-04,5.000000000000000000e+00,9.000000000000000000e+00
2.510500000000000000e+04,-5.000000000000000240e-05,6.999999999999999387e-05,4.799999999999999580e-04,6.700000000000000226e-04,-5.999999999999999474e-05,-1.399999999999999877e-04,-1.499999999999999869e-04,-1.199999999999999895e-04,5.000000000000000000e+00,9.000000000000000000e+00
2.510600000000000000e+04,-5.000000000000000240e-05,6.999999999999999387e-05,4.799999999999999580e-04,6.700000000000000226e-04,-5.999999999999999474e-05,-1.399999999999999877e-04,-1.499999999999999869e-04,-1.199999999999999895e-04,5.000000000000000000e+00,9.000000000000000000e+00
2.510700000000000000e+04,2.999999999999999737e-05,9.000000000000000567e-05,1.699999999999999851e-04,-3.200000000000000262e-04,-3.200000000000000262e-04,-1.000000000000000082e-05,1.000000000000000048e-04,4.000000000000000327e-05,5.000000000000000000e+00,9.000000000000000000e+00
2.510800000000000000e+04,2.999999999999999737e-05,9.000000000000000567e-05,1.699999999999999851e-04,-3.200000000000000262e-04,-3.200000000000000262e-04,-1.000000000000000082e-05,1.000000000000000048e-04,4.000000000000000327e-05,5.000000000000000000e+00,9.000000000000000000e+00
2.510900000000000000e+04,2.999999999999999737e-05,9.000000000000000567e-05,1.699999999999999851e-04,-3.200000000000000262e-04,-3.200000000000000262e-04,-1.000000000000000082e-05,1.000000000000000048e-04,4.000000000000000327e-05,5.000000000000000000e+00,9.000000000000000000e+00
2.511000000000000000e+04,2.999999999999999737e-05,9.000000000000000567e-05,1.699999999999999851e-04,-3.200000000000000262e-04,-3.200000000000000262e-04,-1.000000000000000082e-05,1.000000000000000048e-04,4.000000000000000327e-05,5.000000000000000000e+00,9.000000000000000000e+00
2.511100000000000000e+04,2.999999999999999737e-05,9.000000000000000567e-05,1.699999999999999851e-04,-3.200000000000000262e-04,-3.200000000000000262e-04,-1.000000000000000082e-05,1.000000000000000048e-04,4.000000000000000327e-05,5.000000000000000000e+00,9.000000000000000000e+00
2.511200000000000000e+04,2.999999999999999737e-05,9.000000000000000567e-05,1.699999999999999851e-04,-3.200000000000000262e-04,-3.200000000000000262e-04,-1.000000000000000082e-05,1.000000000000000048e-04,4.000000000000000327e-05,5.000000000000000000e+00,9.000000000000000000e+00
2.511300000000000000e+04,2.999999999999999737e-05,9.000000000000000567e-05,1.699999999999999851e-04,-3.200000000000000262e-04,-3.200000000000000262e-04,-1.000000000000000082e-05,1.000000000000000048e-04,4.000000000000000327e-05,5.000000000000000000e+00,9.000000000000000000e+00
2.511400000000000000e+04,2.999999999999999737e-05,9.000000000000000567e-05,1.699999999999999851e-04,-3.200000000000000262e-04,-3.200000000000000262e-04,-1.000000000000000082e-05,1.000000000000000048e-04,4.000000000000000327e-05,5.000000000000000000e+00,9.000000000000000000e+00
2.511500000000000000e+04,2.999999999999999737e-05,9.000000000000000567e-05,1.699999999999999851e-04,-3.200000000000000262e-04,-3.200000000000000262e-04,-1.000000000000000082e-05,1.000000000000000048e-04,4.000000000000000327e-05,5.000000000000000000e+00,9.000000000000000000e+00
2.511600000000000000e+04,-4.000000000000000327e-05,-1.100000000000000039e-04,-2.000000000000000096e-04,6.999999999999999387e-05,6.999999999999999387e-05,2.999999999999999737e-05,-1.100000000000000039e-04,-4.000000000000000327e-05,5.000000000000000000e+00,9.000000000000000000e+00
2.511700000000000000e+04,-4.000000000000000327e-05,-1.100000000000000039e-04,-2.000000000000000096e-04,6.999999999999999387e-05,6.999999999999999387e-05,2.999999999999999737e-05,-1.100000000000000039e-04,-4.000000000000000327e-05,5.000000000000000000e+00,9.000000000000000000e+00
2.511800000000000000e+04,-4.000000000000000327e-05,-1.100000000000000039e-04,-2.000000000000000096e-04,6.999999999999999387e-05,6.999999999999999387e-05,2.999999999999999737e-05,-1.100000000000000039e-04,-4.000000000000000327e-05,5.000000000000000000e+00,9.000000000000000000e+00
2.511900000000000000e+04,-4.000000000000000327e-05,-1.100000000000000039e-04,-2.000000000000000096e-04,6.999999999999999387e-05,6.999999999999999387e-05,2.999999999999999737e-05,-1.100000000000000039e-04,-4.000000000000000327e-05,5.000000000000000000e+00,9.000000000000000000e+00
2.512000000000000000e+04,-4.000000000000000327e-05,-1.100000000000000039e-04,-2.000000000000000096e-04,6.999999999999999387e-05,6.999999999999999387e-05,2.999999999999999737e-05,-1.100000000000000039e-04,-4.000000000000000327e-05,5.000000000000000000e+00,9.000000000000000000e+00
2.512100000000000000e+04,-4.000000000000000327e-05,-1.100000000000000039e-04,-2.000000000000000096e-04,6.999999999999999387e-05,6.999999999999999387e-05,2.999999999999999737e-05,-1.100000000000000039e-04,-4.000000000000000327e-05,5.000000000000000000e+00,9.000000000000000000e+00
2.512200000000000000e+04,-4.000000000000000327e-05,-1.100000000000000039e-04,-2.000000000000000096e-04,6.999999999999999387e-05,6.999999999999999387e-05,2.999999999999999737e-05,-1.100000000000000039e-04,-4.000000000000000327e-05,5.000000000000000000e+00,9.000000000000000000e+00
2.512300000000000000e+04,-4.000000000000000327e-05,-1.100000000000000039e-04,-2.000000000000000096e-04,6.999999999999999387e-05,6.999999999999999387e-05,2.999999999999999737e-05,-1.100000000000000039e-04,-4.000000000000000327e-05,5.000000000000000000e+00,9.000000000000000000e+00
2.512400000000000000e+04,-4.000000000000000327e-05,-1.100000000000000039e-04,-2.000000000000000096e-04,6.999999999999999387e-05,6.999999999999999387e-05,2.999999999999999737e-05,-1.100000000000000039e-04,-4.000000000000000327e-05,5.000000000000000000e+00,9.000000000000000000e+00
2.512500000000000000e+04,-4.000000000000000327e-05,-1.100000000000000039e-04,-2.000000000000000096e-04,6.999999999999999387e-05,6.999999999999999387e-05,2.999999999999999737e-05,-1.100000000000000039e-04,-4.000000000000000327e-05,5.000000000000000000e+00,9.000000000000000000e+00
2.512600000000000000e+04,-4.000000000000000327e-05,-1.100000000000000039e-04,-2.000000000000000096e-04,6.999999999999999387e-05,6.999999999999999387e-05,2.999999999999999737e-05,-1.100000000000000039e-04,-4.000000000000000327e-05,5.000000000000000000e+00,9.000000000000000000e+00
2.512700000000000000e+04,-4.000000000000000327e-05,-1.100000000000000039e-04,-2.000000000000000096e-04,6.999999999999999387e-05,6.999999999999999387e-05,2.999999999999999737e-05,-1.100000000000000039e-04,-4.000000000000000327e-05,5.000000000000000000e+00,9.000000000000000000e+00
2.512800000000000000e+04,-4.000000000000000327e-05,-1.100000000000000039e-04,-2.000000000000000096e-04,6.999999999999999387e-05,6.999999999999999387e-05,2.999999999999999737e-05,-1.100000000000000039e-04,-4.000000000000000327e-05,5.000000000000000000e+00,9.000000000000000000e+00
2.512900000000000000e+04,-4.000000000000000327e-05,-1.100000000000000039e-04,-2.000000000000000096e-04,6.999999999999999387e-05,6.999999999999999387e-05,2.999999999999999737e-05,-1.100000000000000039e-04,-4.000000000000000327e-05,5.000000000000000000e+00,9.000000000000000000e+00
2.513000000000000000e+04,-4.000000000000000327e-05,-1.100000000000000039e-04,-2.000000000000000096e-04,6.999999999999999387e-05,6.999999999999999387e-05,2.999999999999999737e-05,-1.100000000000000039e-04,-4.000000000000000327e-05,5.000000000000000000e+00,9.000000000000000000e+00
2.513100000000000000e+04,-4.000000000000000327e-05,-1.100000000000000039e-04,-2.000000000000000096e-04,6.999999999999999387e-05,6.999999999999999387e-05,2.999999999999999737e-05,-1.100000000000000039e-04,-4.000000000000000327e-05,5.000000000000000000e+00,9.000000000000000000e+00
2.513200000000000000e+04,1.600000000000000131e-04,3.600000000000000227e-04,6.799999999999999404e-04,6.099999999999999737e-04,8.099999999999999561e-04,4.899999999999999842e-04,1.300000000000000157e-04,9.000000000000000567e-05,5.000000000000000000e+00,9.000000000000000000e+00
2.513300000000000000e+04,1.600000000000000131e-04,3.600000000000000227e-04,6.799999999999999404e-04,6.099999999999999737e-04,8.099999999999999561e-04,4.899999999999999842e-04,1.300000000000000157e-04,9.000000000000000567e-05,5.000000000000000000e+00,9.000000000000000000e+00
2.513400000000000000e+04,1.600000000000000131e-04,3.600000000000000227e-04,6.799999999999999404e-04,6.099999999999999737e-04,8.099999999999999561e-04,4.899999999999999842e-04,1.300000000000000157e-04,9.000000000000000567e-05,5.000000000000000000e+00,9.000000000000000000e+00
2.513500000000000000e+04,1.600000000000000131e-04,3.600000000000000227e-04,6.799999999999999404e-04,6.099999999999999737e-04,8.099999999999999561e-04,4.899999999999999842e-04,1.300000000000000157e-04,9.000000000000000567e-05,5.000000000000000000e+00,9.000000000000000000e+00
2.513600000000000000e+04,1.600000000000000131e-04,3.600000000000000227e-04,6.799999999999999404e-04,6.099999999999999737e-04,8.099999999999999561e-04,4.899999999999999842e-04,1.300000000000000157e-04,9.000000000000000567e-05,5.000000000000000000e+00,9.000000000000000000e+00
2.513900000000000000e+04,1.600000000000000131e-04,3.600000000000000227e-04,6.799999999999999404e-04,6.099999999999999737e-04,8.099999999999999561e-04,4.899999999999999842e-04,1.300000000000000157e-04,9.000000000000000567e-05,5.000000000000000000e+00,9.000000000000000000e+00
2.514000000000000000e+04,1.600000000000000131e-04,3.600000000000000227e-04,6.799999999999999404e-04,6.099999999999999737e-04,8.099999999999999561e-04,4.899999999999999842e-04,1.300000000000000157e-04,9.000000000000000567e-05,5.000000000000000000e+00,9.000000000000000000e+00
2.514100000000000000e+04,1.600000000000000131e-04,3.600000000000000227e-04,6.799999999999999404e-04,6.099999999999999737e-04,8.099999999999999561e-04,4.899999999999999842e-04,1.300000000000000157e-04,9.000000000000000567e-05,5.000000000000000000e+00,9.000000000000000000e+00
2.514200000000000000e+04,1.600000000000000131e-04,3.600000000000000227e-04,6.799999999999999404e-04,6.099999999999999737e-04,8.099999999999999561e-04,4.899999999999999842e-04,1.300000000000000157e-04,9.000000000000000567e-05,5.000000000000000000e+00,9.000000000000000000e+00
2.514300000000000000e+04,1.600000000000000131e-04,3.600000000000000227e-04,6.799999999999999404e-04,6.099999999999999737e-04,8.099999999999999561e-04,4.899999999999999842e-04,1.300000000000000157e-04,9.000000000000000567e-05,5.000000000000000000e+00,9.000000000000000000e+00
2.514400000000000000e+04,1.600000000000000131e-04,3.600000000000000227e-04,6.799999999999999404e-04,6.099999999999999737e-04,8.099999999999999561e-04,4.899999999999999842e-04,1.300000000000000157e-04,9.000000000000000567e-05,5.000000000000000000e+00,9.000000000000000000e+00
2.514500000000000000e+04,1.600000000000000131e-04,3.600000000000000227e-04,6.799999999999999404e-04,6.099999999999999737e-04,8.099999999999999561e-04,4.899999999999999842e-04,1.300000000000000157e-04,9.000000000000000567e-05,5.000000000000000000e+00,9.000000000000000000e+00
2.514600000000000000e+04,1.600000000000000131e-04,3.600000000000000227e-04,6.799999999999999404e-04,6.099999999999999737e-04,8.099999999999999561e-04,4.899999999999999842e-04,1.300000000000000157e-04,9.000000000000000567e-05,5.000000000000000000e+00,9.000000000000000000e+00
2.514700000000000000e+04,1.600000000000000131e-04,3.600000000000000227e-04,6.799999999999999404e-04,6.099999999999999737e-04,8.099999999999999561e-04,4.899999999999999842e-04,1.300000000000000157e-04,9.000000000000000567e-05,5.000000000000000000e+00,9.000000000000000000e+00
2.514800000000000000e+04,1.600000000000000131e-04,3.600000000000000227e-04,6.799999999999999404e-04,6.099999999999999737e-04,8.099999999999999561e-04,4.899999999999999842e-04,1.300000000000000157e-04,9.000000000000000567e-05,5.000000000000000000e+00,9.000000000000000000e+00
2.514900000000000000e+04,1.600000000000000131e-04,3.600000000000000227e-04,6.799999999999999404e-04,6.099999999999999737e-04,8.099999999999999561e-04,4.899999999999999842e-04,1.300000000000000157e-04,9.000000000000000567e-05,5.000000000000000000e+00,9.000000000000000000e+00
2.515000000000000000e+04,1.600000000000000131e-04,3.600000000000000227e-04,6.799999999999999404e-04,6.099999999999999737e-04,8.099999999999999561e-04,4.899999999999999842e-04,1.300000000000000157e-04,9.000000000000000567e-05,5.000000000000000000e+00,9.000000000000000000e+00
2.515100000000000000e+04,1.600000000000000131e-04,3.600000000000000227e-04,6.799999999999999404e-04,6.099999999999999737e-04,8.099999999999999561e-04,4.899999999999999842e-04,1.300000000000000157e-04,9.000000000000000567e-05,5.000000000000000000e+00,9.000000000000000000e+00
2.515200000000000000e+04,1.600000000000000131e-04,3.600000000000000227e-04,6.799999999999999404e-04,6.099999999999999737e-04,8.099999999999999561e-04,4.899999999999999842e-04,1.300000000000000157e-04,9.000000000000000567e-05,5.000000000000000000e+00,9.000000000000000000e+00
2.515300000000000000e+04,-1.600000000000000131e-04,-3.799999999999999667e-04,-9.599999999999999159e-04,-9.799999999999999684e-04,-6.499999999999999702e-04,-8.000000000000000654e-05,4.000000000000000327e-05,-1.000000000000000082e-05,5.000000000000000000e+00,9.000000000000000000e+00
2.515400000000000000e+04,1.100000000000000039e-04,1.100000000000000039e-04,-2.000000000000000164e-05,-1.600000000000000131e-04,5.299999999999999807e-04,4.799999999999999580e-04,1.600000000000000131e-04,9.000000000000000567e-05,5.000000000000000000e+00,9.000000000000000000e+00
2.515500000000000000e+04,2.000000000000000164e-05,5.000000000000000240e-05,1.100000000000000039e-04,8.000000000000000654e-05,-8.000000000000000654e-05,-1.199999999999999895e-04,-1.000000000000000082e-05,-1.000000000000000082e-05,5.000000000000000000e+00,9.000000000000000000e+00
2.515600000000000000e+04,2.000000000000000164e-05,5.000000000000000240e-05,1.100000000000000039e-04,8.000000000000000654e-05,-8.000000000000000654e-05,-1.199999999999999895e-04,-1.000000000000000082e-05,-1.000000000000000082e-05,5.000000000000000000e+00,9.000000000000000000e+00
2.515800000000000000e+04,2.000000000000000164e-05,5.000000000000000240e-05,1.100000000000000039e-04,8.000000000000000654e-05,-8.000000000000000654e-05,-1.199999999999999895e-04,-1.000000000000000082e-05,-1.000000000000000082e-05,5.000000000000000000e+00,9.000000000000000000e+00
2.515900000000000000e+04,2.000000000000000164e-05,5.000000000000000240e-05,1.100000000000000039e-04,8.000000000000000654e-05,-8.000000000000000654e-05,-1.199999999999999895e-04,-1.000000000000000082e-05,-1.000000000000000082e-05,5.000000000000000000e+00,9.000000000000000000e+00
2.516000000000000000e+04,2.000000000000000164e-05,5.000000000000000240e-05,1.100000000000000039e-04,8.000000000000000654e-05,-8.000000000000000654e-05,-1.199999999999999895e-04,-1.000000000000000082e-05,-1.000000000000000082e-05,5.000000000000000000e+00,9.000000000000000000e+00
2.516100000000000000e+04,2.000000000000000164e-05,5.000000000000000240e-05,1.100000000000000039e-04,8.000000000000000654e-05,-8.000000000000000654e-05,-1.199999999999999895e-04,-1.000000000000000082e-05,-1.000000000000000082e-05,5.000000000000000000e+00,9.000000000000000000e+00
2.516200000000000000e+04,2.000000000000000164e-05,5.000000000000000240e-05,1.100000000000000039e-04,8.000000000000000654e-05,-8.000000000000000654e-05,-1.199999999999999895e-04,-1.000000000000000082e-05,-1.000000000000000082e-05,5.000000000000000000e+00,9.000000000000000000e+00
2.516300000000000000e+04,2.000000000000000164e-05,5.000000000000000240e-05,1.100000000000000039e-04,8.000000000000000654e-05,-8.000000000000000654e-05,-1.199999999999999895e-04,-1.000000000000000082e-05,-1.000000000000000082e-05,5.000000000000000000e+00,9.000000000000000000e+00
2.516400000000000000e+04,2.000000000000000164e-05,5.000000000000000240e-05,1.100000000000000039e-04,8.000000000000000654e-05,-8.000000000000000654e-05,-1.199999999999999895e-04,-1.000000000000000082e-05,-1.000000000000000082e-05,5.000000000000000000e+00,9.000000000000000000e+00
2.516500000000000000e+04,2.000000000000000164e-05,5.000000000000000240e-05,1.100000000000000039e-04,8.000000000000000654e-05,-8.000000000000000654e-05,-1.199999999999999895e-04,-1.000000000000000082e-05,-1.000000000000000082e-05,5.000000000000000000e+00,9.000000000000000000e+00
2.516600000000000000e+04,2.000000000000000164e-05,5.000000000000000240e-05,1.100000000000000039e-04,8.000000000000000654e-05,-8.000000000000000654e-05,-1.199999999999999895e-04,-1.000000000000000082e-05,-1.000000000000000082e-05,5.000000000000000000e+00,9.000000000000000000e+00
2.516700000000000000e+04,2.000000000000000164e-05,5.000000000000000240e-05,1.100000000000000039e-04,8.000000000000000654e-05,-8.000000000000000654e-05,-1.199999999999999895e-04,-1.000000000000000082e-05,-1.000000000000000082e-05,5.000000000000000000e+00,9.000000000000000000e+00
2.516800000000000000e+04,2.000000000000000164e-05,5.000000000000000240e-05,1.100000000000000039e-04,8.000000000000000654e-05,-8.000000000000000654e-05,-1.199999999999999895e-04,-1.000000000000000082e-05,-1.000000000000000082e-05,5.000000000000000000e+00,9.000000000000000000e+00
2.516900000000000000e+04,2.000000000000000164e-05,5.000000000000000240e-05,1.100000000000000039e-04,8.000000000000000654e-05,-8.000000000000000654e-05,-1.199999999999999895e-04,-1.000000000000000082e-05,-1.000000000000000082e-05,5.000000000000000000e+00,9.000000000000000000e+00
2.517000000000000000e+04,2.000000000000000164e-05,5.000000000000000240e-05,1.100000000000000039e-04,8.000000000000000654e-05,-8.000000000000000654e-05,-1.199999999999999895e-04,-1.000000000000000082e-05,-1.000000000000000082e-05,5.000000000000000000e+00,9.000000000000000000e+00
2.517100000000000000e+04,2.000000000000000164e-05,5.000000000000000240e-05,1.100000000000000039e-04,8.000000000000000654e-05,-8.000000000000000654e-05,-1.199999999999999895e-04,-1.000000000000000082e-05,-1.000000000000000082e-05,5.000000000000000000e+00,9.000000000000000000e+00
2.517200000000000000e+04,2.000000000000000164e-05,5.000000000000000240e-05,1.100000000000000039e-04,8.000000000000000654e-05,-8.000000000000000654e-05,-1.199999999999999895e-04,-1.000000000000000082e-05,-1.000000000000000082e-05,5.000000000000000000e+00,9.000000000000000000e+00
2.517300000000000000e+04,2.000000000000000164e-05,5.000000000000000240e-05,1.100000000000000039e-04,8.000000000000000654e-05,-8.000000000000000654e-05,-1.199999999999999895e-04,-1.000000000000000082e-05,-1.000000000000000082e-05,5.000000000000000000e+00,9.000000000000000000e+00
2.517400000000000000e+04,2.000000000000000164e-05,5.000000000000000240e-05,1.100000000000000039e-04,8.000000000000000654e-05,-8.000000000000000654e-05,-1.199999999999999895e-04,-1.000000000000000082e-05,-1.000000000000000082e-05,5.000000000000000000e+00,9.000000000000000000e+00
2.517500000000000000e+04,-2.999999999999999737e-05,-9.000000000000000567e-05,-2.700000000000000035e-04,-6.999999999999999387e-05,2.999999999999999737e-04,-1.899999999999999834e-04,2.000000000000000164e-05,-9.000000000000000567e-05,5.000000000000000000e+00,9.000000000000000000e+00
2.517600000000000000e+04,0.000000000000000000e+00,-2.000000000000000164e-05,-5.999999999999999474e-05,-5.299999999999999807e-04,-2.299999999999999799e-04,-1.600000000000000131e-04,-5.000000000000000240e-05,-1.000000000000000082e-05,5.000000000000000000e+00,9.000000000000000000e+00
2.517700000000000000e+04,0.000000000000000000e+00,-2.000000000000000164e-05,-5.999999999999999474e-05,-5.299999999999999807e-04,-2.299999999999999799e-04,-1.600000000000000131e-04,-5.000000000000000240e-05,-1.000000000000000082e-05,5.000000000000000000e+00,9.000000000000000000e+00
2.517800000000000000e+04,0.000000000000000000e+00,-2.000000000000000164e-05,-5.999999999999999474e-05,-5.299999999999999807e-04,-2.299999999999999799e-04,-1.600000000000000131e-04,-5.000000000000000240e-05,-1.000000000000000082e-05,5.000000000000000000e+00,9.000000000000000000e+00
2.517900000000000000e+04,0.000000000000000000e+00,-2.000000000000000164e-05,-5.999999999999999474e-05,-5.299999999999999807e-04,-2.299999999999999799e-04,-1.600000000000000131e-04,-5.000000000000000240e-05,-1.000000000000000082e-05,5.000000000000000000e+00,9.000000000000000000e+00
2.518000000000000000e+04,0.000000000000000000e+00,-2.000000000000000164e-05,-5.999999999999999474e-05,-5.299999999999999807e-04,-2.299999999999999799e-04,-1.600000000000000131e-04,-5.000000000000000240e-05,-1.000000000000000082e-05,5.000000000000000000e+00,9.000000000000000000e+00
2.518100000000000000e+04,0.000000000000000000e+00,-2.000000000000000164e-05,-5.999999999999999474e-05,-5.299999999999999807e-04,-2.299999999999999799e-04,-1.600000000000000131e-04,-5.000000000000000240e-05,-1.000000000000000082e-05,5.000000000000000000e+00,9.000000000000000000e+00
2.518200000000000000e+04,0.000000000000000000e+00,-2.000000000000000164e-05,-5.999999999999999474e-05,-5.299999999999999807e-04,-2.299999999999999799e-04,-1.600000000000000131e-04,-5.000000000000000240e-05,-1.000000000000000082e-05,5.000000000000000000e+00,9.000000000000000000e+00
2.518300000000000000e+04,0.000000000000000000e+00,-2.000000000000000164e-05,-5.999999999999999474e-05,-5.299999999999999807e-04,-2.299999999999999799e-04,-1.600000000000000131e-04,-5.000000000000000240e-05,-1.000000000000000082e-05,5.000000000000000000e+00,9.000000000000000000e+00
2.518400000000000000e+04,0.000000000000000000e+00,-2.000000000000000164e-05,-5.999999999999999474e-05,-5.299999999999999807e-04,-2.299999999999999799e-04,-1.600000000000000131e-04,-5.000000000000000240e-05,-1.000000000000000082e-05,5.000000000000000000e+00,9.000000000000000000e+00
2.518500000000000000e+04,0.000000000000000000e+00,-2.000000000000000164e-05,-5.999999999999999474e-05,-5.299999999999999807e-04,-2.299999999999999799e-04,-1.600000000000000131e-04,-5.000000000000000240e-05,-1.000000000000000082e-05,5.000000000000000000e+00,9.000000000000000000e+00
2.518600000000000000e+04,0.000000000000000000e+00,-2.000000000000000164e-05,-5.999999999999999474e-05,-5.299999999999999807e-04,-2.299999999999999799e-04,-1.600000000000000131e-04,-5.000000000000000240e-05,-1.000000000000000082e-05,5.000000000000000000e+00,9.000000000000000000e+00
2.518800000000000000e+04,0.000000000000000000e+00,-2.000000000000000164e-05,-5.999999999999999474e-05,-5.299999999999999807e-04,-2.299999999999999799e-04,-1.600000000000000131e-04,-5.000000000000000240e-05,-1.000000000000000082e-05,5.000000000000000000e+00,9.000000000000000000e+00
2.518900000000000000e+04,0.000000000000000000e+00,-2.000000000000000164e-05,-5.999999999999999474e-05,-5.299999999999999807e-04,-2.299999999999999799e-04,-1.600000000000000131e-04,-5.000000000000000240e-05,-1.000000000000000082e-05,5.000000000000000000e+00,9.000000000000000000e+00
2.519000000000000000e+04,0.000000000000000000e+00,-2.000000000000000164e-05,-5.999999999999999474e-05,-5.299999999999999807e-04,-2.299999999999999799e-04,-1.600000000000000131e-04,-5.000000000000000240e-05,-1.000000000000000082e-05,5.000000000000000000e+00,9.000000000000000000e+00
2.519100000000000000e+04,0.000000000000000000e+00,-2.000000000000000164e-05,-5.999999999999999474e-05,-5.299999999999999807e-04,-2.299999999999999799e-04,-1.600000000000000131e-04,-5.000000000000000240e-05,-1.000000000000000082e-05,5.000000000000000000e+00,9.000000000000000000e+00
2.519200000000000000e+04,0.000000000000000000e+00,-2.000000000000000164e-05,-5.999999999999999474e-05,-5.299999999999999807e-04,-2.299999999999999799e-04,-1.600000000000000131e-04,-5.000000000000000240e-05,-1.000000000000000082e-05,5.000000000000000000e+00,9.000000000000000000e+00
2.519300000000000000e+04,0.000000000000000000e+00,-2.000000000000000164e-05,-5.999999999999999474e-05,-5.299999999999999807e-04,-2.299999999999999799e-04,-1.600000000000000131e-04,-5.000000000000000240e-05,-1.000000000000000082e-05,5.000000000000000000e+00,9.000000000000000000e+00
2.519400000000000000e+04,0.000000000000000000e+00,-2.000000000000000164e-05,-5.999999999999999474e-05,-5.299999999999999807e-04,-2.299999999999999799e-04,-1.600000000000000131e-04,-5.000000000000000240e-05,-1.000000000000000082e-05,5.000000000000000000e+00,9.000000000000000000e+00
2.519500000000000000e+04,0.000000000000000000e+00,-2.000000000000000164e-05,-5.999999999999999474e-05,-5.299999999999999807e-04,-2.299999999999999799e-04,-1.600000000000000131e-04,-5.000000000000000240e-05,-1.000000000000000082e-05,5.000000000000000000e+00,9.000000000000000000e+00
2.519600000000000000e+04,0.000000000000000000e+00,-2.000000000000000164e-05,-5.999999999999999474e-05,-5.299999999999999807e-04,-2.299999999999999799e-04,-1.600000000000000131e-04,-5.000000000000000240e-05,-1.000000000000000082e-05,5.000000000000000000e+00,9.000000000000000000e+00
2.519700000000000000e+04,0.000000000000000000e+00,-2.000000000000000164e-05,-5.999999999999999474e-05,-5.299999999999999807e-04,-2.299999999999999799e-04,-1.600000000000000131e-04,-5.000000000000000240e-05,-1.000000000000000082e-05,5.000000000000000000e+00,9.000000000000000000e+00
2.519800000000000000e+04,0.000000000000000000e+00,-2.000000000000000164e-05,-5.999999999999999474e-05,-5.299999999999999807e-04,-2.299999999999999799e-04,-1.600000000000000131e-04,-5.000000000000000240e-05,-1.000000000000000082e-05,5.000000000000000000e+00,9.000000000000000000e+00
2.519900000000000000e+04,5.000000000000000240e-05,-8.000000000000000654e-05,-5.000000000000000240e-05,-3.200000000000000262e-04,-1.499999999999999869e-04,8.000000000000000654e-05,2.799999999999999755e-04,9.000000000000000567e-05,5.000000000000000000e+00,9.000000000000000000e+00
2.520000000000000000e+04,5.000000000000000240e-05,-8.000000000000000654e-05,-5.000000000000000240e-05,-3.200000000000000262e-04,-1.499999999999999869e-04,8.000000000000000654e-05,2.799999999999999755e-04,9.000000000000000567e-05,5.000000000000000000e+00,9.000000000000000000e+00
2.520100000000000000e+04,5.000000000000000240e-05,-8.000000000000000654e-05,-5.000000000000000240e-05,-3.200000000000000262e-04,-1.499999999999999869e-04,8.000000000000000654e-05,2.799999999999999755e-04,9.000000000000000567e-05,5.000000000000000000e+00,9.000000000000000000e+00
2.520200000000000000e+04,5.000000000000000240e-05,-8.000000000000000654e-05,-5.000000000000000240e-05,-3.200000000000000262e-04,-1.499999999999999869e-04,8.000000000000000654e-05,2.799999999999999755e-04,9.000000000000000567e-05,5.000000000000000000e+00,9.000000000000000000e+00
2.520300000000000000e+04,5.000000000000000240e-05,-8.000000000000000654e-05,-5.000000000000000240e-05,-3.200000000000000262e-04,-1.499999999999999869e-04,8.000000000000000654e-05,2.799999999999999755e-04,9.000000000000000567e-05,5.000000000000000000e+00,9.000000000000000000e+00
2.520400000000000000e+04,5.000000000000000240e-05,-8.000000000000000654e-05,-5.000000000000000240e-05,-3.200000000000000262e-04,-1.499999999999999869e-04,8.000000000000000654e-05,2.799999999999999755e-04,9.000000000000000567e-05,5.000000000000000000e+00,9.000000000000000000e+00
2.520500000000000000e+04,5.000000000000000240e-05,-8.000000000000000654e-05,-5.000000000000000240e-05,-3.200000000000000262e-04,-1.499999999999999869e-04,8.000000000000000654e-05,2.799999999999999755e-04,9.000000000000000567e-05,5.000000000000000000e+00,9.000000000000000000e+00
2.520600000000000000e+04,5.000000000000000240e-05,-8.000000000000000654e-05,-5.000000000000000240e-05,-3.200000000000000262e-04,-1.499999999999999869e-04,8.000000000000000654e-05,2.799999999999999755e-04,9.000000000000000567e-05,5.000000000000000000e+00,9.000000000000000000e+00
2.520700000000000000e+04,5.000000000000000240e-05,-8.000000000000000654e-05,-5.000000000000000240e-05,-3.200000000000000262e-04,-1.499999999999999869e-04,8.000000000000000654e-05,2.799999999999999755e-04,9.000000000000000567e-05,5.000000000000000000e+00,9.000000000000000000e+00
2.520800000000000000e+04,5.000000000000000240e-05,-8.000000000000000654e-05,-5.000000000000000240e-05,-3.200000000000000262e-04,-1.499999999999999869e-04,8.000000000000000654e-05,2.799999999999999755e-04,9.000000000000000567e-05,5.000000000000000000e+00,9.000000000000000000e+00
2.520900000000000000e+04,5.000000000000000240e-05,-8.000000000000000654e-05,-5.000000000000000240e-05,-3.200000000000000262e-04,-1.499999999999999869e-04,8.000000000000000654e-05,2.799999999999999755e-04,9.000000000000000567e-05,5.000000000000000000e+00,9.000000000000000000e+00
2.521000000000000000e+04,5.000000000000000240e-05,-8.000000000000000654e-05,-5.000000000000000240e-05,-3.200000000000000262e-04,-1.499999999999999869e-04,8.000000000000000654e-05,2.799999999999999755e-04,9.000000000000000567e-05,5.000000000000000000e+00,9.000000000000000000e+00
2.521100000000000000e+04,5.000000000000000240e-05,-8.000000000000000654e-05,-5.000000000000000240e-05,-3.200000000000000262e-04,-1.499999999999999869e-04,8.000000000000000654e-05,2.799999999999999755e-04,9.000000000000000567e-05,5.000000000000000000e+00,9.000000000000000000e+00
2.521200000000000000e+04,5.000000000000000240e-05,-8.000000000000000654e-05,-5.000000000000000240e-05,-3.200000000000000262e-04,-1.499999999999999869e-04,8.000000000000000654e-05,2.799999999999999755e-04,9.000000000000000567e-05,5.000000000000000000e+00,9.000000000000000000e+00
2.521300000000000000e+04,-1.600000000000000131e-04,-2.999999999999999737e-04,-7.799999999999999859e-04,-8.000000000000000383e-04,-4.000000000000000327e-05,2.999999999999999737e-04,-2.999999999999999737e-05,-5.999999999999999474e-05,5.000000000000000000e+00,9.000000000000000000e+00
2.521400000000000000e+04,-1.600000000000000131e-04,-2.999999999999999737e-04,-7.799999999999999859e-04,-8.000000000000000383e-04,-4.000000000000000327e-05,2.999999999999999737e-04,-2.999999999999999737e-05,-5.999999999999999474e-05,5.000000000000000000e+00,9.000000000000000000e+00
2.521500000000000000e+04,-1.600000000000000131e-04,-2.999999999999999737e-04,-7.799999999999999859e-04,-8.000000000000000383e-04,-4.000000000000000327e-05,2.999999999999999737e-04,-2.999999999999999737e-05,-5.999999999999999474e-05,5.000000000000000000e+00,9.000000000000000000e+00
2.521600000000000000e+04,-1.600000000000000131e-04,-2.999999999999999737e-04,-7.799999999999999859e-04,-8.000000000000000383e-04,-4.000000000000000327e-05,2.999999999999999737e-04,-2.999999999999999737e-05,-5.999999999999999474e-05,5.000000000000000000e+00,9.000000000000000000e+00
2.521700000000000000e+04,-1.600000000000000131e-04,-2.999999999999999737e-04,-7.799999999999999859e-04,-8.000000000000000383e-04,-4.000000000000000327e-05,2.999999999999999737e-04,-2.999999999999999737e-05,-5.999999999999999474e-05,5.000000000000000000e+00,9.000000000000000000e+00
2.521800000000000000e+04,-1.600000000000000131e-04,-2.999999999999999737e-04,-7.799999999999999859e-04,-8.000000000000000383e-04,-4.000000000000000327e-05,2.999999999999999737e-04,-2.999999999999999737e-05,-5.999999999999999474e-05,5.000000000000000000e+00,9.000000000000000000e+00
2.521900000000000000e+04,-1.600000000000000131e-04,-2.999999999999999737e-04,-7.799999999999999859e-04,-8.000000000000000383e-04,-4.000000000000000327e-05,2.999999999999999737e-04,-2.999999999999999737e-05,-5.999999999999999474e-05,5.000000000000000000e+00,9.000000000000000000e+00
2.522000000000000000e+04,-1.600000000000000131e-04,-2.999999999999999737e-04,-7.799999999999999859e-04,-8.000000000000000383e-04,-4.000000000000000327e-05,2.999999999999999737e-04,-2.999999999999999737e-05,-5.999999999999999474e-05,5.000000000000000000e+00,9.000000000000000000e+00
2.522100000000000000e+04,-1.600000000000000131e-04,-2.999999999999999737e-04,-7.799999999999999859e-04,-8.000000000000000383e-04,-4.000000000000000327e-05,2.999999999999999737e-04,-2.999999999999999737e-05,-5.999999999999999474e-05,5.000000000000000000e+00,9.000000000000000000e+00
2.522200000000000000e+04,-1.600000000000000131e-04,-2.999999999999999737e-04,-7.799999999999999859e-04,-8.000000000000000383e-04,-4.000000000000000327e-05,2.999999999999999737e-04,-2.999999999999999737e-05,-5.999999999999999474e-05,5.000000000000000000e+00,9.000000000000000000e+00
2.522300000000000000e+04,-1.600000000000000131e-04,-2.999999999999999737e-04,-7.799999999999999859e-04,-8.000000000000000383e-04,-4.000000000000000327e-05,2.999999999999999737e-04,-2.999999999999999737e-05,-5.999999999999999474e-05,5.000000000000000000e+00,9.000000000000000000e+00
2.522400000000000000e+04,-1.600000000000000131e-04,-2.999999999999999737e-04,-7.799999999999999859e-04,-8.000000000000000383e-04,-4.000000000000000327e-05,2.999999999999999737e-04,-2.999999999999999737e-05,-5.999999999999999474e-05,5.000000000000000000e+00,9.000000000000000000e+00
2.522500000000000000e+04,-1.600000000000000131e-04,-2.999999999999999737e-04,-7.799999999999999859e-04,-8.000000000000000383e-04,-4.000000000000000327e-05,2.999999999999999737e-04,-2.999999999999999737e-05,-5.999999999999999474e-05,5.000000000000000000e+00,9.000000000000000000e+00
2.522600000000000000e+04,-1.600000000000000131e-04,-2.999999999999999737e-04,-7.799999999999999859e-04,-8.000000000000000383e-04,-4.000000000000000327e-05,2.999999999999999737e-04,-2.999999999999999737e-05,-5.999999999999999474e-05,5.000000000000000000e+00,9.000000000000000000e+00
2.522800000000000000e+04,-1.600000000000000131e-04,-2.999999999999999737e-04,-7.799999999999999859e-04,-8.000000000000000383e-04,-4.000000000000000327e-05,2.999999999999999737e-04,-2.999999999999999737e-05,-5.999999999999999474e-05,5.000000000000000000e+00,9.000000000000000000e+00
2.522900000000000000e+04,-1.600000000000000131e-04,-2.999999999999999737e-04,-7.799999999999999859e-04,-8.000000000000000383e-04,-4.000000000000000327e-05,2.999999999999999737e-04,-2.999999999999999737e-05,-5.999999999999999474e-05,5.000000000000000000e+00,9.000000000000000000e+00
2.523000000000000000e+04,-1.600000000000000131e-04,-2.999999999999999737e-04,-7.799999999999999859e-04,-8.000000000000000383e-04,-4.000000000000000327e-05,2.999999999999999737e-04,-2.999999999999999737e-05,-5.999999999999999474e-05,5.000000000000000000e+00,9.000000000000000000e+00
2.523100000000000000e+04,-1.600000000000000131e-04,-2.999999999999999737e-04,-7.799999999999999859e-04,-8.000000000000000383e-04,-4.000000000000000327e-05,2.999999999999999737e-04,-2.999999999999999737e-05,-5.999999999999999474e-05,5.000000000000000000e+00,9.000000000000000000e+00
2.523200000000000000e+04,-1.600000000000000131e-04,-2.999999999999999737e-04,-7.799999999999999859e-04,-8.000000000000000383e-04,-4.000000000000000327e-05,2.999999999999999737e-04,-2.999999999999999737e-05,-5.999999999999999474e-05,5.000000000000000000e+00,9.000000000000000000e+00
2.523300000000000000e+04,-1.600000000000000131e-04,-2.999999999999999737e-04,-7.799999999999999859e-04,-8.000000000000000383e-04,-4.000000000000000327e-05,2.999999999999999737e-04,-2.999999999999999737e-05,-5.999999999999999474e-05,5.000000000000000000e+00,9.000000000000000000e+00
2.523400000000000000e+04,-1.600000000000000131e-04,-2.999999999999999737e-04,-7.799999999999999859e-04,-8.000000000000000383e-04,-4.000000000000000327e-05,2.999999999999999737e-04,-2.999999999999999737e-05,-5.999999999999999474e-05,5.000000000000000000e+00,9.000000000000000000e+00
2.523500000000000000e+04,0.000000000000000000e+00,-2.999999999999999737e-05,-2.000000000000000164e-05,-1.899999999999999834e-04,-2.399999999999999790e-04,0.000000000000000000e+00,1.300000000000000157e-04,4.000000000000000327e-05,5.000000000000000000e+00,9.000000000000000000e+00
2.523600000000000000e+04,-6.999999999999999387e-05,1.000000000000000082e-05,5.000000000000000240e-05,7.399999999999999894e-04,7.299999999999999632e-04,-2.399999999999999790e-04,-1.499999999999999869e-04,-1.300000000000000157e-04,5.000000000000000000e+00,9.000000000000000000e+00
2.523800000000000000e+04,-6.999999999999999387e-05,1.000000000000000082e-05,5.000000000000000240e-05,7.399999999999999894e-04,7.299999999999999632e-04,-2.399999999999999790e-04,-1.499999999999999869e-04,-1.300000000000000157e-04,5.000000000000000000e+00,9.000000000000000000e+00
2.523900000000000000e+04,-6.999999999999999387e-05,1.000000000000000082e-05,5.000000000000000240e-05,7.399999999999999894e-04,7.299999999999999632e-04,-2.399999999999999790e-04,-1.499999999999999869e-04,-1.300000000000000157e-04,5.000000000000000000e+00,9.000000000000000000e+00
2.524000000000000000e+04,-6.999999999999999387e-05,1.000000000000000082e-05,5.000000000000000240e-05,7.399999999999999894e-04,7.299999999999999632e-04,-2.399999999999999790e-04,-1.499999999999999869e-04,-1.300000000000000157e-04,5.000000000000000000e+00,9.000000000000000000e+00
2.524100000000000000e+04,-6.999999999999999387e-05,1.000000000000000082e-05,5.000000000000000240e-05,7.399999999999999894e-04,7.299999999999999632e-04,-2.399999999999999790e-04,-1.499999999999999869e-04,-1.300000000000000157e-04,5.000000000000000000e+00,9.000000000000000000e+00
2.524200000000000000e+04,-6.999999999999999387e-05,1.000000000000000082e-05,5.000000000000000240e-05,7.399999999999999894e-04,7.299999999999999632e-04,-2.399999999999999790e-04,-1.499999999999999869e-04,-1.300000000000000157e-04,5.000000000000000000e+00,9.000000000000000000e+00
2.524300000000000000e+04,-6.999999999999999387e-05,1.000000000000000082e-05,5.000000000000000240e-05,7.399999999999999894e-04,7.299999999999999632e-04,-2.399999999999999790e-04,-1.499999999999999869e-04,-1.300000000000000157e-04,5.000000000000000000e+00,9.000000000000000000e+00
2.524400000000000000e+04,-6.999999999999999387e-05,1.000000000000000082e-05,5.000000000000000240e-05,7.399999999999999894e-04,7.299999999999999632e-04,-2.399999999999999790e-04,-1.499999999999999869e-04,-1.300000000000000157e-04,5.000000000000000000e+00,9.000000000000000000e+00
2.524500000000000000e+04,-6.999999999999999387e-05,1.000000000000000082e-05,5.000000000000000240e-05,7.399999999999999894e-04,7.299999999999999632e-04,-2.399999999999999790e-04,-1.499999999999999869e-04,-1.300000000000000157e-04,5.000000000000000000e+00,9.000000000000000000e+00
2.524600000000000000e+04,-6.999999999999999387e-05,1.000000000000000082e-05,5.000000000000000240e-05,7.399999999999999894e-04,7.299999999999999632e-04,-2.399999999999999790e-04,-1.499999999999999869e-04,-1.300000000000000157e-04,5.000000000000000000e+00,9.000000000000000000e+00
2.524700000000000000e+04,-6.999999999999999387e-05,1.000000000000000082e-05,5.000000000000000240e-05,7.399999999999999894e-04,7.299999999999999632e-04,-2.399999999999999790e-04,-1.499999999999999869e-04,-1.300000000000000157e-04,5.000000000000000000e+00,9.000000000000000000e+00
2.524800000000000000e+04,-6.999999999999999387e-05,1.000000000000000082e-05,5.000000000000000240e-05,7.399999999999999894e-04,7.299999999999999632e-04,-2.399999999999999790e-04,-1.499999999999999869e-04,-1.300000000000000157e-04,5.000000000000000000e+00,9.000000000000000000e+00
2.524900000000000000e+04,-6.999999999999999387e-05,1.000000000000000082e-05,5.000000000000000240e-05,7.399999999999999894e-04,7.299999999999999632e-04,-2.399999999999999790e-04,-1.499999999999999869e-04,-1.300000000000000157e-04,5.000000000000000000e+00,9.000000000000000000e+00
2.525000000000000000e+04,-6.999999999999999387e-05,-1.399999999999999877e-04,-2.000000000000000096e-04,-4.000000000000000192e-04,4.000000000000000327e-05,0.000000000000000000e+00,-5.000000000000000240e-05,-2.999999999999999737e-05,5.000000000000000000e+00,9.000000000000000000e+00
2.525100000000000000e+04,1.000000000000000082e-05,-8.000000000000000654e-05,-2.399999999999999790e-04,-6.900000000000000751e-04,-5.500000000000000331e-04,-1.600000000000000131e-04,8.000000000000000654e-05,9.000000000000000567e-05,5.000000000000000000e+00,9.000000000000000000e+00
2.525200000000000000e+04,1.000000000000000082e-05,-8.000000000000000654e-05,-2.399999999999999790e-04,-6.900000000000000751e-04,-5.500000000000000331e-04,-1.600000000000000131e-04,8.000000000000000654e-05,9.000000000000000567e-05,5.000000000000000000e+00,9.000000000000000000e+00
2.525300000000000000e+04,1.000000000000000082e-05,-8.000000000000000654e-05,-2.399999999999999790e-04,-6.900000000000000751e-04,-5.500000000000000331e-04,-1.600000000000000131e-04,8.000000000000000654e-05,9.000000000000000567e-05,5.000000000000000000e+00,9.000000000000000000e+00
2.525400000000000000e+04,1.000000000000000082e-05,-8.000000000000000654e-05,-2.399999999999999790e-04,-6.900000000000000751e-04,-5.500000000000000331e-04,-1.600000000000000131e-04,8.000000000000000654e-05,9.000000000000000567e-05,5.000000000000000000e+00,9.000000000000000000e+00
2.525500000000000000e+04,1.000000000000000082e-05,-8.000000000000000654e-05,-2.399999999999999790e-04,-6.900000000000000751e-04,-5.500000000000000331e-04,-1.600000000000000131e-04,8.000000000000000654e-05,9.000000000000000567e-05,5.000000000000000000e+00,9.000000000000000000e+00
2.525600000000000000e+04,1.000000000000000082e-05,-8.000000000000000654e-05,-2.399999999999999790e-04,-6.900000000000000751e-04,-5.500000000000000331e-04,-1.600000000000000131e-04,8.000000000000000654e-05,9.000000000000000567e-05,5.000000000000000000e+00,9.000000000000000000e+00
2.525700000000000000e+04,1.000000000000000082e-05,-8.000000000000000654e-05,-2.399999999999999790e-04,-6.900000000000000751e-04,-5.500000000000000331e-04,-1.600000000000000131e-04,8.000000000000000654e-05,9.000000000000000567e-05,5.000000000000000000e+00,9.000000000000000000e+00
2.525800000000000000e+04,1.000000000000000082e-05,-8.000000000000000654e-05,-2.399999999999999790e-04,-6.900000000000000751e-04,-5.500000000000000331e-04,-1.600000000000000131e-04,8.000000000000000654e-05,9.000000000000000567e-05,5.000000000000000000e+00,9.000000000000000000e+00
2.525900000000000000e+04,1.000000000000000082e-05,-8.000000000000000654e-05,-2.399999999999999790e-04,-6.900000000000000751e-04,-5.500000000000000331e-04,-1.600000000000000131e-04,8.000000000000000654e-05,9.000000000000000567e-05,5.000000000000000000e+00,9.000000000000000000e+00
2.526000000000000000e+04,1.000000000000000082e-05,-8.000000000000000654e-05,-2.399999999999999790e-04,-6.900000000000000751e-04,-5.500000000000000331e-04,-1.600000000000000131e-04,8.000000000000000654e-05,9.000000000000000567e-05,5.000000000000000000e+00,9.000000000000000000e+00
2.526100000000000000e+04,1.000000000000000082e-05,-8.000000000000000654e-05,-2.399999999999999790e-04,-6.900000000000000751e-04,-5.500000000000000331e-04,-1.600000000000000131e-04,8.000000000000000654e-05,9.000000000000000567e-05,5.000000000000000000e+00,9.000000000000000000e+00
2.526200000000000000e+04,1.000000000000000082e-05,-8.000000000000000654e-05,-2.399999999999999790e-04,-6.900000000000000751e-04,-5.500000000000000331e-04,-1.600000000000000131e-04,8.000000000000000654e-05,9.000000000000000567e-05,5.000000000000000000e+00,9.000000000000000000e+00
2.526300000000000000e+04,1.000000000000000082e-05,-8.000000000000000654e-05,-2.399999999999999790e-04,-6.900000000000000751e-04,-5.500000000000000331e-04,-1.600000000000000131e-04,8.000000000000000654e-05,9.000000000000000567e-05,5.000000000000000000e+00,9.000000000000000000e+00
2.526400000000000000e+04,1.000000000000000082e-05,-8.000000000000000654e-05,-2.399999999999999790e-04,-6.900000000000000751e-04,-5.500000000000000331e-04,-1.600000000000000131e-04,8.000000000000000654e-05,9.000000000000000567e-05,5.000000000000000000e+00,9.000000000000000000e+00
2.526500000000000000e+04,1.000000000000000082e-05,-8.000000000000000654e-05,-2.399999999999999790e-04,-6.900000000000000751e-04,-5.500000000000000331e-04,-1.600000000000000131e-04,8.000000000000000654e-05,9.000000000000000567e-05,5.000000000000000000e+00,9.000000000000000000e+00
2.526600000000000000e+04,1.000000000000000082e-05,-8.000000000000000654e-05,-2.399999999999999790e-04,-6.900000000000000751e-04,-5.500000000000000331e-04,-1.600000000000000131e-04,8.000000000000000654e-05,9.000000000000000567e-05,5.000000000000000000e+00,9.000000000000000000e+00
2.526700000000000000e+04,1.000000000000000082e-05,-8.000000000000000654e-05,-2.399999999999999790e-04,-6.900000000000000751e-04,-5.500000000000000331e-04,-1.600000000000000131e-04,8.000000000000000654e-05,9.000000000000000567e-05,5.000000000000000000e+00,9.000000000000000000e+00
2.526800000000000000e+04,1.000000000000000082e-05,-8.000000000000000654e-05,-2.399999999999999790e-04,-6.900000000000000751e-04,-5.500000000000000331e-04,-1.600000000000000131e-04,8.000000000000000654e-05,9.000000000000000567e-05,5.000000000000000000e+00,9.000000000000000000e+00
2.526900000000000000e+04,1.000000000000000082e-05,-8.000000000000000654e-05,-2.399999999999999790e-04,-6.900000000000000751e-04,-5.500000000000000331e-04,-1.600000000000000131e-04,8.000000000000000654e-05,9.000000000000000567e-05,5.000000000000000000e+00,9.000000000000000000e+00
2.527000000000000000e+04,1.000000000000000082e-05,-8.000000000000000654e-05,-2.399999999999999790e-04,-6.900000000000000751e-04,-5.500000000000000331e-04,-1.600000000000000131e-04,8.000000000000000654e-05,9.000000000000000567e-05,5.000000000000000000e+00,9.000000000000000000e+00
2.527100000000000000e+04,1.000000000000000082e-05,-8.000000000000000654e-05,-2.399999999999999790e-04,-6.900000000000000751e-04,-5.500000000000000331e-04,-1.600000000000000131e-04,8.000000000000000654e-05,9.000000000000000567e-05,5.000000000000000000e+00,9.000000000000000000e+00
2.527200000000000000e+04,1.000000000000000082e-05,-8.000000000000000654e-05,-2.399999999999999790e-04,-6.900000000000000751e-04,-5.500000000000000331e-04,-1.600000000000000131e-04,8.000000000000000654e-05,9.000000000000000567e-05,5.000000000000000000e+00,9.000000000000000000e+00
2.527300000000000000e+04,4.000000000000000327e-05,9.000000000000000567e-05,2.600000000000000314e-04,8.300000000000001170e-04,-1.800000000000000113e-04,4.000000000000000327e-05,8.000000000000000654e-05,4.000000000000000327e-05,5.000000000000000000e+00,9.000000000000000000e+00
2.527400000000000000e+04,2.000000000000000164e-05,2.999999999999999737e-05,1.499999999999999869e-04,4.000000000000000192e-04,4.000000000000000192e-04,5.999999999999999474e-05,-2.000000000000000164e-05,1.000000000000000082e-05,5.000000000000000000e+00,9.000000000000000000e+00
2.527500000000000000e+04,2.000000000000000164e-05,2.999999999999999737e-05,1.499999999999999869e-04,4.000000000000000192e-04,4.000000000000000192e-04,5.999999999999999474e-05,-2.000000000000000164e-05,1.000000000000000082e-05,5.000000000000000000e+00,9.000000000000000000e+00
2.527600000000000000e+04,2.000000000000000164e-05,2.999999999999999737e-05,1.499999999999999869e-04,4.000000000000000192e-04,4.000000000000000192e-04,5.999999999999999474e-05,-2.000000000000000164e-05,1.000000000000000082e-05,5.000000000000000000e+00,9.000000000000000000e+00
2.527700000000000000e+04,2.000000000000000164e-05,2.999999999999999737e-05,1.499999999999999869e-04,4.000000000000000192e-04,4.000000000000000192e-04,5.999999999999999474e-05,-2.000000000000000164e-05,1.000000000000000082e-05,5.000000000000000000e+00,9.000000000000000000e+00
2.527800000000000000e+04,2.000000000000000164e-05,2.999999999999999737e-05,1.499999999999999869e-04,4.000000000000000192e-04,4.000000000000000192e-04,5.999999999999999474e-05,-2.000000000000000164e-05,1.000000000000000082e-05,5.000000000000000000e+00,9.000000000000000000e+00
2.527900000000000000e+04,2.000000000000000164e-05,2.999999999999999737e-05,1.499999999999999869e-04,4.000000000000000192e-04,4.000000000000000192e-04,5.999999999999999474e-05,-2.000000000000000164e-05,1.000000000000000082e-05,5.000000000000000000e+00,9.000000000000000000e+00
2.528000000000000000e+04,2.000000000000000164e-05,2.999999999999999737e-05,1.499999999999999869e-04,4.000000000000000192e-04,4.000000000000000192e-04,5.999999999999999474e-05,-2.000000000000000164e-05,1.000000000000000082e-05,5.000000000000000000e+00,9.000000000000000000e+00
2.528100000000000000e+04,2.000000000000000164e-05,2.999999999999999737e-05,1.499999999999999869e-04,4.000000000000000192e-04,4.000000000000000192e-04,5.999999999999999474e-05,-2.000000000000000164e-05,1.000000000000000082e-05,5.000000000000000000e+00,9.000000000000000000e+00
2.528200000000000000e+04,2.000000000000000164e-05,2.999999999999999737e-05,1.499999999999999869e-04,4.000000000000000192e-04,4.000000000000000192e-04,5.999999999999999474e-05,-2.000000000000000164e-05,1.000000000000000082e-05,5.000000000000000000e+00,9.000000000000000000e+00
2.528300000000000000e+04,2.000000000000000164e-05,2.999999999999999737e-05,1.499999999999999869e-04,4.000000000000000192e-04,4.000000000000000192e-04,5.999999999999999474e-05,-2.000000000000000164e-05,1.000000000000000082e-05,5.000000000000000000e+00,9.000000000000000000e+00
2.528400000000000000e+04,2.000000000000000164e-05,2.999999999999999737e-05,1.499999999999999869e-04,4.000000000000000192e-04,4.000000000000000192e-04,5.999999999999999474e-05,-2.000000000000000164e-05,1.000000000000000082e-05,5.000000000000000000e+00,9.000000000000000000e+00
2.528500000000000000e+04,2.000000000000000164e-05,2.999999999999999737e-05,1.499999999999999869e-04,4.000000000000000192e-04,4.000000000000000192e-04,5.999999999999999474e-05,-2.000000000000000164e-05,1.000000000000000082e-05,5.000000000000000000e+00,9.000000000000000000e+00
2.528600000000000000e+04,2.000000000000000164e-05,2.999999999999999737e-05,1.499999999999999869e-04,4.000000000000000192e-04,4.000000000000000192e-04,5.999999999999999474e-05,-2.000000000000000164e-05,1.000000000000000082e-05,5.000000000000000000e+00,9.000000000000000000e+00
2.528800000000000000e+04,2.000000000000000164e-05,2.999999999999999737e-05,1.499999999999999869e-04,4.000000000000000192e-04,4.000000000000000192e-04,5.999999999999999474e-05,-2.000000000000000164e-05,1.000000000000000082e-05,5.000000000000000000e+00,9.000000000000000000e+00
2.528900000000000000e+04,2.000000000000000164e-05,2.999999999999999737e-05,1.499999999999999869e-04,4.000000000000000192e-04,4.000000000000000192e-04,5.999999999999999474e-05,-2.000000000000000164e-05,1.000000000000000082e-05,5.000000000000000000e+00,9.000000000000000000e+00
2.529000000000000000e+04,2.000000000000000164e-05,2.999999999999999737e-05,1.499999999999999869e-04,4.000000000000000192e-04,4.000000000000000192e-04,5.999999999999999474e-05,-2.000000000000000164e-05,1.000000000000000082e-05,5.000000000000000000e+00,9.000000000000000000e+00
2.529100000000000000e+04,2.000000000000000164e-05,2.999999999999999737e-05,1.499999999999999869e-04,4.000000000000000192e-04,4.000000000000000192e-04,5.999999999999999474e-05,-2.000000000000000164e-05,1.000000000000000082e-05,5.000000000000000000e+00,9.000000000000000000e+00
2.529200000000000000e+04,2.000000000000000164e-05,2.999999999999999737e-05,1.499999999999999869e-04,4.000000000000000192e-04,4.000000000000000192e-04,5.999999999999999474e-05,-2.000000000000000164e-05,1.000000000000000082e-05,5.000000000000000000e+00,9.000000000000000000e+00
2.529300000000000000e+04,2.000000000000000164e-05,2.999999999999999737e-05,1.499999999999999869e-04,4.000000000000000192e-04,4.000000000000000192e-04,5.999999999999999474e-05,-2.000000000000000164e-05,1.000000000000000082e-05,5.000000000000000000e+00,9.000000000000000000e+00
2.529400000000000000e+04,2.000000000000000164e-05,2.999999999999999737e-05,1.499999999999999869e-04,4.000000000000000192e-04,4.000000000000000192e-04,5.999999999999999474e-05,-2.000000000000000164e-05,1.000000000000000082e-05,5.000000000000000000e+00,9.000000000000000000e+00
2.529500000000000000e+04,2.000000000000000164e-05,2.999999999999999737e-05,1.499999999999999869e-04,4.000000000000000192e-04,4.000000000000000192e-04,5.999999999999999474e-05,-2.000000000000000164e-05,1.000000000000000082e-05,5.000000000000000000e+00,9.000000000000000000e+00
2.529600000000000000e+04,-1.000000000000000082e-05,-5.000000000000000240e-05,-5.000000000000000240e-05,-1.600000000000000131e-04,-1.100000000000000039e-04,-3.299999999999999982e-04,2.999999999999999737e-05,-2.000000000000000164e-05,5.000000000000000000e+00,9.000000000000000000e+00
2.529700000000000000e+04,-1.000000000000000082e-05,-5.000000000000000240e-05,-5.000000000000000240e-05,-1.600000000000000131e-04,-1.100000000000000039e-04,-3.299999999999999982e-04,2.999999999999999737e-05,-2.000000000000000164e-05,5.000000000000000000e+00,9.000000000000000000e+00
2.529800000000000000e+04,-1.000000000000000082e-05,-5.000000000000000240e-05,-5.000000000000000240e-05,-1.600000000000000131e-04,-1.100000000000000039e-04,-3.299999999999999982e-04,2.999999999999999737e-05,-2.000000000000000164e-05,5.000000000000000000e+00,9.000000000000000000e+00
2.529900000000000000e+04,-1.000000000000000082e-05,-5.000000000000000240e-05,-5.000000000000000240e-05,-1.600000000000000131e-04,-1.100000000000000039e-04,-3.299999999999999982e-04,2.999999999999999737e-05,-2.000000000000000164e-05,5.000000000000000000e+00,9.000000000000000000e+00
2.530000000000000000e+04,-1.000000000000000082e-05,-5.000000000000000240e-05,-5.000000000000000240e-05,-1.600000000000000131e-04,-1.100000000000000039e-04,-3.299999999999999982e-04,2.999999999999999737e-05,-2.000000000000000164e-05,5.000000000000000000e+00,9.000000000000000000e+00
2.530100000000000000e+04,-1.000000000000000082e-05,-5.000000000000000240e-05,-5.000000000000000240e-05,-1.600000000000000131e-04,-1.100000000000000039e-04,-3.299999999999999982e-04,2.999999999999999737e-05,-2.000000000000000164e-05,5.000000000000000000e+00,9.000000000000000000e+00
2.530200000000000000e+04,-1.000000000000000082e-05,-5.000000000000000240e-05,-5.000000000000000240e-05,-1.600000000000000131e-04,-1.100000000000000039e-04,-3.299999999999999982e-04,2.999999999999999737e-05,-2.000000000000000164e-05,5.000000000000000000e+00,9.000000000000000000e+00
2.530300000000000000e+04,-1.000000000000000082e-05,-5.000000000000000240e-05,-5.000000000000000240e-05,-1.600000000000000131e-04,-1.100000000000000039e-04,-3.299999999999999982e-04,2.999999999999999737e-05,-2.000000000000000164e-05,5.000000000000000000e+00,9.000000000000000000e+00
2.530400000000000000e+04,-1.000000000000000082e-05,-5.000000000000000240e-05,-5.000000000000000240e-05,-1.600000000000000131e-04,-1.100000000000000039e-04,-3.299999999999999982e-04,2.999999999999999737e-05,-2.000000000000000164e-05,5.000000000000000000e+00,9.000000000000000000e+00
2.530500000000000000e+04,-1.000000000000000082e-05,-5.000000000000000240e-05,-5.000000000000000240e-05,-1.600000000000000131e-04,-1.100000000000000039e-04,-3.299999999999999982e-04,2.999999999999999737e-05,-2.000000000000000164e-05,5.000000000000000000e+00,9.000000000000000000e+00
2.530600000000000000e+04,-1.000000000000000082e-05,-5.000000000000000240e-05,-5.000000000000000240e-05,-1.600000000000000131e-04,-1.100000000000000039e-04,-3.299999999999999982e-04,2.999999999999999737e-05,-2.000000000000000164e-05,5.000000000000000000e+00,9.000000000000000000e+00
2.530800000000000000e+04,-1.000000000000000082e-05,-5.000000000000000240e-05,-5.000000000000000240e-05,-1.600000000000000131e-04,-1.100000000000000039e-04,-3.299999999999999982e-04,2.999999999999999737e-05,-2.000000000000000164e-05,5.000000000000000000e+00,9.000000000000000000e+00
2.530900000000000000e+04,-1.000000000000000082e-05,-5.000000000000000240e-05,-5.000000000000000240e-05,-1.600000000000000131e-04,-1.100000000000000039e-04,-3.299999999999999982e-04,2.999999999999999737e-05,-2.000000000000000164e-05,5.000000000000000000e+00,9.000000000000000000e+00
2.531000000000000000e+04,-1.000000000000000082e-05,-5.000000000000000240e-05,-5.000000000000000240e-05,-1.600000000000000131e-04,-1.100000000000000039e-04,-3.299999999999999982e-04,2.999999999999999737e-05,-2.000000000000000164e-05,5.000000000000000000e+00,9.000000000000000000e+00
2.531100000000000000e+04,-1.000000000000000082e-05,-5.000000000000000240e-05,-5.000000000000000240e-05,-1.600000000000000131e-04,-1.100000000000000039e-04,-3.299999999999999982e-04,2.999999999999999737e-05,-2.000000000000000164e-05,5.000000000000000000e+00,9.000000000000000000e+00
2.531200000000000000e+04,-1.000000000000000082e-05,-5.000000000000000240e-05,-5.000000000000000240e-05,-1.600000000000000131e-04,-1.100000000000000039e-04,-3.299999999999999982e-04,2.999999999999999737e-05,-2.000000000000000164e-05,5.000000000000000000e+00,9.000000000000000000e+00
2.531300000000000000e+04,-1.000000000000000082e-05,-5.000000000000000240e-05,-5.000000000000000240e-05,-1.600000000000000131e-04,-1.100000000000000039e-04,-3.299999999999999982e-04,2.999999999999999737e-05,-2.000000000000000164e-05,5.000000000000000000e+00,9.000000000000000000e+00
2.531400000000000000e+04,-1.000000000000000082e-05,-5.000000000000000240e-05,-5.000000000000000240e-05,-1.600000000000000131e-04,-1.100000000000000039e-04,-3.299999999999999982e-04,2.999999999999999737e-05,-2.000000000000000164e-05,5.000000000000000000e+00,9.000000000000000000e+00
2.531500000000000000e+04,-1.000000000000000082e-05,-5.000000000000000240e-05,-5.000000000000000240e-05,-1.600000000000000131e-04,-1.100000000000000039e-04,-3.299999999999999982e-04,2.999999999999999737e-05,-2.000000000000000164e-05,5.000000000000000000e+00,9.000000000000000000e+00
2.531600000000000000e+04,-1.000000000000000082e-05,-5.000000000000000240e-05,-5.000000000000000240e-05,-1.600000000000000131e-04,-1.100000000000000039e-04,-3.299999999999999982e-04,2.999999999999999737e-05,-2.000000000000000164e-05,5.000000000000000000e+00,9.000000000000000000e+00
2.531700000000000000e+04,-1.000000000000000082e-05,-5.000000000000000240e-05,-5.000000000000000240e-05,-1.600000000000000131e-04,-1.100000000000000039e-04,-3.299999999999999982e-04,2.999999999999999737e-05,-2.000000000000000164e-05,5.000000000000000000e+00,9.000000000000000000e+00
2.531800000000000000e+04,2.999999999999999737e-05,9.000000000000000567e-05,1.199999999999999895e-04,-8.000000000000000654e-05,2.100000000000000087e-04,2.999999999999999737e-05,-2.999999999999999737e-05,2.000000000000000164e-05,5.000000000000000000e+00,9.000000000000000000e+00
2.531900000000000000e+04,5.000000000000000240e-05,2.999999999999999737e-05,2.000000000000000164e-05,1.499999999999999869e-04,-1.399999999999999877e-04,-2.999999999999999737e-05,1.100000000000000039e-04,8.000000000000000654e-05,5.000000000000000000e+00,9.000000000000000000e+00
2.532000000000000000e+04,5.000000000000000240e-05,2.999999999999999737e-05,2.000000000000000164e-05,1.499999999999999869e-04,-1.399999999999999877e-04,-2.999999999999999737e-05,1.100000000000000039e-04,8.000000000000000654e-05,5.000000000000000000e+00,9.000000000000000000e+00
2.532100000000000000e+04,5.000000000000000240e-05,2.999999999999999737e-05,2.000000000000000164e-05,1.499999999999999869e-04,-1.399999999999999877e-04,-2.999999999999999737e-05,1.100000000000000039e-04,8.000000000000000654e-05,5.000000000000000000e+00,9.000000000000000000e+00
2.532200000000000000e+04,5.000000000000000240e-05,2.999999999999999737e-05,2.000000000000000164e-05,1.499999999999999869e-04,-1.399999999999999877e-04,-2.999999999999999737e-05,1.100000000000000039e-04,8.000000000000000654e-05,5.000000000000000000e+00,9.000000000000000000e+00
2.532300000000000000e+04,5.000000000000000240e-05,2.999999999999999737e-05,2.000000000000000164e-05,1.499999999999999869e-04,-1.399999999999999877e-04,-2.999999999999999737e-05,1.100000000000000039e-04,8.000000000000000654e-05,5.000000000000000000e+00,9.000000000000000000e+00
2.532400000000000000e+04,5.000000000000000240e-05,2.999999999999999737e-05,2.000000000000000164e-05,1.499999999999999869e-04,-1.399999999999999877e-04,-2.999999999999999737e-05,1.100000000000000039e-04,8.000000000000000654e-05,5.000000000000000000e+00,9.000000000000000000e+00
2.532500000000000000e+04,5.000000000000000240e-05,2.999999999999999737e-05,2.000000000000000164e-05,1.499999999999999869e-04,-1.399999999999999877e-04,-2.999999999999999737e-05,1.100000000000000039e-04,8.000000000000000654e-05,5.000000000000000000e+00,9.000000000000000000e+00
2.532600000000000000e+04,5.000000000000000240e-05,2.999999999999999737e-05,2.000000000000000164e-05,1.499999999999999869e-04,-1.399999999999999877e-04,-2.999999999999999737e-05,1.100000000000000039e-04,8.000000000000000654e-05,5.000000000000000000e+00,9.000000000000000000e+00
2.532700000000000000e+04,5.000000000000000240e-05,2.999999999999999737e-05,2.000000000000000164e-05,1.499999999999999869e-04,-1.399999999999999877e-04,-2.999999999999999737e-05,1.100000000000000039e-04,8.000000000000000654e-05,5.000000000000000000e+00,9.000000000000000000e+00
2.532800000000000000e+04,5.000000000000000240e-05,2.999999999999999737e-05,2.000000000000000164e-05,1.499999999999999869e-04,-1.399999999999999877e-04,-2.999999999999999737e-05,1.100000000000000039e-04,8.000000000000000654e-05,5.000000000000000000e+00,9.000000000000000000e+00
2.532900000000000000e+04,5.000000000000000240e-05,2.999999999999999737e-05,2.000000000000000164e-05,1.499999999999999869e-04,-1.399999999999999877e-04,-2.999999999999999737e-05,1.100000000000000039e-04,8.000000000000000654e-05,5.000000000000000000e+00,9.000000000000000000e+00
2.533000000000000000e+04,5.000000000000000240e-05,2.999999999999999737e-05,2.000000000000000164e-05,1.499999999999999869e-04,-1.399999999999999877e-04,-2.999999999999999737e-05,1.100000000000000039e-04,8.000000000000000654e-05,5.000000000000000000e+00,9.000000000000000000e+00
2.533100000000000000e+04,5.000000000000000240e-05,2.999999999999999737e-05,2.000000000000000164e-05,1.499999999999999869e-04,-1.399999999999999877e-04,-2.999999999999999737e-05,1.100000000000000039e-04,8.000000000000000654e-05,5.000000000000000000e+00,9.000000000000000000e+00
2.533200000000000000e+04,5.000000000000000240e-05,2.999999999999999737e-05,2.000000000000000164e-05,1.499999999999999869e-04,-1.399999999999999877e-04,-2.999999999999999737e-05,1.100000000000000039e-04,8.000000000000000654e-05,5.000000000000000000e+00,9.000000000000000000e+00
2.533300000000000000e+04,5.000000000000000240e-05,2.999999999999999737e-05,2.000000000000000164e-05,1.499999999999999869e-04,-1.399999999999999877e-04,-2.999999999999999737e-05,1.100000000000000039e-04,8.000000000000000654e-05,5.000000000000000000e+00,9.000000000000000000e+00
2.533400000000000000e+04,5.000000000000000240e-05,2.999999999999999737e-05,2.000000000000000164e-05,1.499999999999999869e-04,-1.399999999999999877e-04,-2.999999999999999737e-05,1.100000000000000039e-04,8.000000000000000654e-05,5.000000000000000000e+00,9.000000000000000000e+00
2.533500000000000000e+04,5.000000000000000240e-05,2.999999999999999737e-05,2.000000000000000164e-05,1.499999999999999869e-04,-1.399999999999999877e-04,-2.999999999999999737e-05,1.100000000000000039e-04,8.000000000000000654e-05,5.000000000000000000e+00,9.000000000000000000e+00
2.533600000000000000e+04,5.000000000000000240e-05,2.999999999999999737e-05,2.000000000000000164e-05,1.499999999999999869e-04,-1.399999999999999877e-04,-2.999999999999999737e-05,1.100000000000000039e-04,8.000000000000000654e-05,5.000000000000000000e+00,9.000000000000000000e+00
2.533900000000000000e+04,5.000000000000000240e-05,2.999999999999999737e-05,2.000000000000000164e-05,1.499999999999999869e-04,-1.399999999999999877e-04,-2.999999999999999737e-05,1.100000000000000039e-04,8.000000000000000654e-05,5.000000000000000000e+00,9.000000000000000000e+00
2.534000000000000000e+04,5.000000000000000240e-05,2.999999999999999737e-05,2.000000000000000164e-05,1.499999999999999869e-04,-1.399999999999999877e-04,-2.999999999999999737e-05,1.100000000000000039e-04,8.000000000000000654e-05,5.000000000000000000e+00,9.000000000000000000e+00
2.534100000000000000e+04,-2.999999999999999737e-05,-2.999999999999999737e-05,8.000000000000000654e-05,5.200000000000000629e-04,3.099999999999999999e-04,-1.199999999999999895e-04,-1.600000000000000131e-04,-6.999999999999999387e-05,5.000000000000000000e+00,9.000000000000000000e+00
2.534200000000000000e+04,-9.000000000000000567e-05,-1.600000000000000131e-04,-4.599999999999999597e-04,-5.000000000000000104e-04,-4.200000000000000174e-04,-8.000000000000000654e-05,1.000000000000000082e-05,5.000000000000000240e-05,5.000000000000000000e+00,9.000000000000000000e+00
2.534300000000000000e+04,-9.000000000000000567e-05,-1.600000000000000131e-04,-4.599999999999999597e-04,-5.000000000000000104e-04,-4.200000000000000174e-04,-8.000000000000000654e-05,1.000000000000000082e-05,5.000000000000000240e-05,5.000000000000000000e+00,9.000000000000000000e+00
2.534400000000000000e+04,-9.000000000000000567e-05,-1.600000000000000131e-04,-4.599999999999999597e-04,-5.000000000000000104e-04,-4.200000000000000174e-04,-8.000000000000000654e-05,1.000000000000000082e-05,5.000000000000000240e-05,5.000000000000000000e+00,9.000000000000000000e+00
2.534500000000000000e+04,-9.000000000000000567e-05,-1.600000000000000131e-04,-4.599999999999999597e-04,-5.000000000000000104e-04,-4.200000000000000174e-04,-8.000000000000000654e-05,1.000000000000000082e-05,5.000000000000000240e-05,5.000000000000000000e+00,9.000000000000000000e+00
2.534600000000000000e+04,-9.000000000000000567e-05,-1.600000000000000131e-04,-4.599999999999999597e-04,-5.000000000000000104e-04,-4.200000000000000174e-04,-8.000000000000000654e-05,1.000000000000000082e-05,5.000000000000000240e-05,5.000000000000000000e+00,9.000000000000000000e+00
2.534700000000000000e+04,-9.000000000000000567e-05,-1.600000000000000131e-04,-4.599999999999999597e-04,-5.000000000000000104e-04,-4.200000000000000174e-04,-8.000000000000000654e-05,1.000000000000000082e-05,5.000000000000000240e-05,5.000000000000000000e+00,9.000000000000000000e+00
2.534800000000000000e+04,-9.000000000000000567e-05,-1.600000000000000131e-04,-4.599999999999999597e-04,-5.000000000000000104e-04,-4.200000000000000174e-04,-8.000000000000000654e-05,1.000000000000000082e-05,5.000000000000000240e-05,5.000000000000000000e+00,9.000000000000000000e+00
2.534900000000000000e+04,-9.000000000000000567e-05,-1.600000000000000131e-04,-4.599999999999999597e-04,-5.000000000000000104e-04,-4.200000000000000174e-04,-8.000000000000000654e-05,1.000000000000000082e-05,5.000000000000000240e-05,5.000000000000000000e+00,9.000000000000000000e+00
2.535000000000000000e+04,-9.000000000000000567e-05,-1.600000000000000131e-04,-4.599999999999999597e-04,-5.000000000000000104e-04,-4.200000000000000174e-04,-8.000000000000000654e-05,1.000000000000000082e-05,5.000000000000000240e-05,5.000000000000000000e+00,9.000000000000000000e+00
2.535100000000000000e+04,-9.000000000000000567e-05,-1.600000000000000131e-04,-4.599999999999999597e-04,-5.000000000000000104e-04,-4.200000000000000174e-04,-8.000000000000000654e-05,1.000000000000000082e-05,5.000000000000000240e-05,5.000000000000000000e+00,9.000000000000000000e+00
2.535200000000000000e+04,-9.000000000000000567e-05,-1.600000000000000131e-04,-4.599999999999999597e-04,-5.000000000000000104e-04,-4.200000000000000174e-04,-8.000000000000000654e-05,1.000000000000000082e-05,5.000000000000000240e-05,5.000000000000000000e+00,9.000000000000000000e+00
2.535300000000000000e+04,-9.000000000000000567e-05,-1.600000000000000131e-04,-4.599999999999999597e-04,-5.000000000000000104e-04,-4.200000000000000174e-04,-8.000000000000000654e-05,1.000000000000000082e-05,5.000000000000000240e-05,5.000000000000000000e+00,9.000000000000000000e+00
2.535400000000000000e+04,-9.000000000000000567e-05,-1.600000000000000131e-04,-4.599999999999999597e-04,-5.000000000000000104e-04,-4.200000000000000174e-04,-8.000000000000000654e-05,1.000000000000000082e-05,5.000000000000000240e-05,5.000000000000000000e+00,9.000000000000000000e+00
2.535500000000000000e+04,-9.000000000000000567e-05,-1.600000000000000131e-04,-4.599999999999999597e-04,-5.000000000000000104e-04,-4.200000000000000174e-04,-8.000000000000000654e-05,1.000000000000000082e-05,5.000000000000000240e-05,5.000000000000000000e+00,9.000000000000000000e+00
2.535600000000000000e+04,-9.000000000000000567e-05,-1.600000000000000131e-04,-4.599999999999999597e-04,-5.000000000000000104e-04,-4.200000000000000174e-04,-8.000000000000000654e-05,1.000000000000000082e-05,5.000000000000000240e-05,5.000000000000000000e+00,9.000000000000000000e+00
2.535700000000000000e+04,-9.000000000000000567e-05,-1.600000000000000131e-04,-4.599999999999999597e-04,-5.000000000000000104e-04,-4.200000000000000174e-04,-8.000000000000000654e-05,1.000000000000000082e-05,5.000000000000000240e-05,5.000000000000000000e+00,9.000000000000000000e+00
2.535800000000000000e+04,-9.000000000000000567e-05,-1.600000000000000131e-04,-4.599999999999999597e-04,-5.000000000000000104e-04,-4.200000000000000174e-04,-8.000000000000000654e-05,1.000000000000000082e-05,5.000000000000000240e-05,5.000000000000000000e+00,9.000000000000000000e+00
2.535900000000000000e+04,-9.000000000000000567e-05,-1.600000000000000131e-04,-4.599999999999999597e-04,-5.000000000000000104e-04,-4.200000000000000174e-04,-8.000000000000000654e-05,1.000000000000000082e-05,5.000000000000000240e-05,5.000000000000000000e+00,9.000000000000000000e+00
2.536000000000000000e+04,-9.000000000000000567e-05,-1.600000000000000131e-04,-4.599999999999999597e-04,-5.000000000000000104e-04,-4.200000000000000174e-04,-8.000000000000000654e-05,1.000000000000000082e-05,5.000000000000000240e-05,5.000000000000000000e+00,9.000000000000000000e+00
2.536100000000000000e+04,-9.000000000000000567e-05,-1.600000000000000131e-04,-4.599999999999999597e-04,-5.000000000000000104e-04,-4.200000000000000174e-04,-8.000000000000000654e-05,1.000000000000000082e-05,5.000000000000000240e-05,5.000000000000000000e+00,9.000000000000000000e+00
2.536200000000000000e+04,-9.000000000000000567e-05,-1.600000000000000131e-04,-4.599999999999999597e-04,-5.000000000000000104e-04,-4.200000000000000174e-04,-8.000000000000000654e-05,1.000000000000000082e-05,5.000000000000000240e-05,5.000000000000000000e+00,9.000000000000000000e+00
2.536300000000000000e+04,-9.000000000000000567e-05,-1.600000000000000131e-04,-4.599999999999999597e-04,-5.000000000000000104e-04,-4.200000000000000174e-04,-8.000000000000000654e-05,1.000000000000000082e-05,5.000000000000000240e-05,5.000000000000000000e+00,9.000000000000000000e+00
2.536400000000000000e+04,5.000000000000000240e-05,1.000000000000000048e-04,1.300000000000000157e-04,0.000000000000000000e+00,6.999999999999999387e-05,-4.000000000000000327e-05,4.000000000000000327e-05,0.000000000000000000e+00,5.000000000000000000e+00,9.000000000000000000e+00
2.536500000000000000e+04,-4.000000000000000327e-05,8.000000000000000654e-05,4.799999999999999580e-04,7.200000000000000453e-04,1.199999999999999895e-04,2.000000000000000164e-05,-1.600000000000000131e-04,-1.100000000000000039e-04,5.000000000000000000e+00,9.000000000000000000e+00
2.536600000000000000e+04,-4.000000000000000327e-05,8.000000000000000654e-05,4.799999999999999580e-04,7.200000000000000453e-04,1.199999999999999895e-04,2.000000000000000164e-05,-1.600000000000000131e-04,-1.100000000000000039e-04,5.000000000000000000e+00,9.000000000000000000e+00
2.536700000000000000e+04,-4.000000000000000327e-05,8.000000000000000654e-05,4.799999999999999580e-04,7.200000000000000453e-04,1.199999999999999895e-04,2.000000000000000164e-05,-1.600000000000000131e-04,-1.100000000000000039e-04,5.000000000000000000e+00,9.000000000000000000e+00
2.536800000000000000e+04,-4.000000000000000327e-05,8.000000000000000654e-05,4.799999999999999580e-04,7.200000000000000453e-04,1.199999999999999895e-04,2.000000000000000164e-05,-1.600000000000000131e-04,-1.100000000000000039e-04,5.000000000000000000e+00,9.000000000000000000e+00
2.536900000000000000e+04,-4.000000000000000327e-05,8.000000000000000654e-05,4.799999999999999580e-04,7.200000000000000453e-04,1.199999999999999895e-04,2.000000000000000164e-05,-1.600000000000000131e-04,-1.100000000000000039e-04,5.000000000000000000e+00,9.000000000000000000e+00
2.537000000000000000e+04,-4.000000000000000327e-05,8.000000000000000654e-05,4.799999999999999580e-04,7.200000000000000453e-04,1.199999999999999895e-04,2.000000000000000164e-05,-1.600000000000000131e-04,-1.100000000000000039e-04,5.000000000000000000e+00,9.000000000000000000e+00
2.537100000000000000e+04,-4.000000000000000327e-05,8.000000000000000654e-05,4.799999999999999580e-04,7.200000000000000453e-04,1.199999999999999895e-04,2.000000000000000164e-05,-1.600000000000000131e-04,-1.100000000000000039e-04,5.000000000000000000e+00,9.000000000000000000e+00
2.537200000000000000e+04,-1.000000000000000048e-04,-1.199999999999999895e-04,-1.000000000000000082e-05,2.299999999999999799e-04,1.300000000000000157e-04,5.000000000000000240e-05,-1.000000000000000082e-05,0.000000000000000000e+00,5.000000000000000000e+00,9.000000000000000000e+00
2.537300000000000000e+04,-2.999999999999999737e-05,-2.000000000000000164e-05,1.000000000000000082e-05,-5.000000000000000240e-05,-2.200000000000000078e-04,-5.999999999999999474e-05,-6.999999999999999387e-05,-6.999999999999999387e-05,5.000000000000000000e+00,9.000000000000000000e+00
2.537400000000000000e+04,-2.999999999999999737e-05,-2.000000000000000164e-05,1.000000000000000082e-05,-5.000000000000000240e-05,-2.200000000000000078e-04,-5.999999999999999474e-05,-6.999999999999999387e-05,-6.999999999999999387e-05,5.000000000000000000e+00,9.000000000000000000e+00
2.537500000000000000e+04,-2.999999999999999737e-05,-2.000000000000000164e-05,1.000000000000000082e-05,-5.000000000000000240e-05,-2.200000000000000078e-04,-5.999999999999999474e-05,-6.999999999999999387e-05,-6.999999999999999387e-05,5.000000000000000000e+00,9.000000000000000000e+00
2.537600000000000000e+04,-2.999999999999999737e-05,-2.000000000000000164e-05,1.000000000000000082e-05,-5.000000000000000240e-05,-2.200000000000000078e-04,-5.999999999999999474e-05,-6.999999999999999387e-05,-6.999999999999999387e-05,5.000000000000000000e+00,9.000000000000000000e+00
2.537800000000000000e+04,-2.999999999999999737e-05,-2.000000000000000164e-05,1.000000000000000082e-05,-5.000000000000000240e-05,-2.200000000000000078e-04,-5.999999999999999474e-05,-6.999999999999999387e-05,-6.999999999999999387e-05,5.000000000000000000e+00,9.000000000000000000e+00
2.537900000000000000e+04,-2.999999999999999737e-05,-2.000000000000000164e-05,1.000000000000000082e-05,-5.000000000000000240e-05,-2.200000000000000078e-04,-5.999999999999999474e-05,-6.999999999999999387e-05,-6.999999999999999387e-05,5.000000000000000000e+00,9.000000000000000000e+00
2.538000000000000000e+04,-2.999999999999999737e-05,-2.000000000000000164e-05,1.000000000000000082e-05,-5.000000000000000240e-05,-2.200000000000000078e-04,-5.999999999999999474e-05,-6.999999999999999387e-05,-6.999999999999999387e-05,5.000000000000000000e+00,9.000000000000000000e+00
2.538100000000000000e+04,-2.999999999999999737e-05,-2.000000000000000164e-05,1.000000000000000082e-05,-5.000000000000000240e-05,-2.200000000000000078e-04,-5.999999999999999474e-05,-6.999999999999999387e-05,-6.999999999999999387e-05,5.000000000000000000e+00,9.000000000000000000e+00
2.538200000000000000e+04,-2.999999999999999737e-05,-2.000000000000000164e-05,1.000000000000000082e-05,-5.000000000000000240e-05,-2.200000000000000078e-04,-5.999999999999999474e-05,-6.999999999999999387e-05,-6.999999999999999387e-05,5.000000000000000000e+00,9.000000000000000000e+00
2.538300000000000000e+04,-2.999999999999999737e-05,-2.000000000000000164e-05,1.000000000000000082e-05,-5.000000000000000240e-05,-2.200000000000000078e-04,-5.999999999999999474e-05,-6.999999999999999387e-05,-6.999999999999999387e-05,5.000000000000000000e+00,9.000000000000000000e+00
2.538400000000000000e+04,-2.999999999999999737e-05,-2.000000000000000164e-05,1.000000000000000082e-05,-5.000000000000000240e-05,-2.200000000000000078e-04,-5.999999999999999474e-05,-6.999999999999999387e-05,-6.999999999999999387e-05,5.000000000000000000e+00,9.000000000000000000e+00
2.538500000000000000e+04,-2.999999999999999737e-05,-2.000000000000000164e-05,1.000000000000000082e-05,-5.000000000000000240e-05,-2.200000000000000078e-04,-5.999999999999999474e-05,-6.999999999999999387e-05,-6.999999999999999387e-05,5.000000000000000000e+00,9.000000000000000000e+00
2.538600000000000000e+04,-2.999999999999999737e-05,-2.000000000000000164e-05,1.000000000000000082e-05,-5.000000000000000240e-05,-2.200000000000000078e-04,-5.999999999999999474e-05,-6.999999999999999387e-05,-6.999999999999999387e-05,5.000000000000000000e+00,9.000000000000000000e+00
2.538800000000000000e+04,-2.999999999999999737e-05,-2.000000000000000164e-05,1.000000000000000082e-05,-5.000000000000000240e-05,-2.200000000000000078e-04,-5.999999999999999474e-05,-6.999999999999999387e-05,-6.999999999999999387e-05,5.000000000000000000e+00,9.000000000000000000e+00
2.538900000000000000e+04,-2.999999999999999737e-05,-2.000000000000000164e-05,1.000000000000000082e-05,-5.000000000000000240e-05,-2.200000000000000078e-04,-5.999999999999999474e-05,-6.999999999999999387e-05,-6.999999999999999387e-05,5.000000000000000000e+00,9.000000000000000000e+00
2.539000000000000000e+04,-2.999999999999999737e-05,-2.000000000000000164e-05,1.000000000000000082e-05,-5.000000000000000240e-05,-2.200000000000000078e-04,-5.999999999999999474e-05,-6.999999999999999387e-05,-6.999999999999999387e-05,5.000000000000000000e+00,9.000000000000000000e+00
