3.813500000000000000e+04,6.999999999999999387e-05,1.000000000000000048e-04,1.399999999999999877e-04,6.300000000000000261e-04,4.700000000000000401e-04,2.299999999999999799e-04,1.600000000000000131e-04,1.199999999999999895e-04,4.000000000000000000e+00,1.900000000000000000e+01
3.813800000000000000e+04,6.999999999999999387e-05,1.000000000000000048e-04,1.399999999999999877e-04,6.300000000000000261e-04,4.700000000000000401e-04,2.299999999999999799e-04,1.600000000000000131e-04,1.199999999999999895e-04,4.000000000000000000e+00,1.900000000000000000e+01
3.813900000000000000e+04,6.999999999999999387e-05,1.000000000000000048e-04,1.399999999999999877e-04,6.300000000000000261e-04,4.700000000000000401e-04,2.299999999999999799e-04,1.600000000000000131e-04,1.199999999999999895e-04,4.000000000000000000e+00,1.900000000000000000e+01
3.814000000000000000e+04,6.999999999999999387e-05,1.000000000000000048e-04,1.399999999999999877e-04,6.300000000000000261e-04,4.700000000000000401e-04,2.299999999999999799e-04,1.600000000000000131e-04,1.199999999999999895e-04,4.000000000000000000e+00,1.900000000000000000e+01
3.814100000000000000e+04,6.999999999999999387e-05,1.000000000000000048e-04,1.399999999999999877e-04,6.300000000000000261e-04,4.700000000000000401e-04,2.299999999999999799e-04,1.600000000000000131e-04,1.199999999999999895e-04,4.000000000000000000e+00,1.900000000000000000e+01
3.814200000000000000e+04,6.999999999999999387e-05,1.000000000000000048e-04,1.399999999999999877e-04,6.300000000000000261e-04,4.700000000000000401e-04,2.299999999999999799e-04,1.600000000000000131e-04,1.199999999999999895e-04,4.000000000000000000e+00,1.900000000000000000e+01
3.814300000000000000e+04,6.999999999999999387e-05,1.000000000000000048e-04,1.399999999999999877e-04,6.300000000000000261e-04,4.700000000000000401e-04,2.299999999999999799e-04,1.600000000000000131e-04,1.199999999999999895e-04,4.000000000000000000e+00,1.900000000000000000e+01
3.814400000000000000e+04,6.999999999999999387e-05,1.000000000000000048e-04,1.399999999999999877e-04,6.300000000000000261e-04,4.700000000000000401e-04,2.299999999999999799e-04,1.600000000000000131e-04,1.199999999999999895e-04,4.000000000000000000e+00,1.900000000000000000e+01
3.814500000000000000e+04,6.999999999999999387e-05,1.000000000000000048e-04,1.399999999999999877e-04,6.300000000000000261e-04,4.700000000000000401e-04,2.299999999999999799e-04,1.600000000000000131e-04,1.199999999999999895e-04,4.000000000000000000e+00,1.900000000000000000e+01
3.814600000000000000e+04,6.999999999999999387e-05,1.000000000000000048e-04,1.399999999999999877e-04,6.300000000000000261e-04,4.700000000000000401e-04,2.299999999999999799e-04,1.600000000000000131e-04,1.199999999999999895e-04,4.000000000000000000e+00,1.900000000000000000e+01
3.814700000000000000e+04,6.999999999999999387e-05,1.000000000000000048e-04,1.399999999999999877e-04,6.300000000000000261e-04,4.700000000000000401e-04,2.299999999999999799e-04,1.600000000000000131e-04,1.199999999999999895e-04,4.000000000000000000e+00,1.900000000000000000e+01
3.814800000000000000e+04,6.999999999999999387e-05,1.000000000000000048e-04,1.399999999999999877e-04,6.300000000000000261e-04,4.700000000000000401e-04,2.299999999999999799e-04,1.600000000000000131e-04,1.199999999999999895e-04,4.000000000000000000e+00,1.900000000000000000e+01
3.814900000000000000e+04,6.999999999999999387e-05,1.000000000000000048e-04,1.399999999999999877e-04,6.300000000000000261e-04,4.700000000000000401e-04,2.299999999999999799e-04,1.600000000000000131e-04,1.199999999999999895e-04,4.000000000000000000e+00,1.900000000000000000e+01
3.815000000000000000e+04,6.999999999999999387e-05,1.000000000000000048e-04,1.399999999999999877e-04,6.300000000000000261e-04,4.700000000000000401e-04,2.299999999999999799e-04,1.600000000000000131e-04,1.199999999999999895e-04,4.000000000000000000e+00,1.900000000000000000e+01
3.815100000000000000e+04,6.999999999999999387e-05,1.000000000000000048e-04,1.399999999999999877e-04,6.300000000000000261e-04,4.700000000000000401e-04,2.299999999999999799e-04,1.600000000000000131e-04,1.199999999999999895e-04,4.000000000000000000e+00,1.900000000000000000e+01
3.815200000000000000e+04,6.999999999999999387e-05,1.000000000000000048e-04,1.399999999999999877e-04,6.300000000000000261e-04,4.700000000000000401e-04,2.299999999999999799e-04,1.600000000000000131e-04,1.199999999999999895e-04,4.000000000000000000e+00,1.900000000000000000e+01
3.815300000000000000e+04,6.999999999999999387e-05,1.000000000000000048e-04,1.399999999999999877e-04,6.300000000000000261e-04,4.700000000000000401e-04,2.299999999999999799e-04,1.600000000000000131e-04,1.199999999999999895e-04,4.000000000000000000e+00,1.900000000000000000e+01
3.815400000000000000e+04,6.999999999999999387e-05,1.000000000000000048e-04,1.399999999999999877e-04,6.300000000000000261e-04,4.700000000000000401e-04,2.299999999999999799e-04,1.600000000000000131e-04,1.199999999999999895e-04,4.000000000000000000e+00,1.900000000000000000e+01
3.815500000000000000e+04,-1.000000000000000048e-04,-1.600000000000000131e-04,-1.499999999999999869e-04,8.000000000000000654e-05,-2.000000000000000164e-05,-5.000000000000000240e-05,0.000000000000000000e+00,-5.999999999999999474e-05,4.000000000000000000e+00,1.900000000000000000e+01
3.815600000000000000e+04,-6.999999999999999387e-05,-5.000000000000000240e-05,-1.300000000000000157e-04,-1.069999999999999988e-03,-1.030000000000000100e-03,-2.799999999999999755e-04,-1.699999999999999851e-04,-1.100000000000000039e-04,4.000000000000000000e+00,1.900000000000000000e+01
3.815700000000000000e+04,-5.999999999999999474e-05,-5.999999999999999474e-05,1.000000000000000082e-05,-4.000000000000000327e-05,-6.900000000000000751e-04,-1.800000000000000113e-04,-1.300000000000000157e-04,-1.000000000000000048e-04,4.000000000000000000e+00,1.900000000000000000e+01
3.815800000000000000e+04,-5.999999999999999474e-05,-5.999999999999999474e-05,1.000000000000000082e-05,-4.000000000000000327e-05,-6.900000000000000751e-04,-1.800000000000000113e-04,-1.300000000000000157e-04,-1.000000000000000048e-04,4.000000000000000000e+00,1.900000000000000000e+01
3.815900000000000000e+04,-5.999999999999999474e-05,-5.999999999999999474e-05,1.000000000000000082e-05,-4.000000000000000327e-05,-6.900000000000000751e-04,-1.800000000000000113e-04,-1.300000000000000157e-04,-1.000000000000000048e-04,4.000000000000000000e+00,1.900000000000000000e+01
3.816000000000000000e+04,-5.999999999999999474e-05,-5.999999999999999474e-05,1.000000000000000082e-05,-4.000000000000000327e-05,-6.900000000000000751e-04,-1.800000000000000113e-04,-1.300000000000000157e-04,-1.000000000000000048e-04,4.000000000000000000e+00,1.900000000000000000e+01
3.816100000000000000e+04,-5.999999999999999474e-05,-5.999999999999999474e-05,1.000000000000000082e-05,-4.000000000000000327e-05,-6.900000000000000751e-04,-1.800000000000000113e-04,-1.300000000000000157e-04,-1.000000000000000048e-04,4.000000000000000000e+00,1.900000000000000000e+01
3.816200000000000000e+04,2.000000000000000164e-05,-1.000000000000000082e-05,6.999999999999999387e-05,8.999999999999999754e-04,3.799999999999999667e-04,-3.399999999999999702e-04,-1.300000000000000157e-04,-5.000000000000000240e-05,4.000000000000000000e+00,1.900000000000000000e+01
3.816300000000000000e+04,2.000000000000000164e-05,-1.000000000000000082e-05,6.999999999999999387e-05,8.999999999999999754e-04,3.799999999999999667e-04,-3.399999999999999702e-04,-1.300000000000000157e-04,-5.000000000000000240e-05,4.000000000000000000e+00,1.900000000000000000e+01
3.816400000000000000e+04,-1.000000000000000082e-05,0.000000000000000000e+00,1.199999999999999895e-04,5.900000000000000296e-04,2.799999999999999755e-04,1.300000000000000157e-04,1.000000000000000082e-05,0.000000000000000000e+00,4.000000000000000000e+00,1.900000000000000000e+01
3.816500000000000000e+04,-1.000000000000000082e-05,0.000000000000000000e+00,1.199999999999999895e-04,5.900000000000000296e-04,2.799999999999999755e-04,1.300000000000000157e-04,1.000000000000000082e-05,0.000000000000000000e+00,4.000000000000000000e+00,1.900000000000000000e+01
3.816600000000000000e+04,-1.000000000000000082e-05,0.000000000000000000e+00,1.199999999999999895e-04,5.900000000000000296e-04,2.799999999999999755e-04,1.300000000000000157e-04,1.000000000000000082e-05,0.000000000000000000e+00,4.000000000000000000e+00,1.900000000000000000e+01
3.816700000000000000e+04,-1.000000000000000082e-05,0.000000000000000000e+00,1.199999999999999895e-04,5.900000000000000296e-04,2.799999999999999755e-04,1.300000000000000157e-04,1.000000000000000082e-05,0.000000000000000000e+00,4.000000000000000000e+00,1.900000000000000000e+01
3.816800000000000000e+04,-1.000000000000000082e-05,0.000000000000000000e+00,1.199999999999999895e-04,5.900000000000000296e-04,2.799999999999999755e-04,1.300000000000000157e-04,1.000000000000000082e-05,0.000000000000000000e+00,4.000000000000000000e+00,1.900000000000000000e+01
3.816900000000000000e+04,-1.000000000000000082e-05,0.000000000000000000e+00,1.199999999999999895e-04,5.900000000000000296e-04,2.799999999999999755e-04,1.300000000000000157e-04,1.000000000000000082e-05,0.000000000000000000e+00,4.000000000000000000e+00,1.900000000000000000e+01
3.817000000000000000e+04,-1.000000000000000082e-05,0.000000000000000000e+00,1.199999999999999895e-04,5.900000000000000296e-04,2.799999999999999755e-04,1.300000000000000157e-04,1.000000000000000082e-05,0.000000000000000000e+00,4.000000000000000000e+00,1.900000000000000000e+01
3.817100000000000000e+04,-1.000000000000000082e-05,0.000000000000000000e+00,1.199999999999999895e-04,5.900000000000000296e-04,2.799999999999999755e-04,1.300000000000000157e-04,1.000000000000000082e-05,0.000000000000000000e+00,4.000000000000000000e+00,1.900000000000000000e+01
3.817200000000000000e+04,-1.000000000000000082e-05,0.000000000000000000e+00,1.199999999999999895e-04,5.900000000000000296e-04,2.799999999999999755e-04,1.300000000000000157e-04,1.000000000000000082e-05,0.000000000000000000e+00,4.000000000000000000e+00,1.900000000000000000e+01
3.817300000000000000e+04,-1.000000000000000082e-05,0.000000000000000000e+00,1.199999999999999895e-04,5.900000000000000296e-04,2.799999999999999755e-04,1.300000000000000157e-04,1.000000000000000082e-05,0.000000000000000000e+00,4.000000000000000000e+00,1.900000000000000000e+01
3.817400000000000000e+04,-1.000000000000000082e-05,0.000000000000000000e+00,1.199999999999999895e-04,5.900000000000000296e-04,2.799999999999999755e-04,1.300000000000000157e-04,1.000000000000000082e-05,0.000000000000000000e+00,4.000000000000000000e+00,1.900000000000000000e+01
3.817500000000000000e+04,-1.000000000000000082e-05,0.000000000000000000e+00,1.199999999999999895e-04,5.900000000000000296e-04,2.799999999999999755e-04,1.300000000000000157e-04,1.000000000000000082e-05,0.000000000000000000e+00,4.000000000000000000e+00,1.900000000000000000e+01
3.817600000000000000e+04,-1.000000000000000082e-05,0.000000000000000000e+00,1.199999999999999895e-04,5.900000000000000296e-04,2.799999999999999755e-04,1.300000000000000157e-04,1.000000000000000082e-05,0.000000000000000000e+00,4.000000000000000000e+00,1.900000000000000000e+01
3.817700000000000000e+04,4.000000000000000327e-05,2.999999999999999737e-05,9.000000000000000567e-05,-2.999999999999999737e-05,-3.299999999999999982e-04,-8.000000000000000654e-05,1.000000000000000082e-05,-1.000000000000000082e-05,4.000000000000000000e+00,1.900000000000000000e+01
3.817800000000000000e+04,4.000000000000000327e-05,2.999999999999999737e-05,9.000000000000000567e-05,-2.999999999999999737e-05,-3.299999999999999982e-04,-8.000000000000000654e-05,1.000000000000000082e-05,-1.000000000000000082e-05,4.000000000000000000e+00,1.900000000000000000e+01
3.817900000000000000e+04,4.000000000000000327e-05,2.999999999999999737e-05,9.000000000000000567e-05,-2.999999999999999737e-05,-3.299999999999999982e-04,-8.000000000000000654e-05,1.000000000000000082e-05,-1.000000000000000082e-05,4.000000000000000000e+00,1.900000000000000000e+01
3.818000000000000000e+04,4.000000000000000327e-05,2.999999999999999737e-05,9.000000000000000567e-05,-2.999999999999999737e-05,-3.299999999999999982e-04,-8.000000000000000654e-05,1.000000000000000082e-05,-1.000000000000000082e-05,4.000000000000000000e+00,1.900000000000000000e+01
3.818100000000000000e+04,4.000000000000000327e-05,2.999999999999999737e-05,9.000000000000000567e-05,-2.999999999999999737e-05,-3.299999999999999982e-04,-8.000000000000000654e-05,1.000000000000000082e-05,-1.000000000000000082e-05,4.000000000000000000e+00,1.900000000000000000e+01
3.818200000000000000e+04,4.000000000000000327e-05,2.999999999999999737e-05,9.000000000000000567e-05,-2.999999999999999737e-05,-3.299999999999999982e-04,-8.000000000000000654e-05,1.000000000000000082e-05,-1.000000000000000082e-05,4.000000000000000000e+00,1.900000000000000000e+01
3.818300000000000000e+04,4.000000000000000327e-05,2.999999999999999737e-05,9.000000000000000567e-05,-2.999999999999999737e-05,-3.299999999999999982e-04,-8.000000000000000654e-05,1.000000000000000082e-05,-1.000000000000000082e-05,4.000000000000000000e+00,1.900000000000000000e+01
3.818400000000000000e+04,4.000000000000000327e-05,2.999999999999999737e-05,9.000000000000000567e-05,-2.999999999999999737e-05,-3.299999999999999982e-04,-8.000000000000000654e-05,1.000000000000000082e-05,-1.000000000000000082e-05,4.000000000000000000e+00,1.900000000000000000e+01
3.818500000000000000e+04,4.000000000000000327e-05,2.999999999999999737e-05,9.000000000000000567e-05,-2.999999999999999737e-05,-3.299999999999999982e-04,-8.000000000000000654e-05,1.000000000000000082e-05,-1.000000000000000082e-05,4.000000000000000000e+00,1.900000000000000000e+01
3.818600000000000000e+04,4.000000000000000327e-05,2.999999999999999737e-05,9.000000000000000567e-05,-2.999999999999999737e-05,-3.299999999999999982e-04,-8.000000000000000654e-05,1.000000000000000082e-05,-1.000000000000000082e-05,4.000000000000000000e+00,1.900000000000000000e+01
3.818800000000000000e+04,4.000000000000000327e-05,2.999999999999999737e-05,9.000000000000000567e-05,-2.999999999999999737e-05,-3.299999999999999982e-04,-8.000000000000000654e-05,1.000000000000000082e-05,-1.000000000000000082e-05,4.000000000000000000e+00,1.900000000000000000e+01
3.818900000000000000e+04,4.000000000000000327e-05,2.999999999999999737e-05,9.000000000000000567e-05,-2.999999999999999737e-05,-3.299999999999999982e-04,-8.000000000000000654e-05,1.000000000000000082e-05,-1.000000000000000082e-05,4.000000000000000000e+00,1.900000000000000000e+01
3.819000000000000000e+04,4.000000000000000327e-05,2.999999999999999737e-05,9.000000000000000567e-05,-2.999999999999999737e-05,-3.299999999999999982e-04,-8.000000000000000654e-05,1.000000000000000082e-05,-1.000000000000000082e-05,4.000000000000000000e+00,1.900000000000000000e+01
3.819100000000000000e+04,-8.000000000000000654e-05,-8.000000000000000654e-05,4.000000000000000327e-05,2.500000000000000052e-04,-3.299999999999999982e-04,-2.999999999999999737e-05,0.000000000000000000e+00,-6.999999999999999387e-05,4.000000000000000000e+00,1.900000000000000000e+01
3.819200000000000000e+04,-8.000000000000000654e-05,-8.000000000000000654e-05,4.000000000000000327e-05,2.500000000000000052e-04,-3.299999999999999982e-04,-2.999999999999999737e-05,0.000000000000000000e+00,-6.999999999999999387e-05,4.000000000000000000e+00,1.900000000000000000e+01
3.819300000000000000e+04,-8.000000000000000654e-05,-8.000000000000000654e-05,4.000000000000000327e-05,2.500000000000000052e-04,-3.299999999999999982e-04,-2.999999999999999737e-05,0.000000000000000000e+00,-6.999999999999999387e-05,4.000000000000000000e+00,1.900000000000000000e+01
3.819400000000000000e+04,-8.000000000000000654e-05,-8.000000000000000654e-05,4.000000000000000327e-05,2.500000000000000052e-04,-3.299999999999999982e-04,-2.999999999999999737e-05,0.000000000000000000e+00,-6.999999999999999387e-05,4.000000000000000000e+00,1.900000000000000000e+01
3.819500000000000000e+04,-8.000000000000000654e-05,-8.000000000000000654e-05,4.000000000000000327e-05,2.500000000000000052e-04,-3.299999999999999982e-04,-2.999999999999999737e-05,0.000000000000000000e+00,-6.999999999999999387e-05,4.000000000000000000e+00,1.900000000000000000e+01
3.819600000000000000e+04,-8.000000000000000654e-05,-8.000000000000000654e-05,4.000000000000000327e-05,2.500000000000000052e-04,-3.299999999999999982e-04,-2.999999999999999737e-05,0.000000000000000000e+00,-6.999999999999999387e-05,4.000000000000000000e+00,1.900000000000000000e+01
3.819700000000000000e+04,-8.000000000000000654e-05,-8.000000000000000654e-05,4.000000000000000327e-05,2.500000000000000052e-04,-3.299999999999999982e-04,-2.999999999999999737e-05,0.000000000000000000e+00,-6.999999999999999387e-05,4.000000000000000000e+00,1.900000000000000000e+01
3.819800000000000000e+04,-8.000000000000000654e-05,-8.000000000000000654e-05,4.000000000000000327e-05,2.500000000000000052e-04,-3.299999999999999982e-04,-2.999999999999999737e-05,0.000000000000000000e+00,-6.999999999999999387e-05,4.000000000000000000e+00,1.900000000000000000e+01
3.819900000000000000e+04,-8.000000000000000654e-05,-8.000000000000000654e-05,4.000000000000000327e-05,2.500000000000000052e-04,-3.299999999999999982e-04,-2.999999999999999737e-05,0.000000000000000000e+00,-6.999999999999999387e-05,4.000000000000000000e+00,1.900000000000000000e+01
3.820000000000000000e+04,-8.000000000000000654e-05,-8.000000000000000654e-05,4.000000000000000327e-05,2.500000000000000052e-04,-3.299999999999999982e-04,-2.999999999999999737e-05,0.000000000000000000e+00,-6.999999999999999387e-05,4.000000000000000000e+00,1.900000000000000000e+01
3.820100000000000000e+04,-8.000000000000000654e-05,-8.000000000000000654e-05,4.000000000000000327e-05,2.500000000000000052e-04,-3.299999999999999982e-04,-2.999999999999999737e-05,0.000000000000000000e+00,-6.999999999999999387e-05,4.000000000000000000e+00,1.900000000000000000e+01
3.820200000000000000e+04,-8.000000000000000654e-05,-8.000000000000000654e-05,4.000000000000000327e-05,2.500000000000000052e-04,-3.299999999999999982e-04,-2.999999999999999737e-05,0.000000000000000000e+00,-6.999999999999999387e-05,4.000000000000000000e+00,1.900000000000000000e+01
3.820300000000000000e+04,-8.000000000000000654e-05,-8.000000000000000654e-05,4.000000000000000327e-05,2.500000000000000052e-04,-3.299999999999999982e-04,-2.999999999999999737e-05,0.000000000000000000e+00,-6.999999999999999387e-05,4.000000000000000000e+00,1.900000000000000000e+01
3.820400000000000000e+04,-8.000000000000000654e-05,-8.000000000000000654e-05,4.000000000000000327e-05,2.500000000000000052e-04,-3.299999999999999982e-04,-2.999999999999999737e-05,0.000000000000000000e+00,-6.999999999999999387e-05,4.000000000000000000e+00,1.900000000000000000e+01
3.820500000000000000e+04,-8.000000000000000654e-05,-8.000000000000000654e-05,4.000000000000000327e-05,2.500000000000000052e-04,-3.299999999999999982e-04,-2.999999999999999737e-05,0.000000000000000000e+00,-6.999999999999999387e-05,4.000000000000000000e+00,1.900000000000000000e+01
3.820600000000000000e+04,-8.000000000000000654e-05,-8.000000000000000654e-05,4.000000000000000327e-05,2.500000000000000052e-04,-3.299999999999999982e-04,-2.999999999999999737e-05,0.000000000000000000e+00,-6.999999999999999387e-05,4.000000000000000000e+00,1.900000000000000000e+01
3.820700000000000000e+04,2.200000000000000078e-04,3.200000000000000262e-04,3.899999999999999929e-04,9.000000000000000567e-05,-5.400000000000000069e-04,1.000000000000000082e-05,1.300000000000000157e-04,2.000000000000000096e-04,4.000000000000000000e+00,1.900000000000000000e+01
3.820800000000000000e+04,-1.000000000000000048e-04,-1.399999999999999877e-04,-3.399999999999999702e-04,-1.059999999999999961e-03,-4.000000000000000192e-04,-2.999999999999999737e-05,-1.100000000000000039e-04,-6.999999999999999387e-05,4.000000000000000000e+00,1.900000000000000000e+01
3.820900000000000000e+04,-1.000000000000000082e-05,-2.000000000000000164e-05,1.499999999999999869e-04,6.700000000000000226e-04,3.099999999999999999e-04,8.000000000000000654e-05,-1.199999999999999895e-04,-5.999999999999999474e-05,4.000000000000000000e+00,1.900000000000000000e+01
3.821000000000000000e+04,-1.000000000000000082e-05,-2.000000000000000164e-05,1.499999999999999869e-04,6.700000000000000226e-04,3.099999999999999999e-04,8.000000000000000654e-05,-1.199999999999999895e-04,-5.999999999999999474e-05,4.000000000000000000e+00,1.900000000000000000e+01
3.821100000000000000e+04,-1.000000000000000082e-05,-2.000000000000000164e-05,1.499999999999999869e-04,6.700000000000000226e-04,3.099999999999999999e-04,8.000000000000000654e-05,-1.199999999999999895e-04,-5.999999999999999474e-05,4.000000000000000000e+00,1.900000000000000000e+01
3.821200000000000000e+04,-1.000000000000000082e-05,-2.000000000000000164e-05,1.499999999999999869e-04,6.700000000000000226e-04,3.099999999999999999e-04,8.000000000000000654e-05,-1.199999999999999895e-04,-5.999999999999999474e-05,4.000000000000000000e+00,1.900000000000000000e+01
3.821300000000000000e+04,-1.000000000000000082e-05,-2.000000000000000164e-05,1.499999999999999869e-04,6.700000000000000226e-04,3.099999999999999999e-04,8.000000000000000654e-05,-1.199999999999999895e-04,-5.999999999999999474e-05,4.000000000000000000e+00,1.900000000000000000e+01
3.821400000000000000e+04,-1.000000000000000082e-05,-2.000000000000000164e-05,1.499999999999999869e-04,6.700000000000000226e-04,3.099999999999999999e-04,8.000000000000000654e-05,-1.199999999999999895e-04,-5.999999999999999474e-05,4.000000000000000000e+00,1.900000000000000000e+01
3.821500000000000000e+04,-1.000000000000000082e-05,-2.000000000000000164e-05,1.499999999999999869e-04,6.700000000000000226e-04,3.099999999999999999e-04,8.000000000000000654e-05,-1.199999999999999895e-04,-5.999999999999999474e-05,4.000000000000000000e+00,1.900000000000000000e+01
3.821600000000000000e+04,-1.000000000000000082e-05,-2.000000000000000164e-05,1.499999999999999869e-04,6.700000000000000226e-04,3.099999999999999999e-04,8.000000000000000654e-05,-1.199999999999999895e-04,-5.999999999999999474e-05,4.000000000000000000e+00,1.900000000000000000e+01
3.821700000000000000e+04,-1.000000000000000082e-05,-2.000000000000000164e-05,1.499999999999999869e-04,6.700000000000000226e-04,3.099999999999999999e-04,8.000000000000000654e-05,-1.199999999999999895e-04,-5.999999999999999474e-05,4.000000000000000000e+00,1.900000000000000000e+01
3.821800000000000000e+04,-1.000000000000000082e-05,-2.000000000000000164e-05,1.499999999999999869e-04,6.700000000000000226e-04,3.099999999999999999e-04,8.000000000000000654e-05,-1.199999999999999895e-04,-5.999999999999999474e-05,4.000000000000000000e+00,1.900000000000000000e+01
3.821900000000000000e+04,-1.000000000000000082e-05,-2.000000000000000164e-05,1.499999999999999869e-04,6.700000000000000226e-04,3.099999999999999999e-04,8.000000000000000654e-05,-1.199999999999999895e-04,-5.999999999999999474e-05,4.000000000000000000e+00,1.900000000000000000e+01
3.822000000000000000e+04,-1.000000000000000082e-05,-2.000000000000000164e-05,1.499999999999999869e-04,6.700000000000000226e-04,3.099999999999999999e-04,8.000000000000000654e-05,-1.199999999999999895e-04,-5.999999999999999474e-05,4.000000000000000000e+00,1.900000000000000000e+01
3.822100000000000000e+04,-1.000000000000000082e-05,-2.000000000000000164e-05,1.499999999999999869e-04,6.700000000000000226e-04,3.099999999999999999e-04,8.000000000000000654e-05,-1.199999999999999895e-04,-5.999999999999999474e-05,4.000000000000000000e+00,1.900000000000000000e+01
3.822200000000000000e+04,-1.000000000000000082e-05,-2.000000000000000164e-05,1.499999999999999869e-04,6.700000000000000226e-04,3.099999999999999999e-04,8.000000000000000654e-05,-1.199999999999999895e-04,-5.999999999999999474e-05,4.000000000000000000e+00,1.900000000000000000e+01
3.822300000000000000e+04,-1.000000000000000082e-05,-2.000000000000000164e-05,1.499999999999999869e-04,6.700000000000000226e-04,3.099999999999999999e-04,8.000000000000000654e-05,-1.199999999999999895e-04,-5.999999999999999474e-05,4.000000000000000000e+00,1.900000000000000000e+01
3.822400000000000000e+04,-1.000000000000000082e-05,-2.000000000000000164e-05,1.499999999999999869e-04,6.700000000000000226e-04,3.099999999999999999e-04,8.000000000000000654e-05,-1.199999999999999895e-04,-5.999999999999999474e-05,4.000000000000000000e+00,1.900000000000000000e+01
3.822500000000000000e+04,-1.000000000000000082e-05,-2.000000000000000164e-05,1.499999999999999869e-04,6.700000000000000226e-04,3.099999999999999999e-04,8.000000000000000654e-05,-1.199999999999999895e-04,-5.999999999999999474e-05,4.000000000000000000e+00,1.900000000000000000e+01
3.822600000000000000e+04,-1.000000000000000082e-05,-2.000000000000000164e-05,1.499999999999999869e-04,6.700000000000000226e-04,3.099999999999999999e-04,8.000000000000000654e-05,-1.199999999999999895e-04,-5.999999999999999474e-05,4.000000000000000000e+00,1.900000000000000000e+01
3.822700000000000000e+04,-1.000000000000000082e-05,-2.000000000000000164e-05,1.499999999999999869e-04,6.700000000000000226e-04,3.099999999999999999e-04,8.000000000000000654e-05,-1.199999999999999895e-04,-5.999999999999999474e-05,4.000000000000000000e+00,1.900000000000000000e+01
3.822800000000000000e+04,-1.000000000000000082e-05,-2.000000000000000164e-05,1.499999999999999869e-04,6.700000000000000226e-04,3.099999999999999999e-04,8.000000000000000654e-05,-1.199999999999999895e-04,-5.999999999999999474e-05,4.000000000000000000e+00,1.900000000000000000e+01
3.822900000000000000e+04,-1.000000000000000082e-05,-2.000000000000000164e-05,1.499999999999999869e-04,6.700000000000000226e-04,3.099999999999999999e-04,8.000000000000000654e-05,-1.199999999999999895e-04,-5.999999999999999474e-05,4.000000000000000000e+00,1.900000000000000000e+01
3.823000000000000000e+04,2.999999999999999737e-05,2.000000000000000164e-05,-4.000000000000000327e-05,-2.700000000000000035e-04,-4.099999999999999912e-04,5.999999999999999474e-05,1.000000000000000082e-05,1.000000000000000082e-05,4.000000000000000000e+00,1.900000000000000000e+01
3.823100000000000000e+04,2.999999999999999737e-05,2.000000000000000164e-05,-4.000000000000000327e-05,-2.700000000000000035e-04,-4.099999999999999912e-04,5.999999999999999474e-05,1.000000000000000082e-05,1.000000000000000082e-05,4.000000000000000000e+00,1.900000000000000000e+01
3.823200000000000000e+04,2.999999999999999737e-05,2.000000000000000164e-05,-4.000000000000000327e-05,-2.700000000000000035e-04,-4.099999999999999912e-04,5.999999999999999474e-05,1.000000000000000082e-05,1.000000000000000082e-05,4.000000000000000000e+00,1.900000000000000000e+01
3.823300000000000000e+04,2.999999999999999737e-05,2.000000000000000164e-05,-4.000000000000000327e-05,-2.700000000000000035e-04,-4.099999999999999912e-04,5.999999999999999474e-05,1.000000000000000082e-05,1.000000000000000082e-05,4.000000000000000000e+00,1.900000000000000000e+01
3.823400000000000000e+04,2.999999999999999737e-05,2.000000000000000164e-05,-4.000000000000000327e-05,-2.700000000000000035e-04,-4.099999999999999912e-04,5.999999999999999474e-05,1.000000000000000082e-05,1.000000000000000082e-05,4.000000000000000000e+00,1.900000000000000000e+01
3.823500000000000000e+04,2.999999999999999737e-05,2.000000000000000164e-05,-4.000000000000000327e-05,-2.700000000000000035e-04,-4.099999999999999912e-04,5.999999999999999474e-05,1.000000000000000082e-05,1.000000000000000082e-05,4.000000000000000000e+00,1.900000000000000000e+01
3.823600000000000000e+04,2.999999999999999737e-05,2.000000000000000164e-05,-4.000000000000000327e-05,-2.700000000000000035e-04,-4.099999999999999912e-04,5.999999999999999474e-05,1.000000000000000082e-05,1.000000000000000082e-05,4.000000000000000000e+00,1.900000000000000000e+01
3.823800000000000000e+04,2.999999999999999737e-05,2.000000000000000164e-05,-4.000000000000000327e-05,-2.700000000000000035e-04,-4.099999999999999912e-04,5.999999999999999474e-05,1.000000000000000082e-05,1.000000000000000082e-05,4.000000000000000000e+00,1.900000000000000000e+01
3.823900000000000000e+04,6.999999999999999387e-05,1.199999999999999895e-04,0.000000000000000000e+00,-3.600000000000000227e-04,1.000000000000000048e-04,1.300000000000000157e-04,8.000000000000000654e-05,5.999999999999999474e-05,4.000000000000000000e+00,1.900000000000000000e+01
3.824000000000000000e+04,6.999999999999999387e-05,1.199999999999999895e-04,0.000000000000000000e+00,-3.600000000000000227e-04,1.000000000000000048e-04,1.300000000000000157e-04,8.000000000000000654e-05,5.999999999999999474e-05,4.000000000000000000e+00,1.900000000000000000e+01
3.824100000000000000e+04,6.999999999999999387e-05,1.199999999999999895e-04,0.000000000000000000e+00,-3.600000000000000227e-04,1.000000000000000048e-04,1.300000000000000157e-04,8.000000000000000654e-05,5.999999999999999474e-05,4.000000000000000000e+00,1.900000000000000000e+01
3.824200000000000000e+04,6.999999999999999387e-05,1.199999999999999895e-04,0.000000000000000000e+00,-3.600000000000000227e-04,1.000000000000000048e-04,1.300000000000000157e-04,8.000000000000000654e-05,5.999999999999999474e-05,4.000000000000000000e+00,1.900000000000000000e+01
3.824300000000000000e+04,6.999999999999999387e-05,1.199999999999999895e-04,0.000000000000000000e+00,-3.600000000000000227e-04,1.000000000000000048e-04,1.300000000000000157e-04,8.000000000000000654e-05,5.999999999999999474e-05,4.000000000000000000e+00,1.900000000000000000e+01
3.824400000000000000e+04,6.999999999999999387e-05,1.199999999999999895e-04,0.000000000000000000e+00,-3.600000000000000227e-04,1.000000000000000048e-04,1.300000000000000157e-04,8.000000000000000654e-05,5.999999999999999474e-05,4.000000000000000000e+00,1.900000000000000000e+01
3.824500000000000000e+04,6.999999999999999387e-05,1.000000000000000048e-04,1.199999999999999895e-04,-5.000000000000000240e-05,1.000000000000000082e-05,-6.999999999999999387e-05,1.300000000000000157e-04,1.100000000000000039e-04,4.000000000000000000e+00,1.900000000000000000e+01
3.824600000000000000e+04,6.999999999999999387e-05,1.000000000000000048e-04,1.199999999999999895e-04,-5.000000000000000240e-05,1.000000000000000082e-05,-6.999999999999999387e-05,1.300000000000000157e-04,1.100000000000000039e-04,4.000000000000000000e+00,1.900000000000000000e+01
3.824700000000000000e+04,-2.000000000000000164e-05,2.999999999999999737e-05,2.700000000000000035e-04,-4.000000000000000327e-05,-5.999999999999999474e-05,-1.600000000000000131e-04,-2.000000000000000164e-05,-2.000000000000000164e-05,4.000000000000000000e+00,1.900000000000000000e+01
3.824800000000000000e+04,-2.000000000000000164e-05,2.999999999999999737e-05,2.700000000000000035e-04,-4.000000000000000327e-05,-5.999999999999999474e-05,-1.600000000000000131e-04,-2.000000000000000164e-05,-2.000000000000000164e-05,4.000000000000000000e+00,1.900000000000000000e+01
3.824900000000000000e+04,-2.000000000000000164e-05,2.999999999999999737e-05,2.700000000000000035e-04,-4.000000000000000327e-05,-5.999999999999999474e-05,-1.600000000000000131e-04,-2.000000000000000164e-05,-2.000000000000000164e-05,4.000000000000000000e+00,1.900000000000000000e+01
3.825000000000000000e+04,-2.000000000000000164e-05,2.999999999999999737e-05,2.700000000000000035e-04,-4.000000000000000327e-05,-5.999999999999999474e-05,-1.600000000000000131e-04,-2.000000000000000164e-05,-2.000000000000000164e-05,4.000000000000000000e+00,1.900000000000000000e+01
3.825100000000000000e+04,-2.000000000000000164e-05,2.999999999999999737e-05,2.700000000000000035e-04,-4.000000000000000327e-05,-5.999999999999999474e-05,-1.600000000000000131e-04,-2.000000000000000164e-05,-2.000000000000000164e-05,4.000000000000000000e+00,1.900000000000000000e+01
3.825200000000000000e+04,-2.000000000000000164e-05,2.999999999999999737e-05,2.700000000000000035e-04,-4.000000000000000327e-05,-5.999999999999999474e-05,-1.600000000000000131e-04,-2.000000000000000164e-05,-2.000000000000000164e-05,4.000000000000000000e+00,1.900000000000000000e+01
3.825300000000000000e+04,-2.000000000000000164e-05,2.999999999999999737e-05,2.700000000000000035e-04,-4.000000000000000327e-05,-5.999999999999999474e-05,-1.600000000000000131e-04,-2.000000000000000164e-05,-2.000000000000000164e-05,4.000000000000000000e+00,1.900000000000000000e+01
3.825400000000000000e+04,-2.000000000000000164e-05,2.999999999999999737e-05,2.700000000000000035e-04,-4.000000000000000327e-05,-5.999999999999999474e-05,-1.600000000000000131e-04,-2.000000000000000164e-05,-2.000000000000000164e-05,4.000000000000000000e+00,1.900000000000000000e+01
3.825500000000000000e+04,-2.000000000000000164e-05,2.999999999999999737e-05,2.700000000000000035e-04,-4.000000000000000327e-05,-5.999999999999999474e-05,-1.600000000000000131e-04,-2.000000000000000164e-05,-2.000000000000000164e-05,4.000000000000000000e+00,1.900000000000000000e+01
3.825600000000000000e+04,-2.000000000000000164e-05,2.999999999999999737e-05,2.700000000000000035e-04,-4.000000000000000327e-05,-5.999999999999999474e-05,-1.600000000000000131e-04,-2.000000000000000164e-05,-2.000000000000000164e-05,4.000000000000000000e+00,1.900000000000000000e+01
3.825700000000000000e+04,-2.000000000000000164e-05,2.999999999999999737e-05,2.700000000000000035e-04,-4.000000000000000327e-05,-5.999999999999999474e-05,-1.600000000000000131e-04,-2.000000000000000164e-05,-2.000000000000000164e-05,4.000000000000000000e+00,1.900000000000000000e+01
3.825800000000000000e+04,-2.000000000000000164e-05,2.999999999999999737e-05,2.700000000000000035e-04,-4.000000000000000327e-05,-5.999999999999999474e-05,-1.600000000000000131e-04,-2.000000000000000164e-05,-2.000000000000000164e-05,4.000000000000000000e+00,1.900000000000000000e+01
3.825900000000000000e+04,-2.000000000000000164e-05,2.999999999999999737e-05,2.700000000000000035e-04,-4.000000000000000327e-05,-5.999999999999999474e-05,-1.600000000000000131e-04,-2.000000000000000164e-05,-2.000000000000000164e-05,4.000000000000000000e+00,1.900000000000000000e+01
3.826000000000000000e+04,-2.000000000000000164e-05,2.999999999999999737e-05,2.700000000000000035e-04,-4.000000000000000327e-05,-5.999999999999999474e-05,-1.600000000000000131e-04,-2.000000000000000164e-05,-2.000000000000000164e-05,4.000000000000000000e+00,1.900000000000000000e+01
3.826100000000000000e+04,-2.000000000000000164e-05,2.999999999999999737e-05,2.700000000000000035e-04,-4.000000000000000327e-05,-5.999999999999999474e-05,-1.600000000000000131e-04,-2.000000000000000164e-05,-2.000000000000000164e-05,4.000000000000000000e+00,1.900000000000000000e+01
3.826200000000000000e+04,-2.000000000000000164e-05,2.999999999999999737e-05,2.700000000000000035e-04,-4.000000000000000327e-05,-5.999999999999999474e-05,-1.600000000000000131e-04,-2.000000000000000164e-05,-2.000000000000000164e-05,4.000000000000000000e+00,1.900000000000000000e+01
3.826300000000000000e+04,-2.000000000000000164e-05,2.999999999999999737e-05,2.700000000000000035e-04,-4.000000000000000327e-05,-5.999999999999999474e-05,-1.600000000000000131e-04,-2.000000000000000164e-05,-2.000000000000000164e-05,4.000000000000000000e+00,1.900000000000000000e+01
3.826400000000000000e+04,-2.000000000000000164e-05,2.999999999999999737e-05,2.700000000000000035e-04,-4.000000000000000327e-05,-5.999999999999999474e-05,-1.600000000000000131e-04,-2.000000000000000164e-05,-2.000000000000000164e-05,4.000000000000000000e+00,1.900000000000000000e+01
3.826500000000000000e+04,-2.000000000000000164e-05,2.999999999999999737e-05,2.700000000000000035e-04,-4.000000000000000327e-05,-5.999999999999999474e-05,-1.600000000000000131e-04,-2.000000000000000164e-05,-2.000000000000000164e-05,4.000000000000000000e+00,1.900000000000000000e+01
3.826600000000000000e+04,-2.000000000000000164e-05,2.999999999999999737e-05,2.700000000000000035e-04,-4.000000000000000327e-05,-5.999999999999999474e-05,-1.600000000000000131e-04,-2.000000000000000164e-05,-2.000000000000000164e-05,4.000000000000000000e+00,1.900000000000000000e+01
3.826800000000000000e+04,-2.000000000000000164e-05,2.999999999999999737e-05,2.700000000000000035e-04,-4.000000000000000327e-05,-5.999999999999999474e-05,-1.600000000000000131e-04,-2.000000000000000164e-05,-2.000000000000000164e-05,4.000000000000000000e+00,1.900000000000000000e+01
3.826900000000000000e+04,-6.999999999999999387e-05,-5.999999999999999474e-05,0.000000000000000000e+00,4.499999999999999877e-04,1.399999999999999877e-04,-1.000000000000000082e-05,-4.000000000000000327e-05,-6.999999999999999387e-05,4.000000000000000000e+00,1.900000000000000000e+01
3.827000000000000000e+04,5.999999999999999474e-05,3.399999999999999702e-04,4.000000000000000327e-05,-1.199999999999999895e-04,1.600000000000000131e-04,-4.000000000000000327e-05,-2.000000000000000164e-05,2.999999999999999737e-05,4.000000000000000000e+00,1.900000000000000000e+01
3.827100000000000000e+04,5.999999999999999474e-05,3.399999999999999702e-04,4.000000000000000327e-05,-1.199999999999999895e-04,1.600000000000000131e-04,-4.000000000000000327e-05,-2.000000000000000164e-05,2.999999999999999737e-05,4.000000000000000000e+00,1.900000000000000000e+01
3.827200000000000000e+04,5.999999999999999474e-05,3.399999999999999702e-04,4.000000000000000327e-05,-1.199999999999999895e-04,1.600000000000000131e-04,-4.000000000000000327e-05,-2.000000000000000164e-05,2.999999999999999737e-05,4.000000000000000000e+00,1.900000000000000000e+01
3.827300000000000000e+04,5.999999999999999474e-05,3.399999999999999702e-04,4.000000000000000327e-05,-1.199999999999999895e-04,1.600000000000000131e-04,-4.000000000000000327e-05,-2.000000000000000164e-05,2.999999999999999737e-05,4.000000000000000000e+00,1.900000000000000000e+01
3.827400000000000000e+04,5.999999999999999474e-05,3.399999999999999702e-04,4.000000000000000327e-05,-1.199999999999999895e-04,1.600000000000000131e-04,-4.000000000000000327e-05,-2.000000000000000164e-05,2.999999999999999737e-05,4.000000000000000000e+00,1.900000000000000000e+01
3.827500000000000000e+04,5.999999999999999474e-05,3.399999999999999702e-04,4.000000000000000327e-05,-1.199999999999999895e-04,1.600000000000000131e-04,-4.000000000000000327e-05,-2.000000000000000164e-05,2.999999999999999737e-05,4.000000000000000000e+00,1.900000000000000000e+01
3.827600000000000000e+04,5.999999999999999474e-05,3.399999999999999702e-04,4.000000000000000327e-05,-1.199999999999999895e-04,1.600000000000000131e-04,-4.000000000000000327e-05,-2.000000000000000164e-05,2.999999999999999737e-05,4.000000000000000000e+00,1.900000000000000000e+01
3.827700000000000000e+04,5.999999999999999474e-05,3.399999999999999702e-04,4.000000000000000327e-05,-1.199999999999999895e-04,1.600000000000000131e-04,-4.000000000000000327e-05,-2.000000000000000164e-05,2.999999999999999737e-05,4.000000000000000000e+00,1.900000000000000000e+01
3.827800000000000000e+04,5.999999999999999474e-05,3.399999999999999702e-04,4.000000000000000327e-05,-1.199999999999999895e-04,1.600000000000000131e-04,-4.000000000000000327e-05,-2.000000000000000164e-05,2.999999999999999737e-05,4.000000000000000000e+00,1.900000000000000000e+01
3.827900000000000000e+04,5.999999999999999474e-05,3.399999999999999702e-04,4.000000000000000327e-05,-1.199999999999999895e-04,1.600000000000000131e-04,-4.000000000000000327e-05,-2.000000000000000164e-05,2.999999999999999737e-05,4.000000000000000000e+00,1.900000000000000000e+01
3.828000000000000000e+04,5.999999999999999474e-05,3.399999999999999702e-04,4.000000000000000327e-05,-1.199999999999999895e-04,1.600000000000000131e-04,-4.000000000000000327e-05,-2.000000000000000164e-05,2.999999999999999737e-05,4.000000000000000000e+00,1.900000000000000000e+01
3.828100000000000000e+04,5.999999999999999474e-05,3.399999999999999702e-04,4.000000000000000327e-05,-1.199999999999999895e-04,1.600000000000000131e-04,-4.000000000000000327e-05,-2.000000000000000164e-05,2.999999999999999737e-05,4.000000000000000000e+00,1.900000000000000000e+01
3.828200000000000000e+04,5.999999999999999474e-05,3.399999999999999702e-04,4.000000000000000327e-05,-1.199999999999999895e-04,1.600000000000000131e-04,-4.000000000000000327e-05,-2.000000000000000164e-05,2.999999999999999737e-05,4.000000000000000000e+00,1.900000000000000000e+01
3.828300000000000000e+04,5.999999999999999474e-05,3.399999999999999702e-04,4.000000000000000327e-05,-1.199999999999999895e-04,1.600000000000000131e-04,-4.000000000000000327e-05,-2.000000000000000164e-05,2.999999999999999737e-05,4.000000000000000000e+00,1.900000000000000000e+01
3.828400000000000000e+04,5.999999999999999474e-05,3.399999999999999702e-04,4.000000000000000327e-05,-1.199999999999999895e-04,1.600000000000000131e-04,-4.000000000000000327e-05,-2.000000000000000164e-05,2.999999999999999737e-05,4.000000000000000000e+00,1.900000000000000000e+01
3.828500000000000000e+04,5.999999999999999474e-05,3.399999999999999702e-04,4.000000000000000327e-05,-1.199999999999999895e-04,1.600000000000000131e-04,-4.000000000000000327e-05,-2.000000000000000164e-05,2.999999999999999737e-05,4.000000000000000000e+00,1.900000000000000000e+01
3.828600000000000000e+04,5.999999999999999474e-05,3.399999999999999702e-04,4.000000000000000327e-05,-1.199999999999999895e-04,1.600000000000000131e-04,-4.000000000000000327e-05,-2.000000000000000164e-05,2.999999999999999737e-05,4.000000000000000000e+00,1.900000000000000000e+01
3.828800000000000000e+04,5.999999999999999474e-05,3.399999999999999702e-04,4.000000000000000327e-05,-1.199999999999999895e-04,1.600000000000000131e-04,-4.000000000000000327e-05,-2.000000000000000164e-05,2.999999999999999737e-05,4.000000000000000000e+00,1.900000000000000000e+01
3.828900000000000000e+04,5.999999999999999474e-05,3.399999999999999702e-04,4.000000000000000327e-05,-1.199999999999999895e-04,1.600000000000000131e-04,-4.000000000000000327e-05,-2.000000000000000164e-05,2.999999999999999737e-05,4.000000000000000000e+00,1.900000000000000000e+01
3.829000000000000000e+04,-2.999999999999999737e-05,6.999999999999999387e-05,2.000000000000000164e-05,1.000000000000000082e-05,-3.600000000000000227e-04,9.000000000000000567e-05,4.000000000000000327e-05,-2.000000000000000164e-05,4.000000000000000000e+00,1.900000000000000000e+01
3.829100000000000000e+04,-2.999999999999999737e-05,6.999999999999999387e-05,2.000000000000000164e-05,1.000000000000000082e-05,-3.600000000000000227e-04,9.000000000000000567e-05,4.000000000000000327e-05,-2.000000000000000164e-05,4.000000000000000000e+00,1.900000000000000000e+01
3.829200000000000000e+04,-2.999999999999999737e-05,6.999999999999999387e-05,2.000000000000000164e-05,1.000000000000000082e-05,-3.600000000000000227e-04,9.000000000000000567e-05,4.000000000000000327e-05,-2.000000000000000164e-05,4.000000000000000000e+00,1.900000000000000000e+01
3.829300000000000000e+04,-2.999999999999999737e-05,6.999999999999999387e-05,2.000000000000000164e-05,1.000000000000000082e-05,-3.600000000000000227e-04,9.000000000000000567e-05,4.000000000000000327e-05,-2.000000000000000164e-05,4.000000000000000000e+00,1.900000000000000000e+01
3.829400000000000000e+04,-2.999999999999999737e-05,6.999999999999999387e-05,2.000000000000000164e-05,1.000000000000000082e-05,-3.600000000000000227e-04,9.000000000000000567e-05,4.000000000000000327e-05,-2.000000000000000164e-05,4.000000000000000000e+00,1.900000000000000000e+01
3.829500000000000000e+04,-2.999999999999999737e-05,6.999999999999999387e-05,2.000000000000000164e-05,1.000000000000000082e-05,-3.600000000000000227e-04,9.000000000000000567e-05,4.000000000000000327e-05,-2.000000000000000164e-05,4.000000000000000000e+00,1.900000000000000000e+01
3.829600000000000000e+04,-2.999999999999999737e-05,6.999999999999999387e-05,2.000000000000000164e-05,1.000000000000000082e-05,-3.600000000000000227e-04,9.000000000000000567e-05,4.000000000000000327e-05,-2.000000000000000164e-05,4.000000000000000000e+00,1.900000000000000000e+01
3.829700000000000000e+04,-5.000000000000000240e-05,-8.000000000000000654e-05,1.000000000000000082e-05,1.269999999999999862e-03,8.000000000000000383e-04,1.000000000000000082e-05,-2.999999999999999737e-05,-2.999999999999999737e-05,4.000000000000000000e+00,1.900000000000000000e+01
3.829800000000000000e+04,-1.199999999999999895e-04,-1.699999999999999851e-04,-2.000000000000000164e-05,6.799999999999999404e-04,4.200000000000000174e-04,1.199999999999999895e-04,-1.000000000000000082e-05,-8.000000000000000654e-05,4.000000000000000000e+00,1.900000000000000000e+01
3.829900000000000000e+04,-1.199999999999999895e-04,-1.699999999999999851e-04,-2.000000000000000164e-05,6.799999999999999404e-04,4.200000000000000174e-04,1.199999999999999895e-04,-1.000000000000000082e-05,-8.000000000000000654e-05,4.000000000000000000e+00,1.900000000000000000e+01
3.830000000000000000e+04,-1.199999999999999895e-04,-1.699999999999999851e-04,-2.000000000000000164e-05,6.799999999999999404e-04,4.200000000000000174e-04,1.199999999999999895e-04,-1.000000000000000082e-05,-8.000000000000000654e-05,4.000000000000000000e+00,1.900000000000000000e+01
3.830100000000000000e+04,-1.199999999999999895e-04,-1.699999999999999851e-04,-2.000000000000000164e-05,6.799999999999999404e-04,4.200000000000000174e-04,1.199999999999999895e-04,-1.000000000000000082e-05,-8.000000000000000654e-05,4.000000000000000000e+00,1.900000000000000000e+01
3.830200000000000000e+04,-1.199999999999999895e-04,-1.699999999999999851e-04,-2.000000000000000164e-05,6.799999999999999404e-04,4.200000000000000174e-04,1.199999999999999895e-04,-1.000000000000000082e-05,-8.000000000000000654e-05,4.000000000000000000e+00,1.900000000000000000e+01
3.830300000000000000e+04,-1.199999999999999895e-04,-1.699999999999999851e-04,-2.000000000000000164e-05,6.799999999999999404e-04,4.200000000000000174e-04,1.199999999999999895e-04,-1.000000000000000082e-05,-8.000000000000000654e-05,4.000000000000000000e+00,1.900000000000000000e+01
3.830400000000000000e+04,-1.199999999999999895e-04,-2.700000000000000035e-04,-3.600000000000000227e-04,-4.299999999999999894e-04,-5.599999999999999509e-04,-2.900000000000000017e-04,1.300000000000000157e-04,-8.000000000000000654e-05,4.000000000000000000e+00,1.900000000000000000e+01
3.830500000000000000e+04,-1.199999999999999895e-04,-2.700000000000000035e-04,-3.600000000000000227e-04,-4.299999999999999894e-04,-5.599999999999999509e-04,-2.900000000000000017e-04,1.300000000000000157e-04,-8.000000000000000654e-05,4.000000000000000000e+00,1.900000000000000000e+01
3.830600000000000000e+04,-1.199999999999999895e-04,-2.700000000000000035e-04,-3.600000000000000227e-04,-4.299999999999999894e-04,-5.599999999999999509e-04,-2.900000000000000017e-04,1.300000000000000157e-04,-8.000000000000000654e-05,4.000000000000000000e+00,1.900000000000000000e+01
3.830700000000000000e+04,-1.199999999999999895e-04,-2.700000000000000035e-04,-3.600000000000000227e-04,-4.299999999999999894e-04,-5.599999999999999509e-04,-2.900000000000000017e-04,1.300000000000000157e-04,-8.000000000000000654e-05,4.000000000000000000e+00,1.900000000000000000e+01
3.830800000000000000e+04,-1.199999999999999895e-04,-2.700000000000000035e-04,-3.600000000000000227e-04,-4.299999999999999894e-04,-5.599999999999999509e-04,-2.900000000000000017e-04,1.300000000000000157e-04,-8.000000000000000654e-05,4.000000000000000000e+00,1.900000000000000000e+01
3.830900000000000000e+04,-1.199999999999999895e-04,-2.700000000000000035e-04,-3.600000000000000227e-04,-4.299999999999999894e-04,-5.599999999999999509e-04,-2.900000000000000017e-04,1.300000000000000157e-04,-8.000000000000000654e-05,4.000000000000000000e+00,1.900000000000000000e+01
3.831000000000000000e+04,-1.199999999999999895e-04,-2.700000000000000035e-04,-3.600000000000000227e-04,-4.299999999999999894e-04,-5.599999999999999509e-04,-2.900000000000000017e-04,1.300000000000000157e-04,-8.000000000000000654e-05,4.000000000000000000e+00,1.900000000000000000e+01
3.831100000000000000e+04,-1.199999999999999895e-04,-2.700000000000000035e-04,-3.600000000000000227e-04,-4.299999999999999894e-04,-5.599999999999999509e-04,-2.900000000000000017e-04,1.300000000000000157e-04,-8.000000000000000654e-05,4.000000000000000000e+00,1.900000000000000000e+01
3.831200000000000000e+04,-1.199999999999999895e-04,-2.700000000000000035e-04,-3.600000000000000227e-04,-4.299999999999999894e-04,-5.599999999999999509e-04,-2.900000000000000017e-04,1.300000000000000157e-04,-8.000000000000000654e-05,4.000000000000000000e+00,1.900000000000000000e+01
3.831300000000000000e+04,-1.199999999999999895e-04,-2.700000000000000035e-04,-3.600000000000000227e-04,-4.299999999999999894e-04,-5.599999999999999509e-04,-2.900000000000000017e-04,1.300000000000000157e-04,-8.000000000000000654e-05,4.000000000000000000e+00,1.900000000000000000e+01
3.831400000000000000e+04,-1.199999999999999895e-04,-2.700000000000000035e-04,-3.600000000000000227e-04,-4.299999999999999894e-04,-5.599999999999999509e-04,-2.900000000000000017e-04,1.300000000000000157e-04,-8.000000000000000654e-05,4.000000000000000000e+00,1.900000000000000000e+01
3.831500000000000000e+04,-1.199999999999999895e-04,-2.700000000000000035e-04,-3.600000000000000227e-04,-4.299999999999999894e-04,-5.599999999999999509e-04,-2.900000000000000017e-04,1.300000000000000157e-04,-8.000000000000000654e-05,4.000000000000000000e+00,1.900000000000000000e+01
3.831600000000000000e+04,-1.199999999999999895e-04,-2.700000000000000035e-04,-3.600000000000000227e-04,-4.299999999999999894e-04,-5.599999999999999509e-04,-2.900000000000000017e-04,1.300000000000000157e-04,-8.000000000000000654e-05,4.000000000000000000e+00,1.900000000000000000e+01
3.831700000000000000e+04,-1.199999999999999895e-04,-2.700000000000000035e-04,-3.600000000000000227e-04,-4.299999999999999894e-04,-5.599999999999999509e-04,-2.900000000000000017e-04,1.300000000000000157e-04,-8.000000000000000654e-05,4.000000000000000000e+00,1.900000000000000000e+01
3.831800000000000000e+04,-1.199999999999999895e-04,-2.700000000000000035e-04,-3.600000000000000227e-04,-4.299999999999999894e-04,-5.599999999999999509e-04,-2.900000000000000017e-04,1.300000000000000157e-04,-8.000000000000000654e-05,4.000000000000000000e+00,1.900000000000000000e+01
3.831900000000000000e+04,-1.199999999999999895e-04,-2.700000000000000035e-04,-3.600000000000000227e-04,-4.299999999999999894e-04,-5.599999999999999509e-04,-2.900000000000000017e-04,1.300000000000000157e-04,-8.000000000000000654e-05,4.000000000000000000e+00,1.900000000000000000e+01
3.832000000000000000e+04,1.000000000000000082e-05,-2.000000000000000164e-05,-1.800000000000000113e-04,-1.030000000000000100e-03,-8.599999999999999789e-04,-2.399999999999999790e-04,-8.000000000000000654e-05,1.000000000000000082e-05,4.000000000000000000e+00,1.900000000000000000e+01
3.832100000000000000e+04,1.000000000000000082e-05,-2.000000000000000164e-05,-1.800000000000000113e-04,-1.030000000000000100e-03,-8.599999999999999789e-04,-2.399999999999999790e-04,-8.000000000000000654e-05,1.000000000000000082e-05,4.000000000000000000e+00,1.900000000000000000e+01
3.832200000000000000e+04,1.000000000000000082e-05,-1.000000000000000082e-05,2.299999999999999799e-04,9.799999999999999684e-04,1.100000000000000066e-03,1.899999999999999834e-04,1.100000000000000039e-04,1.600000000000000131e-04,4.000000000000000000e+00,1.900000000000000000e+01
3.832300000000000000e+04,1.000000000000000082e-05,-1.000000000000000082e-05,2.299999999999999799e-04,9.799999999999999684e-04,1.100000000000000066e-03,1.899999999999999834e-04,1.100000000000000039e-04,1.600000000000000131e-04,4.000000000000000000e+00,1.900000000000000000e+01
3.832400000000000000e+04,1.000000000000000082e-05,-1.000000000000000082e-05,2.299999999999999799e-04,9.799999999999999684e-04,1.100000000000000066e-03,1.899999999999999834e-04,1.100000000000000039e-04,1.600000000000000131e-04,4.000000000000000000e+00,1.900000000000000000e+01
3.832500000000000000e+04,1.000000000000000082e-05,-1.000000000000000082e-05,2.299999999999999799e-04,9.799999999999999684e-04,1.100000000000000066e-03,1.899999999999999834e-04,1.100000000000000039e-04,1.600000000000000131e-04,4.000000000000000000e+00,1.900000000000000000e+01
3.832600000000000000e+04,1.000000000000000082e-05,-1.000000000000000082e-05,2.299999999999999799e-04,9.799999999999999684e-04,1.100000000000000066e-03,1.899999999999999834e-04,1.100000000000000039e-04,1.600000000000000131e-04,4.000000000000000000e+00,1.900000000000000000e+01
3.832700000000000000e+04,1.000000000000000082e-05,-1.000000000000000082e-05,2.299999999999999799e-04,9.799999999999999684e-04,1.100000000000000066e-03,1.899999999999999834e-04,1.100000000000000039e-04,1.600000000000000131e-04,4.000000000000000000e+00,1.900000000000000000e+01
3.832800000000000000e+04,1.000000000000000082e-05,-1.000000000000000082e-05,2.299999999999999799e-04,9.799999999999999684e-04,1.100000000000000066e-03,1.899999999999999834e-04,1.100000000000000039e-04,1.600000000000000131e-04,4.000000000000000000e+00,1.900000000000000000e+01
3.832900000000000000e+04,1.000000000000000082e-05,-1.000000000000000082e-05,2.299999999999999799e-04,9.799999999999999684e-04,1.100000000000000066e-03,1.899999999999999834e-04,1.100000000000000039e-04,1.600000000000000131e-04,4.000000000000000000e+00,1.900000000000000000e+01
3.833000000000000000e+04,1.000000000000000082e-05,-1.000000000000000082e-05,2.299999999999999799e-04,9.799999999999999684e-04,1.100000000000000066e-03,1.899999999999999834e-04,1.100000000000000039e-04,1.600000000000000131e-04,4.000000000000000000e+00,1.900000000000000000e+01
3.833100000000000000e+04,1.000000000000000082e-05,-1.000000000000000082e-05,2.299999999999999799e-04,9.799999999999999684e-04,1.100000000000000066e-03,1.899999999999999834e-04,1.100000000000000039e-04,1.600000000000000131e-04,4.000000000000000000e+00,1.900000000000000000e+01
3.833200000000000000e+04,1.000000000000000082e-05,-1.000000000000000082e-05,2.299999999999999799e-04,9.799999999999999684e-04,1.100000000000000066e-03,1.899999999999999834e-04,1.100000000000000039e-04,1.600000000000000131e-04,4.000000000000000000e+00,1.900000000000000000e+01
3.833300000000000000e+04,1.000000000000000082e-05,-1.000000000000000082e-05,2.299999999999999799e-04,9.799999999999999684e-04,1.100000000000000066e-03,1.899999999999999834e-04,1.100000000000000039e-04,1.600000000000000131e-04,4.000000000000000000e+00,1.900000000000000000e+01
3.833400000000000000e+04,1.000000000000000082e-05,-1.000000000000000082e-05,2.299999999999999799e-04,9.799999999999999684e-04,1.100000000000000066e-03,1.899999999999999834e-04,1.100000000000000039e-04,1.600000000000000131e-04,4.000000000000000000e+00,1.900000000000000000e+01
3.833500000000000000e+04,1.000000000000000082e-05,-1.000000000000000082e-05,2.299999999999999799e-04,9.799999999999999684e-04,1.100000000000000066e-03,1.899999999999999834e-04,1.100000000000000039e-04,1.600000000000000131e-04,4.000000000000000000e+00,1.900000000000000000e+01
3.833600000000000000e+04,1.000000000000000082e-05,-1.000000000000000082e-05,2.299999999999999799e-04,9.799999999999999684e-04,1.100000000000000066e-03,1.899999999999999834e-04,1.100000000000000039e-04,1.600000000000000131e-04,4.000000000000000000e+00,1.900000000000000000e+01
3.833800000000000000e+04,1.000000000000000082e-05,-1.000000000000000082e-05,2.299999999999999799e-04,9.799999999999999684e-04,1.100000000000000066e-03,1.899999999999999834e-04,1.100000000000000039e-04,1.600000000000000131e-04,4.000000000000000000e+00,1.900000000000000000e+01
3.833900000000000000e+04,1.000000000000000082e-05,-1.000000000000000082e-05,2.299999999999999799e-04,9.799999999999999684e-04,1.100000000000000066e-03,1.899999999999999834e-04,1.100000000000000039e-04,1.600000000000000131e-04,4.000000000000000000e+00,1.900000000000000000e+01
3.834000000000000000e+04,1.000000000000000082e-05,-1.000000000000000082e-05,2.299999999999999799e-04,9.799999999999999684e-04,1.100000000000000066e-03,1.899999999999999834e-04,1.100000000000000039e-04,1.600000000000000131e-04,4.000000000000000000e+00,1.900000000000000000e+01
3.834100000000000000e+04,1.000000000000000082e-05,-1.000000000000000082e-05,2.299999999999999799e-04,9.799999999999999684e-04,1.100000000000000066e-03,1.899999999999999834e-04,1.100000000000000039e-04,1.600000000000000131e-04,4.000000000000000000e+00,1.900000000000000000e+01
3.834200000000000000e+04,1.000000000000000082e-05,-1.000000000000000082e-05,2.299999999999999799e-04,9.799999999999999684e-04,1.100000000000000066e-03,1.899999999999999834e-04,1.100000000000000039e-04,1.600000000000000131e-04,4.000000000000000000e+00,1.900000000000000000e+01
3.834300000000000000e+04,2.999999999999999737e-05,9.000000000000000567e-05,1.499999999999999869e-04,6.599999999999999964e-04,2.799999999999999755e-04,-2.000000000000000164e-05,-4.000000000000000327e-05,-1.000000000000000082e-05,4.000000000000000000e+00,1.900000000000000000e+01
3.834400000000000000e+04,2.999999999999999737e-05,9.000000000000000567e-05,1.499999999999999869e-04,6.599999999999999964e-04,2.799999999999999755e-04,-2.000000000000000164e-05,-4.000000000000000327e-05,-1.000000000000000082e-05,4.000000000000000000e+00,1.900000000000000000e+01
3.834500000000000000e+04,2.999999999999999737e-05,9.000000000000000567e-05,1.499999999999999869e-04,6.599999999999999964e-04,2.799999999999999755e-04,-2.000000000000000164e-05,-4.000000000000000327e-05,-1.000000000000000082e-05,4.000000000000000000e+00,1.900000000000000000e+01
3.834600000000000000e+04,2.999999999999999737e-05,9.000000000000000567e-05,1.499999999999999869e-04,6.599999999999999964e-04,2.799999999999999755e-04,-2.000000000000000164e-05,-4.000000000000000327e-05,-1.000000000000000082e-05,4.000000000000000000e+00,1.900000000000000000e+01
3.834700000000000000e+04,2.999999999999999737e-05,9.000000000000000567e-05,1.499999999999999869e-04,6.599999999999999964e-04,2.799999999999999755e-04,-2.000000000000000164e-05,-4.000000000000000327e-05,-1.000000000000000082e-05,4.000000000000000000e+00,1.900000000000000000e+01
3.834800000000000000e+04,2.999999999999999737e-05,9.000000000000000567e-05,1.499999999999999869e-04,6.599999999999999964e-04,2.799999999999999755e-04,-2.000000000000000164e-05,-4.000000000000000327e-05,-1.000000000000000082e-05,4.000000000000000000e+00,1.900000000000000000e+01
3.834900000000000000e+04,2.999999999999999737e-05,9.000000000000000567e-05,1.499999999999999869e-04,6.599999999999999964e-04,2.799999999999999755e-04,-2.000000000000000164e-05,-4.000000000000000327e-05,-1.000000000000000082e-05,4.000000000000000000e+00,1.900000000000000000e+01
3.835000000000000000e+04,2.999999999999999737e-05,9.000000000000000567e-05,1.499999999999999869e-04,6.599999999999999964e-04,2.799999999999999755e-04,-2.000000000000000164e-05,-4.000000000000000327e-05,-1.000000000000000082e-05,4.000000000000000000e+00,1.900000000000000000e+01
3.835100000000000000e+04,2.999999999999999737e-05,9.000000000000000567e-05,1.499999999999999869e-04,6.599999999999999964e-04,2.799999999999999755e-04,-2.000000000000000164e-05,-4.000000000000000327e-05,-1.000000000000000082e-05,4.000000000000000000e+00,1.900000000000000000e+01
3.835200000000000000e+04,2.999999999999999737e-05,9.000000000000000567e-05,1.499999999999999869e-04,6.599999999999999964e-04,2.799999999999999755e-04,-2.000000000000000164e-05,-4.000000000000000327e-05,-1.000000000000000082e-05,4.000000000000000000e+00,1.900000000000000000e+01
3.835300000000000000e+04,2.999999999999999737e-05,9.000000000000000567e-05,1.499999999999999869e-04,6.599999999999999964e-04,2.799999999999999755e-04,-2.000000000000000164e-05,-4.000000000000000327e-05,-1.000000000000000082e-05,4.000000000000000000e+00,1.900000000000000000e+01
3.835400000000000000e+04,2.999999999999999737e-05,9.000000000000000567e-05,1.499999999999999869e-04,6.599999999999999964e-04,2.799999999999999755e-04,-2.000000000000000164e-05,-4.000000000000000327e-05,-1.000000000000000082e-05,4.000000000000000000e+00,1.900000000000000000e+01
3.835500000000000000e+04,2.999999999999999737e-05,9.000000000000000567e-05,1.499999999999999869e-04,6.599999999999999964e-04,2.799999999999999755e-04,-2.000000000000000164e-05,-4.000000000000000327e-05,-1.000000000000000082e-05,4.000000000000000000e+00,1.900000000000000000e+01
3.835600000000000000e+04,2.999999999999999737e-05,9.000000000000000567e-05,1.499999999999999869e-04,6.599999999999999964e-04,2.799999999999999755e-04,-2.000000000000000164e-05,-4.000000000000000327e-05,-1.000000000000000082e-05,4.000000000000000000e+00,1.900000000000000000e+01
3.835700000000000000e+04,2.999999999999999737e-05,9.000000000000000567e-05,1.499999999999999869e-04,6.599999999999999964e-04,2.799999999999999755e-04,-2.000000000000000164e-05,-4.000000000000000327e-05,-1.000000000000000082e-05,4.000000000000000000e+00,1.900000000000000000e+01
3.835800000000000000e+04,-1.199999999999999895e-04,-1.699999999999999851e-04,-6.999999999999999387e-05,6.999999999999999387e-05,-4.799999999999999580e-04,-2.799999999999999755e-04,-2.000000000000000096e-04,-1.399999999999999877e-04,4.000000000000000000e+00,1.900000000000000000e+01
3.835900000000000000e+04,-1.000000000000000082e-05,2.999999999999999737e-05,-2.000000000000000164e-05,-3.899999999999999929e-04,2.399999999999999790e-04,-2.999999999999999737e-05,1.000000000000000082e-05,5.999999999999999474e-05,4.000000000000000000e+00,1.900000000000000000e+01
3.836000000000000000e+04,-1.000000000000000082e-05,2.999999999999999737e-05,-2.000000000000000164e-05,-3.899999999999999929e-04,2.399999999999999790e-04,-2.999999999999999737e-05,1.000000000000000082e-05,5.999999999999999474e-05,4.000000000000000000e+00,1.900000000000000000e+01
3.836100000000000000e+04,-1.000000000000000082e-05,2.999999999999999737e-05,-2.000000000000000164e-05,-3.899999999999999929e-04,2.399999999999999790e-04,-2.999999999999999737e-05,1.000000000000000082e-05,5.999999999999999474e-05,4.000000000000000000e+00,1.900000000000000000e+01
3.836200000000000000e+04,-1.000000000000000082e-05,2.999999999999999737e-05,-2.000000000000000164e-05,-3.899999999999999929e-04,2.399999999999999790e-04,-2.999999999999999737e-05,1.000000000000000082e-05,5.999999999999999474e-05,4.000000000000000000e+00,1.900000000000000000e+01
3.836300000000000000e+04,-1.000000000000000082e-05,2.999999999999999737e-05,-2.000000000000000164e-05,-3.899999999999999929e-04,2.399999999999999790e-04,-2.999999999999999737e-05,1.000000000000000082e-05,5.999999999999999474e-05,4.000000000000000000e+00,1.900000000000000000e+01
3.836400000000000000e+04,-5.999999999999999474e-05,-1.399999999999999877e-04,-3.299999999999999982e-04,-7.099999999999999107e-04,-2.700000000000000035e-04,-2.000000000000000096e-04,-1.600000000000000131e-04,-6.999999999999999387e-05,4.000000000000000000e+00,1.900000000000000000e+01
3.836500000000000000e+04,-5.999999999999999474e-05,-1.399999999999999877e-04,-3.299999999999999982e-04,-7.099999999999999107e-04,-2.700000000000000035e-04,-2.000000000000000096e-04,-1.600000000000000131e-04,-6.999999999999999387e-05,4.000000000000000000e+00,1.900000000000000000e+01
3.836600000000000000e+04,-5.999999999999999474e-05,-1.399999999999999877e-04,-3.299999999999999982e-04,-7.099999999999999107e-04,-2.700000000000000035e-04,-2.000000000000000096e-04,-1.600000000000000131e-04,-6.999999999999999387e-05,4.000000000000000000e+00,1.900000000000000000e+01
3.836700000000000000e+04,-5.999999999999999474e-05,-1.399999999999999877e-04,-3.299999999999999982e-04,-7.099999999999999107e-04,-2.700000000000000035e-04,-2.000000000000000096e-04,-1.600000000000000131e-04,-6.999999999999999387e-05,4.000000000000000000e+00,1.900000000000000000e+01
3.836800000000000000e+04,-5.999999999999999474e-05,-1.399999999999999877e-04,-3.299999999999999982e-04,-7.099999999999999107e-04,-2.700000000000000035e-04,-2.000000000000000096e-04,-1.600000000000000131e-04,-6.999999999999999387e-05,4.000000000000000000e+00,1.900000000000000000e+01
3.836900000000000000e+04,-5.999999999999999474e-05,-1.399999999999999877e-04,-3.299999999999999982e-04,-7.099999999999999107e-04,-2.700000000000000035e-04,-2.000000000000000096e-04,-1.600000000000000131e-04,-6.999999999999999387e-05,4.000000000000000000e+00,1.900000000000000000e+01
3.837000000000000000e+04,-5.999999999999999474e-05,-1.399999999999999877e-04,-3.299999999999999982e-04,-7.099999999999999107e-04,-2.700000000000000035e-04,-2.000000000000000096e-04,-1.600000000000000131e-04,-6.999999999999999387e-05,4.000000000000000000e+00,1.900000000000000000e+01
3.837100000000000000e+04,-5.999999999999999474e-05,-1.399999999999999877e-04,-3.299999999999999982e-04,-7.099999999999999107e-04,-2.700000000000000035e-04,-2.000000000000000096e-04,-1.600000000000000131e-04,-6.999999999999999387e-05,4.000000000000000000e+00,1.900000000000000000e+01
3.837200000000000000e+04,-5.999999999999999474e-05,-1.399999999999999877e-04,-3.299999999999999982e-04,-7.099999999999999107e-04,-2.700000000000000035e-04,-2.000000000000000096e-04,-1.600000000000000131e-04,-6.999999999999999387e-05,4.000000000000000000e+00,1.900000000000000000e+01
3.837300000000000000e+04,-5.999999999999999474e-05,-1.399999999999999877e-04,-3.299999999999999982e-04,-7.099999999999999107e-04,-2.700000000000000035e-04,-2.000000000000000096e-04,-1.600000000000000131e-04,-6.999999999999999387e-05,4.000000000000000000e+00,1.900000000000000000e+01
3.837400000000000000e+04,-5.999999999999999474e-05,-1.399999999999999877e-04,-3.299999999999999982e-04,-7.099999999999999107e-04,-2.700000000000000035e-04,-2.000000000000000096e-04,-1.600000000000000131e-04,-6.999999999999999387e-05,4.000000000000000000e+00,1.900000000000000000e+01
3.837500000000000000e+04,-5.999999999999999474e-05,-1.399999999999999877e-04,-3.299999999999999982e-04,-7.099999999999999107e-04,-2.700000000000000035e-04,-2.000000000000000096e-04,-1.600000000000000131e-04,-6.999999999999999387e-05,4.000000000000000000e+00,1.900000000000000000e+01
3.837600000000000000e+04,-5.999999999999999474e-05,-1.399999999999999877e-04,-3.299999999999999982e-04,-7.099999999999999107e-04,-2.700000000000000035e-04,-2.000000000000000096e-04,-1.600000000000000131e-04,-6.999999999999999387e-05,4.000000000000000000e+00,1.900000000000000000e+01
3.837700000000000000e+04,-5.999999999999999474e-05,-1.399999999999999877e-04,-3.299999999999999982e-04,-7.099999999999999107e-04,-2.700000000000000035e-04,-2.000000000000000096e-04,-1.600000000000000131e-04,-6.999999999999999387e-05,4.000000000000000000e+00,1.900000000000000000e+01
3.837800000000000000e+04,-5.999999999999999474e-05,-1.399999999999999877e-04,-3.299999999999999982e-04,-7.099999999999999107e-04,-2.700000000000000035e-04,-2.000000000000000096e-04,-1.600000000000000131e-04,-6.999999999999999387e-05,4.000000000000000000e+00,1.900000000000000000e+01
3.837900000000000000e+04,-5.999999999999999474e-05,-1.399999999999999877e-04,-3.299999999999999982e-04,-7.099999999999999107e-04,-2.700000000000000035e-04,-2.000000000000000096e-04,-1.600000000000000131e-04,-6.999999999999999387e-05,4.000000000000000000e+00,1.900000000000000000e+01
3.838000000000000000e+04,-2.999999999999999737e-05,-2.999999999999999737e-05,-2.000000000000000164e-05,-7.700000000000000681e-04,-3.200000000000000262e-04,-1.000000000000000048e-04,-1.199999999999999895e-04,-1.399999999999999877e-04,4.000000000000000000e+00,1.900000000000000000e+01
3.838100000000000000e+04,-2.999999999999999737e-05,-2.999999999999999737e-05,-2.000000000000000164e-05,-7.700000000000000681e-04,-3.200000000000000262e-04,-1.000000000000000048e-04,-1.199999999999999895e-04,-1.399999999999999877e-04,4.000000000000000000e+00,1.900000000000000000e+01
3.838200000000000000e+04,1.000000000000000082e-05,-2.999999999999999737e-05,-9.000000000000000567e-05,-3.399999999999999702e-04,-5.099999999999999282e-04,-2.299999999999999799e-04,-8.000000000000000654e-05,-6.999999999999999387e-05,4.000000000000000000e+00,1.900000000000000000e+01
3.838300000000000000e+04,1.000000000000000082e-05,-2.999999999999999737e-05,-9.000000000000000567e-05,-3.399999999999999702e-04,-5.099999999999999282e-04,-2.299999999999999799e-04,-8.000000000000000654e-05,-6.999999999999999387e-05,4.000000000000000000e+00,1.900000000000000000e+01
3.838500000000000000e+04,1.000000000000000082e-05,-2.999999999999999737e-05,-9.000000000000000567e-05,-3.399999999999999702e-04,-5.099999999999999282e-04,-2.299999999999999799e-04,-8.000000000000000654e-05,-6.999999999999999387e-05,4.000000000000000000e+00,1.900000000000000000e+01
3.838800000000000000e+04,1.000000000000000082e-05,-2.999999999999999737e-05,-9.000000000000000567e-05,-3.399999999999999702e-04,-5.099999999999999282e-04,-2.299999999999999799e-04,-8.000000000000000654e-05,-6.999999999999999387e-05,4.000000000000000000e+00,1.900000000000000000e+01
3.839000000000000000e+04,1.000000000000000082e-05,-2.999999999999999737e-05,-9.000000000000000567e-05,-3.399999999999999702e-04,-5.099999999999999282e-04,-2.299999999999999799e-04,-8.000000000000000654e-05,-6.999999999999999387e-05,4.000000000000000000e+00,1.900000000000000000e+01
3.839100000000000000e+04,1.000000000000000082e-05,-2.999999999999999737e-05,-9.000000000000000567e-05,-3.399999999999999702e-04,-5.099999999999999282e-04,-2.299999999999999799e-04,-8.000000000000000654e-05,-6.999999999999999387e-05,4.000000000000000000e+00,1.900000000000000000e+01
3.839200000000000000e+04,1.000000000000000082e-05,-2.999999999999999737e-05,-9.000000000000000567e-05,-3.399999999999999702e-04,-5.099999999999999282e-04,-2.299999999999999799e-04,-8.000000000000000654e-05,-6.999999999999999387e-05,4.000000000000000000e+00,1.900000000000000000e+01
3.839300000000000000e+04,1.000000000000000082e-05,-2.999999999999999737e-05,-9.000000000000000567e-05,-3.399999999999999702e-04,-5.099999999999999282e-04,-2.299999999999999799e-04,-8.000000000000000654e-05,-6.999999999999999387e-05,4.000000000000000000e+00,1.900000000000000000e+01
3.839400000000000000e+04,1.000000000000000082e-05,-2.999999999999999737e-05,-9.000000000000000567e-05,-3.399999999999999702e-04,-5.099999999999999282e-04,-2.299999999999999799e-04,-8.000000000000000654e-05,-6.999999999999999387e-05,4.000000000000000000e+00,1.900000000000000000e+01
3.839500000000000000e+04,1.000000000000000082e-05,-2.999999999999999737e-05,-9.000000000000000567e-05,-3.399999999999999702e-04,-5.099999999999999282e-04,-2.299999999999999799e-04,-8.000000000000000654e-05,-6.999999999999999387e-05,4.000000000000000000e+00,1.900000000000000000e+01
3.839600000000000000e+04,1.000000000000000082e-05,-2.999999999999999737e-05,-9.000000000000000567e-05,-3.399999999999999702e-04,-5.099999999999999282e-04,-2.299999999999999799e-04,-8.000000000000000654e-05,-6.999999999999999387e-05,4.000000000000000000e+00,1.900000000000000000e+01
3.839700000000000000e+04,1.000000000000000082e-05,-2.999999999999999737e-05,-9.000000000000000567e-05,-3.399999999999999702e-04,-5.099999999999999282e-04,-2.299999999999999799e-04,-8.000000000000000654e-05,-6.999999999999999387e-05,4.000000000000000000e+00,1.900000000000000000e+01
3.839800000000000000e+04,1.000000000000000082e-05,-2.999999999999999737e-05,-9.000000000000000567e-05,-3.399999999999999702e-04,-5.099999999999999282e-04,-2.299999999999999799e-04,-8.000000000000000654e-05,-6.999999999999999387e-05,4.000000000000000000e+00,1.900000000000000000e+01
3.839900000000000000e+04,1.000000000000000082e-05,-2.999999999999999737e-05,-9.000000000000000567e-05,-3.399999999999999702e-04,-5.099999999999999282e-04,-2.299999999999999799e-04,-8.000000000000000654e-05,-6.999999999999999387e-05,4.000000000000000000e+00,1.900000000000000000e+01
3.840000000000000000e+04,1.000000000000000082e-05,-2.999999999999999737e-05,-9.000000000000000567e-05,-3.399999999999999702e-04,-5.099999999999999282e-04,-2.299999999999999799e-04,-8.000000000000000654e-05,-6.999999999999999387e-05,4.000000000000000000e+00,1.900000000000000000e+01
3.840100000000000000e+04,1.000000000000000082e-05,-2.999999999999999737e-05,-9.000000000000000567e-05,-3.399999999999999702e-04,-5.099999999999999282e-04,-2.299999999999999799e-04,-8.000000000000000654e-05,-6.999999999999999387e-05,4.000000000000000000e+00,1.900000000000000000e+01
3.840200000000000000e+04,1.000000000000000082e-05,-2.999999999999999737e-05,-9.000000000000000567e-05,-3.399999999999999702e-04,-5.099999999999999282e-04,-2.299999999999999799e-04,-8.000000000000000654e-05,-6.999999999999999387e-05,4.000000000000000000e+00,1.900000000000000000e+01
3.840300000000000000e+04,4.000000000000000327e-05,2.999999999999999737e-05,1.199999999999999895e-04,-5.699999999999999772e-04,-2.399999999999999790e-04,5.000000000000000240e-05,5.000000000000000240e-05,0.000000000000000000e+00,4.000000000000000000e+00,1.900000000000000000e+01
3.840400000000000000e+04,4.000000000000000327e-05,2.999999999999999737e-05,1.199999999999999895e-04,-5.699999999999999772e-04,-2.399999999999999790e-04,5.000000000000000240e-05,5.000000000000000240e-05,0.000000000000000000e+00,4.000000000000000000e+00,1.900000000000000000e+01
3.840500000000000000e+04,4.000000000000000327e-05,2.999999999999999737e-05,1.199999999999999895e-04,-5.699999999999999772e-04,-2.399999999999999790e-04,5.000000000000000240e-05,5.000000000000000240e-05,0.000000000000000000e+00,4.000000000000000000e+00,1.900000000000000000e+01
3.840600000000000000e+04,4.000000000000000327e-05,2.999999999999999737e-05,1.199999999999999895e-04,-5.699999999999999772e-04,-2.399999999999999790e-04,5.000000000000000240e-05,5.000000000000000240e-05,0.000000000000000000e+00,4.000000000000000000e+00,1.900000000000000000e+01
3.840700000000000000e+04,4.000000000000000327e-05,2.999999999999999737e-05,1.199999999999999895e-04,-5.699999999999999772e-04,-2.399999999999999790e-04,5.000000000000000240e-05,5.000000000000000240e-05,0.000000000000000000e+00,4.000000000000000000e+00,1.900000000000000000e+01
3.840800000000000000e+04,4.000000000000000327e-05,2.999999999999999737e-05,1.199999999999999895e-04,-5.699999999999999772e-04,-2.399999999999999790e-04,5.000000000000000240e-05,5.000000000000000240e-05,0.000000000000000000e+00,4.000000000000000000e+00,1.900000000000000000e+01
3.840900000000000000e+04,5.999999999999999474e-05,2.000000000000000164e-05,1.000000000000000082e-05,4.599999999999999597e-04,4.299999999999999894e-04,2.500000000000000052e-04,1.000000000000000082e-05,4.000000000000000327e-05,4.000000000000000000e+00,1.900000000000000000e+01
3.841000000000000000e+04,5.999999999999999474e-05,2.000000000000000164e-05,1.000000000000000082e-05,4.599999999999999597e-04,4.299999999999999894e-04,2.500000000000000052e-04,1.000000000000000082e-05,4.000000000000000327e-05,4.000000000000000000e+00,1.900000000000000000e+01
3.841100000000000000e+04,5.999999999999999474e-05,2.000000000000000164e-05,1.000000000000000082e-05,4.599999999999999597e-04,4.299999999999999894e-04,2.500000000000000052e-04,1.000000000000000082e-05,4.000000000000000327e-05,4.000000000000000000e+00,1.900000000000000000e+01
3.841200000000000000e+04,5.999999999999999474e-05,2.000000000000000164e-05,1.000000000000000082e-05,4.599999999999999597e-04,4.299999999999999894e-04,2.500000000000000052e-04,1.000000000000000082e-05,4.000000000000000327e-05,4.000000000000000000e+00,1.900000000000000000e+01
3.841300000000000000e+04,5.999999999999999474e-05,2.000000000000000164e-05,1.000000000000000082e-05,4.599999999999999597e-04,4.299999999999999894e-04,2.500000000000000052e-04,1.000000000000000082e-05,4.000000000000000327e-05,4.000000000000000000e+00,1.900000000000000000e+01
3.841400000000000000e+04,5.999999999999999474e-05,2.000000000000000164e-05,1.000000000000000082e-05,4.599999999999999597e-04,4.299999999999999894e-04,2.500000000000000052e-04,1.000000000000000082e-05,4.000000000000000327e-05,4.000000000000000000e+00,1.900000000000000000e+01
3.841500000000000000e+04,5.999999999999999474e-05,2.000000000000000164e-05,1.000000000000000082e-05,4.599999999999999597e-04,4.299999999999999894e-04,2.500000000000000052e-04,1.000000000000000082e-05,4.000000000000000327e-05,4.000000000000000000e+00,1.900000000000000000e+01
3.841600000000000000e+04,5.999999999999999474e-05,2.000000000000000164e-05,1.000000000000000082e-05,4.599999999999999597e-04,4.299999999999999894e-04,2.500000000000000052e-04,1.000000000000000082e-05,4.000000000000000327e-05,4.000000000000000000e+00,1.900000000000000000e+01
3.841700000000000000e+04,-1.000000000000000082e-05,-1.000000000000000082e-05,6.999999999999999387e-05,8.900000000000000576e-04,2.299999999999999799e-04,1.600000000000000131e-04,2.000000000000000164e-05,2.999999999999999737e-05,4.000000000000000000e+00,1.900000000000000000e+01
3.841800000000000000e+04,-1.000000000000000082e-05,-1.000000000000000082e-05,6.999999999999999387e-05,8.900000000000000576e-04,2.299999999999999799e-04,1.600000000000000131e-04,2.000000000000000164e-05,2.999999999999999737e-05,4.000000000000000000e+00,1.900000000000000000e+01
3.841900000000000000e+04,-1.000000000000000082e-05,-1.000000000000000082e-05,6.999999999999999387e-05,8.900000000000000576e-04,2.299999999999999799e-04,1.600000000000000131e-04,2.000000000000000164e-05,2.999999999999999737e-05,4.000000000000000000e+00,1.900000000000000000e+01
3.842000000000000000e+04,-1.000000000000000082e-05,-1.000000000000000082e-05,6.999999999999999387e-05,8.900000000000000576e-04,2.299999999999999799e-04,1.600000000000000131e-04,2.000000000000000164e-05,2.999999999999999737e-05,4.000000000000000000e+00,1.900000000000000000e+01
3.842100000000000000e+04,-1.000000000000000082e-05,-1.000000000000000082e-05,6.999999999999999387e-05,8.900000000000000576e-04,2.299999999999999799e-04,1.600000000000000131e-04,2.000000000000000164e-05,2.999999999999999737e-05,4.000000000000000000e+00,1.900000000000000000e+01
3.842200000000000000e+04,-1.000000000000000082e-05,-1.000000000000000082e-05,6.999999999999999387e-05,8.900000000000000576e-04,2.299999999999999799e-04,1.600000000000000131e-04,2.000000000000000164e-05,2.999999999999999737e-05,4.000000000000000000e+00,1.900000000000000000e+01
3.842300000000000000e+04,-1.000000000000000082e-05,-1.000000000000000082e-05,6.999999999999999387e-05,8.900000000000000576e-04,2.299999999999999799e-04,1.600000000000000131e-04,2.000000000000000164e-05,2.999999999999999737e-05,4.000000000000000000e+00,1.900000000000000000e+01
3.842400000000000000e+04,-1.000000000000000082e-05,-1.000000000000000082e-05,6.999999999999999387e-05,8.900000000000000576e-04,2.299999999999999799e-04,1.600000000000000131e-04,2.000000000000000164e-05,2.999999999999999737e-05,4.000000000000000000e+00,1.900000000000000000e+01
3.842500000000000000e+04,-1.000000000000000082e-05,-1.000000000000000082e-05,6.999999999999999387e-05,8.900000000000000576e-04,2.299999999999999799e-04,1.600000000000000131e-04,2.000000000000000164e-05,2.999999999999999737e-05,4.000000000000000000e+00,1.900000000000000000e+01
3.842600000000000000e+04,-1.000000000000000082e-05,-1.000000000000000082e-05,6.999999999999999387e-05,8.900000000000000576e-04,2.299999999999999799e-04,1.600000000000000131e-04,2.000000000000000164e-05,2.999999999999999737e-05,4.000000000000000000e+00,1.900000000000000000e+01
3.842700000000000000e+04,-1.000000000000000082e-05,-1.000000000000000082e-05,6.999999999999999387e-05,8.900000000000000576e-04,2.299999999999999799e-04,1.600000000000000131e-04,2.000000000000000164e-05,2.999999999999999737e-05,4.000000000000000000e+00,1.900000000000000000e+01
3.842800000000000000e+04,-1.000000000000000082e-05,-1.000000000000000082e-05,6.999999999999999387e-05,8.900000000000000576e-04,2.299999999999999799e-04,1.600000000000000131e-04,2.000000000000000164e-05,2.999999999999999737e-05,4.000000000000000000e+00,1.900000000000000000e+01
3.842900000000000000e+04,-1.000000000000000082e-05,-1.000000000000000082e-05,6.999999999999999387e-05,8.900000000000000576e-04,2.299999999999999799e-04,1.600000000000000131e-04,2.000000000000000164e-05,2.999999999999999737e-05,4.000000000000000000e+00,1.900000000000000000e+01
3.843000000000000000e+04,-1.000000000000000082e-05,-1.000000000000000082e-05,6.999999999999999387e-05,8.900000000000000576e-04,2.299999999999999799e-04,1.600000000000000131e-04,2.000000000000000164e-05,2.999999999999999737e-05,4.000000000000000000e+00,1.900000000000000000e+01
3.843100000000000000e+04,-5.999999999999999474e-05,-1.399999999999999877e-04,-1.300000000000000157e-04,-4.400000000000000157e-04,-6.999999999999999387e-05,1.100000000000000039e-04,5.999999999999999474e-05,-5.000000000000000240e-05,4.000000000000000000e+00,1.900000000000000000e+01
3.843200000000000000e+04,-5.999999999999999474e-05,-1.399999999999999877e-04,-1.300000000000000157e-04,-4.400000000000000157e-04,-6.999999999999999387e-05,1.100000000000000039e-04,5.999999999999999474e-05,-5.000000000000000240e-05,4.000000000000000000e+00,1.900000000000000000e+01
3.843300000000000000e+04,-5.999999999999999474e-05,-1.399999999999999877e-04,-1.300000000000000157e-04,-4.400000000000000157e-04,-6.999999999999999387e-05,1.100000000000000039e-04,5.999999999999999474e-05,-5.000000000000000240e-05,4.000000000000000000e+00,1.900000000000000000e+01
3.843400000000000000e+04,-5.999999999999999474e-05,-1.399999999999999877e-04,-1.300000000000000157e-04,-4.400000000000000157e-04,-6.999999999999999387e-05,1.100000000000000039e-04,5.999999999999999474e-05,-5.000000000000000240e-05,4.000000000000000000e+00,1.900000000000000000e+01
3.843500000000000000e+04,-5.999999999999999474e-05,-1.399999999999999877e-04,-1.300000000000000157e-04,-4.400000000000000157e-04,-6.999999999999999387e-05,1.100000000000000039e-04,5.999999999999999474e-05,-5.000000000000000240e-05,4.000000000000000000e+00,1.900000000000000000e+01
3.843600000000000000e+04,-5.999999999999999474e-05,-1.399999999999999877e-04,-1.300000000000000157e-04,-4.400000000000000157e-04,-6.999999999999999387e-05,1.100000000000000039e-04,5.999999999999999474e-05,-5.000000000000000240e-05,4.000000000000000000e+00,1.900000000000000000e+01
3.843800000000000000e+04,-5.999999999999999474e-05,-1.399999999999999877e-04,-1.300000000000000157e-04,-4.400000000000000157e-04,-6.999999999999999387e-05,1.100000000000000039e-04,5.999999999999999474e-05,-5.000000000000000240e-05,4.000000000000000000e+00,1.900000000000000000e+01
3.843900000000000000e+04,-5.999999999999999474e-05,-1.399999999999999877e-04,-1.300000000000000157e-04,-4.400000000000000157e-04,-6.999999999999999387e-05,1.100000000000000039e-04,5.999999999999999474e-05,-5.000000000000000240e-05,4.000000000000000000e+00,1.900000000000000000e+01
3.844000000000000000e+04,-1.100000000000000039e-04,-1.399999999999999877e-04,-1.800000000000000113e-04,1.000000000000000048e-04,0.000000000000000000e+00,-8.000000000000000654e-05,-8.000000000000000654e-05,-8.000000000000000654e-05,4.000000000000000000e+00,1.900000000000000000e+01
3.844100000000000000e+04,9.000000000000000567e-05,1.199999999999999895e-04,3.399999999999999702e-04,2.999999999999999737e-04,-5.299999999999999807e-04,1.699999999999999851e-04,1.000000000000000048e-04,5.999999999999999474e-05,4.000000000000000000e+00,1.900000000000000000e+01
3.844200000000000000e+04,9.000000000000000567e-05,1.199999999999999895e-04,3.399999999999999702e-04,2.999999999999999737e-04,-5.299999999999999807e-04,1.699999999999999851e-04,1.000000000000000048e-04,5.999999999999999474e-05,4.000000000000000000e+00,1.900000000000000000e+01
3.844300000000000000e+04,9.000000000000000567e-05,1.199999999999999895e-04,3.399999999999999702e-04,2.999999999999999737e-04,-5.299999999999999807e-04,1.699999999999999851e-04,1.000000000000000048e-04,5.999999999999999474e-05,4.000000000000000000e+00,1.900000000000000000e+01
3.844400000000000000e+04,9.000000000000000567e-05,1.199999999999999895e-04,3.399999999999999702e-04,2.999999999999999737e-04,-5.299999999999999807e-04,1.699999999999999851e-04,1.000000000000000048e-04,5.999999999999999474e-05,4.000000000000000000e+00,1.900000000000000000e+01
3.844500000000000000e+04,9.000000000000000567e-05,1.199999999999999895e-04,3.399999999999999702e-04,2.999999999999999737e-04,-5.299999999999999807e-04,1.699999999999999851e-04,1.000000000000000048e-04,5.999999999999999474e-05,4.000000000000000000e+00,1.900000000000000000e+01
3.844600000000000000e+04,9.000000000000000567e-05,1.199999999999999895e-04,3.399999999999999702e-04,2.999999999999999737e-04,-5.299999999999999807e-04,1.699999999999999851e-04,1.000000000000000048e-04,5.999999999999999474e-05,4.000000000000000000e+00,1.900000000000000000e+01
3.844700000000000000e+04,9.000000000000000567e-05,1.199999999999999895e-04,3.399999999999999702e-04,2.999999999999999737e-04,-5.299999999999999807e-04,1.699999999999999851e-04,1.000000000000000048e-04,5.999999999999999474e-05,4.000000000000000000e+00,1.900000000000000000e+01
3.844800000000000000e+04,9.000000000000000567e-05,1.199999999999999895e-04,3.399999999999999702e-04,2.999999999999999737e-04,-5.299999999999999807e-04,1.699999999999999851e-04,1.000000000000000048e-04,5.999999999999999474e-05,4.000000000000000000e+00,1.900000000000000000e+01
3.844900000000000000e+04,9.000000000000000567e-05,1.199999999999999895e-04,3.399999999999999702e-04,2.999999999999999737e-04,-5.299999999999999807e-04,1.699999999999999851e-04,1.000000000000000048e-04,5.999999999999999474e-05,4.000000000000000000e+00,1.900000000000000000e+01
3.845000000000000000e+04,9.000000000000000567e-05,1.199999999999999895e-04,3.399999999999999702e-04,2.999999999999999737e-04,-5.299999999999999807e-04,1.699999999999999851e-04,1.000000000000000048e-04,5.999999999999999474e-05,4.000000000000000000e+00,1.900000000000000000e+01
3.845100000000000000e+04,9.000000000000000567e-05,1.199999999999999895e-04,3.399999999999999702e-04,2.999999999999999737e-04,-5.299999999999999807e-04,1.699999999999999851e-04,1.000000000000000048e-04,5.999999999999999474e-05,4.000000000000000000e+00,1.900000000000000000e+01
3.845200000000000000e+04,9.000000000000000567e-05,1.199999999999999895e-04,3.399999999999999702e-04,2.999999999999999737e-04,-5.299999999999999807e-04,1.699999999999999851e-04,1.000000000000000048e-04,5.999999999999999474e-05,4.000000000000000000e+00,1.900000000000000000e+01
3.845300000000000000e+04,9.000000000000000567e-05,1.199999999999999895e-04,3.399999999999999702e-04,2.999999999999999737e-04,-5.299999999999999807e-04,1.699999999999999851e-04,1.000000000000000048e-04,5.999999999999999474e-05,4.000000000000000000e+00,1.900000000000000000e+01
3.845400000000000000e+04,9.000000000000000567e-05,1.199999999999999895e-04,3.399999999999999702e-04,2.999999999999999737e-04,-5.299999999999999807e-04,1.699999999999999851e-04,1.000000000000000048e-04,5.999999999999999474e-05,4.000000000000000000e+00,1.900000000000000000e+01
3.845500000000000000e+04,9.000000000000000567e-05,1.199999999999999895e-04,3.399999999999999702e-04,2.999999999999999737e-04,-5.299999999999999807e-04,1.699999999999999851e-04,1.000000000000000048e-04,5.999999999999999474e-05,4.000000000000000000e+00,1.900000000000000000e+01
3.845600000000000000e+04,9.000000000000000567e-05,1.199999999999999895e-04,3.399999999999999702e-04,2.999999999999999737e-04,-5.299999999999999807e-04,1.699999999999999851e-04,1.000000000000000048e-04,5.999999999999999474e-05,4.000000000000000000e+00,1.900000000000000000e+01
3.845700000000000000e+04,9.000000000000000567e-05,1.199999999999999895e-04,3.399999999999999702e-04,2.999999999999999737e-04,-5.299999999999999807e-04,1.699999999999999851e-04,1.000000000000000048e-04,5.999999999999999474e-05,4.000000000000000000e+00,1.900000000000000000e+01
3.845800000000000000e+04,9.000000000000000567e-05,1.199999999999999895e-04,3.399999999999999702e-04,2.999999999999999737e-04,-5.299999999999999807e-04,1.699999999999999851e-04,1.000000000000000048e-04,5.999999999999999474e-05,4.000000000000000000e+00,1.900000000000000000e+01
3.845900000000000000e+04,9.000000000000000567e-05,1.199999999999999895e-04,3.399999999999999702e-04,2.999999999999999737e-04,-5.299999999999999807e-04,1.699999999999999851e-04,1.000000000000000048e-04,5.999999999999999474e-05,4.000000000000000000e+00,1.900000000000000000e+01
3.846000000000000000e+04,9.000000000000000567e-05,1.199999999999999895e-04,3.399999999999999702e-04,2.999999999999999737e-04,-5.299999999999999807e-04,1.699999999999999851e-04,1.000000000000000048e-04,5.999999999999999474e-05,4.000000000000000000e+00,1.900000000000000000e+01
3.846100000000000000e+04,9.000000000000000567e-05,1.199999999999999895e-04,3.399999999999999702e-04,2.999999999999999737e-04,-5.299999999999999807e-04,1.699999999999999851e-04,1.000000000000000048e-04,5.999999999999999474e-05,4.000000000000000000e+00,1.900000000000000000e+01
3.846200000000000000e+04,2.000000000000000164e-05,-1.000000000000000082e-05,-1.499999999999999869e-04,-6.999999999999999387e-05,5.500000000000000331e-04,1.600000000000000131e-04,5.999999999999999474e-05,5.999999999999999474e-05,4.000000000000000000e+00,1.900000000000000000e+01
3.846300000000000000e+04,2.000000000000000164e-05,-1.000000000000000082e-05,-1.499999999999999869e-04,-6.999999999999999387e-05,5.500000000000000331e-04,1.600000000000000131e-04,5.999999999999999474e-05,5.999999999999999474e-05,4.000000000000000000e+00,1.900000000000000000e+01
3.846400000000000000e+04,1.000000000000000082e-05,2.000000000000000164e-05,5.999999999999999474e-05,-1.100000000000000039e-04,8.000000000000000654e-05,-1.000000000000000082e-05,6.999999999999999387e-05,2.999999999999999737e-05,4.000000000000000000e+00,1.900000000000000000e+01
3.846500000000000000e+04,1.000000000000000082e-05,2.000000000000000164e-05,5.999999999999999474e-05,-1.100000000000000039e-04,8.000000000000000654e-05,-1.000000000000000082e-05,6.999999999999999387e-05,2.999999999999999737e-05,4.000000000000000000e+00,1.900000000000000000e+01
3.846600000000000000e+04,1.000000000000000082e-05,2.000000000000000164e-05,5.999999999999999474e-05,-1.100000000000000039e-04,8.000000000000000654e-05,-1.000000000000000082e-05,6.999999999999999387e-05,2.999999999999999737e-05,4.000000000000000000e+00,1.900000000000000000e+01
3.846700000000000000e+04,1.000000000000000082e-05,2.000000000000000164e-05,5.999999999999999474e-05,-1.100000000000000039e-04,8.000000000000000654e-05,-1.000000000000000082e-05,6.999999999999999387e-05,2.999999999999999737e-05,4.000000000000000000e+00,1.900000000000000000e+01
3.846800000000000000e+04,1.000000000000000082e-05,2.000000000000000164e-05,5.999999999999999474e-05,-1.100000000000000039e-04,8.000000000000000654e-05,-1.000000000000000082e-05,6.999999999999999387e-05,2.999999999999999737e-05,4.000000000000000000e+00,1.900000000000000000e+01
3.846900000000000000e+04,1.000000000000000082e-05,2.000000000000000164e-05,5.999999999999999474e-05,-1.100000000000000039e-04,8.000000000000000654e-05,-1.000000000000000082e-05,6.999999999999999387e-05,2.999999999999999737e-05,4.000000000000000000e+00,1.900000000000000000e+01
3.847000000000000000e+04,1.000000000000000082e-05,2.000000000000000164e-05,5.999999999999999474e-05,-1.100000000000000039e-04,8.000000000000000654e-05,-1.000000000000000082e-05,6.999999999999999387e-05,2.999999999999999737e-05,4.000000000000000000e+00,1.900000000000000000e+01
3.847100000000000000e+04,1.000000000000000082e-05,2.000000000000000164e-05,5.999999999999999474e-05,-1.100000000000000039e-04,8.000000000000000654e-05,-1.000000000000000082e-05,6.999999999999999387e-05,2.999999999999999737e-05,4.000000000000000000e+00,1.900000000000000000e+01
3.847200000000000000e+04,1.000000000000000082e-05,2.000000000000000164e-05,5.999999999999999474e-05,-1.100000000000000039e-04,8.000000000000000654e-05,-1.000000000000000082e-05,6.999999999999999387e-05,2.999999999999999737e-05,4.000000000000000000e+00,1.900000000000000000e+01
3.847300000000000000e+04,1.000000000000000082e-05,2.000000000000000164e-05,5.999999999999999474e-05,-1.100000000000000039e-04,8.000000000000000654e-05,-1.000000000000000082e-05,6.999999999999999387e-05,2.999999999999999737e-05,4.000000000000000000e+00,1.900000000000000000e+01
3.847400000000000000e+04,1.000000000000000082e-05,2.000000000000000164e-05,5.999999999999999474e-05,-1.100000000000000039e-04,8.000000000000000654e-05,-1.000000000000000082e-05,6.999999999999999387e-05,2.999999999999999737e-05,4.000000000000000000e+00,1.900000000000000000e+01
3.847500000000000000e+04,1.000000000000000082e-05,2.000000000000000164e-05,5.999999999999999474e-05,-1.100000000000000039e-04,8.000000000000000654e-05,-1.000000000000000082e-05,6.999999999999999387e-05,2.999999999999999737e-05,4.000000000000000000e+00,1.900000000000000000e+01
3.847600000000000000e+04,1.199999999999999895e-04,1.699999999999999851e-04,2.500000000000000052e-04,4.299999999999999894e-04,9.799999999999999684e-04,3.399999999999999702e-04,1.300000000000000157e-04,9.000000000000000567e-05,4.000000000000000000e+00,1.900000000000000000e+01
3.847700000000000000e+04,1.199999999999999895e-04,1.699999999999999851e-04,2.500000000000000052e-04,4.299999999999999894e-04,9.799999999999999684e-04,3.399999999999999702e-04,1.300000000000000157e-04,9.000000000000000567e-05,4.000000000000000000e+00,1.900000000000000000e+01
3.847800000000000000e+04,1.199999999999999895e-04,1.699999999999999851e-04,2.500000000000000052e-04,4.299999999999999894e-04,9.799999999999999684e-04,3.399999999999999702e-04,1.300000000000000157e-04,9.000000000000000567e-05,4.000000000000000000e+00,1.900000000000000000e+01
3.847900000000000000e+04,1.199999999999999895e-04,1.699999999999999851e-04,2.500000000000000052e-04,4.299999999999999894e-04,9.799999999999999684e-04,3.399999999999999702e-04,1.300000000000000157e-04,9.000000000000000567e-05,4.000000000000000000e+00,1.900000000000000000e+01
3.848000000000000000e+04,1.199999999999999895e-04,1.699999999999999851e-04,2.500000000000000052e-04,4.299999999999999894e-04,9.799999999999999684e-04,3.399999999999999702e-04,1.300000000000000157e-04,9.000000000000000567e-05,4.000000000000000000e+00,1.900000000000000000e+01
3.848100000000000000e+04,1.199999999999999895e-04,1.699999999999999851e-04,2.500000000000000052e-04,4.299999999999999894e-04,9.799999999999999684e-04,3.399999999999999702e-04,1.300000000000000157e-04,9.000000000000000567e-05,4.000000000000000000e+00,1.900000000000000000e+01
3.848200000000000000e+04,1.199999999999999895e-04,1.699999999999999851e-04,2.500000000000000052e-04,4.299999999999999894e-04,9.799999999999999684e-04,3.399999999999999702e-04,1.300000000000000157e-04,9.000000000000000567e-05,4.000000000000000000e+00,1.900000000000000000e+01
3.848300000000000000e+04,1.199999999999999895e-04,1.699999999999999851e-04,2.500000000000000052e-04,4.299999999999999894e-04,9.799999999999999684e-04,3.399999999999999702e-04,1.300000000000000157e-04,9.000000000000000567e-05,4.000000000000000000e+00,1.900000000000000000e+01
3.848400000000000000e+04,1.199999999999999895e-04,1.699999999999999851e-04,2.500000000000000052e-04,4.299999999999999894e-04,9.799999999999999684e-04,3.399999999999999702e-04,1.300000000000000157e-04,9.000000000000000567e-05,4.000000000000000000e+00,1.900000000000000000e+01
3.848500000000000000e+04,2.000000000000000164e-05,5.999999999999999474e-05,1.699999999999999851e-04,4.499999999999999877e-04,2.399999999999999790e-04,1.000000000000000048e-04,1.000000000000000082e-05,-1.000000000000000082e-05,4.000000000000000000e+00,1.900000000000000000e+01
3.848600000000000000e+04,2.000000000000000164e-05,5.999999999999999474e-05,1.699999999999999851e-04,4.499999999999999877e-04,2.399999999999999790e-04,1.000000000000000048e-04,1.000000000000000082e-05,-1.000000000000000082e-05,4.000000000000000000e+00,1.900000000000000000e+01
3.848800000000000000e+04,2.000000000000000164e-05,5.999999999999999474e-05,1.699999999999999851e-04,4.499999999999999877e-04,2.399999999999999790e-04,1.000000000000000048e-04,1.000000000000000082e-05,-1.000000000000000082e-05,4.000000000000000000e+00,1.900000000000000000e+01
3.848900000000000000e+04,2.000000000000000164e-05,5.999999999999999474e-05,1.699999999999999851e-04,4.499999999999999877e-04,2.399999999999999790e-04,1.000000000000000048e-04,1.000000000000000082e-05,-1.000000000000000082e-05,4.000000000000000000e+00,1.900000000000000000e+01
3.849000000000000000e+04,2.000000000000000164e-05,5.999999999999999474e-05,1.699999999999999851e-04,4.499999999999999877e-04,2.399999999999999790e-04,1.000000000000000048e-04,1.000000000000000082e-05,-1.000000000000000082e-05,4.000000000000000000e+00,1.900000000000000000e+01
3.849100000000000000e+04,2.000000000000000164e-05,5.999999999999999474e-05,1.699999999999999851e-04,4.499999999999999877e-04,2.399999999999999790e-04,1.000000000000000048e-04,1.000000000000000082e-05,-1.000000000000000082e-05,4.000000000000000000e+00,1.900000000000000000e+01
3.849200000000000000e+04,2.000000000000000164e-05,5.999999999999999474e-05,1.699999999999999851e-04,4.499999999999999877e-04,2.399999999999999790e-04,1.000000000000000048e-04,1.000000000000000082e-05,-1.000000000000000082e-05,4.000000000000000000e+00,1.900000000000000000e+01
3.849300000000000000e+04,2.000000000000000164e-05,5.999999999999999474e-05,1.699999999999999851e-04,4.499999999999999877e-04,2.399999999999999790e-04,1.000000000000000048e-04,1.000000000000000082e-05,-1.000000000000000082e-05,4.000000000000000000e+00,1.900000000000000000e+01
3.849400000000000000e+04,2.000000000000000164e-05,5.999999999999999474e-05,1.699999999999999851e-04,4.499999999999999877e-04,2.399999999999999790e-04,1.000000000000000048e-04,1.000000000000000082e-05,-1.000000000000000082e-05,4.000000000000000000e+00,1.900000000000000000e+01
3.849500000000000000e+04,2.000000000000000164e-05,5.999999999999999474e-05,1.699999999999999851e-04,4.499999999999999877e-04,2.399999999999999790e-04,1.000000000000000048e-04,1.000000000000000082e-05,-1.000000000000000082e-05,4.000000000000000000e+00,1.900000000000000000e+01
3.849600000000000000e+04,2.000000000000000164e-05,5.999999999999999474e-05,1.699999999999999851e-04,4.499999999999999877e-04,2.399999999999999790e-04,1.000000000000000048e-04,1.000000000000000082e-05,-1.000000000000000082e-05,4.000000000000000000e+00,1.900000000000000000e+01
3.849700000000000000e+04,2.000000000000000164e-05,5.999999999999999474e-05,1.699999999999999851e-04,4.499999999999999877e-04,2.399999999999999790e-04,1.000000000000000048e-04,1.000000000000000082e-05,-1.000000000000000082e-05,4.000000000000000000e+00,1.900000000000000000e+01
3.849800000000000000e+04,2.000000000000000164e-05,5.999999999999999474e-05,1.699999999999999851e-04,4.499999999999999877e-04,2.399999999999999790e-04,1.000000000000000048e-04,1.000000000000000082e-05,-1.000000000000000082e-05,4.000000000000000000e+00,1.900000000000000000e+01
3.849900000000000000e+04,2.000000000000000164e-05,5.999999999999999474e-05,1.699999999999999851e-04,4.499999999999999877e-04,2.399999999999999790e-04,1.000000000000000048e-04,1.000000000000000082e-05,-1.000000000000000082e-05,4.000000000000000000e+00,1.900000000000000000e+01
3.850000000000000000e+04,-5.999999999999999474e-05,-1.000000000000000048e-04,-1.600000000000000131e-04,8.000000000000000654e-05,-2.500000000000000052e-04,-2.299999999999999799e-04,-1.199999999999999895e-04,-9.000000000000000567e-05,4.000000000000000000e+00,1.900000000000000000e+01
3.850100000000000000e+04,-5.999999999999999474e-05,-1.000000000000000048e-04,-1.600000000000000131e-04,8.000000000000000654e-05,-2.500000000000000052e-04,-2.299999999999999799e-04,-1.199999999999999895e-04,-9.000000000000000567e-05,4.000000000000000000e+00,1.900000000000000000e+01
3.850200000000000000e+04,-8.000000000000000654e-05,-1.300000000000000157e-04,-2.500000000000000052e-04,-1.049999999999999935e-03,4.000000000000000327e-05,5.000000000000000240e-05,1.000000000000000082e-05,-1.000000000000000082e-05,4.000000000000000000e+00,1.900000000000000000e+01
3.850300000000000000e+04,-8.000000000000000654e-05,-1.300000000000000157e-04,-2.500000000000000052e-04,-1.049999999999999935e-03,4.000000000000000327e-05,5.000000000000000240e-05,1.000000000000000082e-05,-1.000000000000000082e-05,4.000000000000000000e+00,1.900000000000000000e+01
3.850400000000000000e+04,-8.000000000000000654e-05,-1.300000000000000157e-04,-2.500000000000000052e-04,-1.049999999999999935e-03,4.000000000000000327e-05,5.000000000000000240e-05,1.000000000000000082e-05,-1.000000000000000082e-05,4.000000000000000000e+00,1.900000000000000000e+01
3.850500000000000000e+04,-8.000000000000000654e-05,-1.300000000000000157e-04,-2.500000000000000052e-04,-1.049999999999999935e-03,4.000000000000000327e-05,5.000000000000000240e-05,1.000000000000000082e-05,-1.000000000000000082e-05,4.000000000000000000e+00,1.900000000000000000e+01
3.850600000000000000e+04,-8.000000000000000654e-05,-1.300000000000000157e-04,-2.500000000000000052e-04,-1.049999999999999935e-03,4.000000000000000327e-05,5.000000000000000240e-05,1.000000000000000082e-05,-1.000000000000000082e-05,4.000000000000000000e+00,1.900000000000000000e+01
3.850700000000000000e+04,-8.000000000000000654e-05,-1.300000000000000157e-04,-2.500000000000000052e-04,-1.049999999999999935e-03,4.000000000000000327e-05,5.000000000000000240e-05,1.000000000000000082e-05,-1.000000000000000082e-05,4.000000000000000000e+00,1.900000000000000000e+01
3.850800000000000000e+04,-8.000000000000000654e-05,-1.300000000000000157e-04,-2.500000000000000052e-04,-1.049999999999999935e-03,4.000000000000000327e-05,5.000000000000000240e-05,1.000000000000000082e-05,-1.000000000000000082e-05,4.000000000000000000e+00,1.900000000000000000e+01
3.850900000000000000e+04,-8.000000000000000654e-05,-1.300000000000000157e-04,-2.500000000000000052e-04,-1.049999999999999935e-03,4.000000000000000327e-05,5.000000000000000240e-05,1.000000000000000082e-05,-1.000000000000000082e-05,4.000000000000000000e+00,1.900000000000000000e+01
3.851000000000000000e+04,-8.000000000000000654e-05,-1.300000000000000157e-04,-2.500000000000000052e-04,-1.049999999999999935e-03,4.000000000000000327e-05,5.000000000000000240e-05,1.000000000000000082e-05,-1.000000000000000082e-05,4.000000000000000000e+00,1.900000000000000000e+01
3.851100000000000000e+04,-8.000000000000000654e-05,-1.300000000000000157e-04,-2.500000000000000052e-04,-1.049999999999999935e-03,4.000000000000000327e-05,5.000000000000000240e-05,1.000000000000000082e-05,-1.000000000000000082e-05,4.000000000000000000e+00,1.900000000000000000e+01
3.851200000000000000e+04,-8.000000000000000654e-05,-1.300000000000000157e-04,-2.500000000000000052e-04,-1.049999999999999935e-03,4.000000000000000327e-05,5.000000000000000240e-05,1.000000000000000082e-05,-1.000000000000000082e-05,4.000000000000000000e+00,1.900000000000000000e+01
3.851300000000000000e+04,-8.000000000000000654e-05,-1.300000000000000157e-04,-2.500000000000000052e-04,-1.049999999999999935e-03,4.000000000000000327e-05,5.000000000000000240e-05,1.000000000000000082e-05,-1.000000000000000082e-05,4.000000000000000000e+00,1.900000000000000000e+01
3.851400000000000000e+04,-8.000000000000000654e-05,-1.300000000000000157e-04,-2.500000000000000052e-04,-1.049999999999999935e-03,4.000000000000000327e-05,5.000000000000000240e-05,1.000000000000000082e-05,-1.000000000000000082e-05,4.000000000000000000e+00,1.900000000000000000e+01
3.851500000000000000e+04,-8.000000000000000654e-05,-1.300000000000000157e-04,-2.500000000000000052e-04,-1.049999999999999935e-03,4.000000000000000327e-05,5.000000000000000240e-05,1.000000000000000082e-05,-1.000000000000000082e-05,4.000000000000000000e+00,1.900000000000000000e+01
3.851600000000000000e+04,-8.000000000000000654e-05,-1.300000000000000157e-04,-2.500000000000000052e-04,-1.049999999999999935e-03,4.000000000000000327e-05,5.000000000000000240e-05,1.000000000000000082e-05,-1.000000000000000082e-05,4.000000000000000000e+00,1.900000000000000000e+01
3.851700000000000000e+04,-8.000000000000000654e-05,-1.300000000000000157e-04,-2.500000000000000052e-04,-1.049999999999999935e-03,4.000000000000000327e-05,5.000000000000000240e-05,1.000000000000000082e-05,-1.000000000000000082e-05,4.000000000000000000e+00,1.900000000000000000e+01
3.851800000000000000e+04,-8.000000000000000654e-05,-1.300000000000000157e-04,-2.500000000000000052e-04,-1.049999999999999935e-03,4.000000000000000327e-05,5.000000000000000240e-05,1.000000000000000082e-05,-1.000000000000000082e-05,4.000000000000000000e+00,1.900000000000000000e+01
3.851900000000000000e+04,-8.000000000000000654e-05,-1.300000000000000157e-04,-2.500000000000000052e-04,-1.049999999999999935e-03,4.000000000000000327e-05,5.000000000000000240e-05,1.000000000000000082e-05,-1.000000000000000082e-05,4.000000000000000000e+00,1.900000000000000000e+01
3.852000000000000000e+04,-8.000000000000000654e-05,-1.300000000000000157e-04,-2.500000000000000052e-04,-1.049999999999999935e-03,4.000000000000000327e-05,5.000000000000000240e-05,1.000000000000000082e-05,-1.000000000000000082e-05,4.000000000000000000e+00,1.900000000000000000e+01
3.852100000000000000e+04,-8.000000000000000654e-05,-1.300000000000000157e-04,-2.500000000000000052e-04,-1.049999999999999935e-03,4.000000000000000327e-05,5.000000000000000240e-05,1.000000000000000082e-05,-1.000000000000000082e-05,4.000000000000000000e+00,1.900000000000000000e+01
3.852200000000000000e+04,2.999999999999999737e-05,0.000000000000000000e+00,1.300000000000000157e-04,6.400000000000000524e-04,1.000000000000000048e-04,1.199999999999999895e-04,2.999999999999999737e-05,0.000000000000000000e+00,4.000000000000000000e+00,1.900000000000000000e+01
3.852300000000000000e+04,2.999999999999999737e-05,0.000000000000000000e+00,1.300000000000000157e-04,6.400000000000000524e-04,1.000000000000000048e-04,1.199999999999999895e-04,2.999999999999999737e-05,0.000000000000000000e+00,4.000000000000000000e+00,1.900000000000000000e+01
3.852400000000000000e+04,1.000000000000000082e-05,1.000000000000000082e-05,-4.000000000000000327e-05,5.400000000000000069e-04,4.599999999999999597e-04,4.000000000000000327e-05,-5.000000000000000240e-05,2.000000000000000164e-05,4.000000000000000000e+00,1.900000000000000000e+01
3.852500000000000000e+04,1.000000000000000082e-05,1.000000000000000082e-05,-4.000000000000000327e-05,5.400000000000000069e-04,4.599999999999999597e-04,4.000000000000000327e-05,-5.000000000000000240e-05,2.000000000000000164e-05,4.000000000000000000e+00,1.900000000000000000e+01
3.852600000000000000e+04,1.000000000000000082e-05,1.000000000000000082e-05,-4.000000000000000327e-05,5.400000000000000069e-04,4.599999999999999597e-04,4.000000000000000327e-05,-5.000000000000000240e-05,2.000000000000000164e-05,4.000000000000000000e+00,1.900000000000000000e+01
3.852700000000000000e+04,1.000000000000000082e-05,1.000000000000000082e-05,-4.000000000000000327e-05,5.400000000000000069e-04,4.599999999999999597e-04,4.000000000000000327e-05,-5.000000000000000240e-05,2.000000000000000164e-05,4.000000000000000000e+00,1.900000000000000000e+01
3.852800000000000000e+04,1.000000000000000082e-05,1.000000000000000082e-05,-4.000000000000000327e-05,5.400000000000000069e-04,4.599999999999999597e-04,4.000000000000000327e-05,-5.000000000000000240e-05,2.000000000000000164e-05,4.000000000000000000e+00,1.900000000000000000e+01
3.852900000000000000e+04,1.000000000000000082e-05,1.000000000000000082e-05,-4.000000000000000327e-05,5.400000000000000069e-04,4.599999999999999597e-04,4.000000000000000327e-05,-5.000000000000000240e-05,2.000000000000000164e-05,4.000000000000000000e+00,1.900000000000000000e+01
3.853000000000000000e+04,1.000000000000000082e-05,1.000000000000000082e-05,-4.000000000000000327e-05,5.400000000000000069e-04,4.599999999999999597e-04,4.000000000000000327e-05,-5.000000000000000240e-05,2.000000000000000164e-05,4.000000000000000000e+00,1.900000000000000000e+01
3.853100000000000000e+04,1.000000000000000082e-05,1.000000000000000082e-05,-4.000000000000000327e-05,5.400000000000000069e-04,4.599999999999999597e-04,4.000000000000000327e-05,-5.000000000000000240e-05,2.000000000000000164e-05,4.000000000000000000e+00,1.900000000000000000e+01
3.853200000000000000e+04,1.000000000000000082e-05,1.000000000000000082e-05,-4.000000000000000327e-05,5.400000000000000069e-04,4.599999999999999597e-04,4.000000000000000327e-05,-5.000000000000000240e-05,2.000000000000000164e-05,4.000000000000000000e+00,1.900000000000000000e+01
3.853300000000000000e+04,1.000000000000000082e-05,1.000000000000000082e-05,-4.000000000000000327e-05,5.400000000000000069e-04,4.599999999999999597e-04,4.000000000000000327e-05,-5.000000000000000240e-05,2.000000000000000164e-05,4.000000000000000000e+00,1.900000000000000000e+01
3.853400000000000000e+04,1.000000000000000082e-05,1.000000000000000082e-05,-4.000000000000000327e-05,5.400000000000000069e-04,4.599999999999999597e-04,4.000000000000000327e-05,-5.000000000000000240e-05,2.000000000000000164e-05,4.000000000000000000e+00,1.900000000000000000e+01
3.853500000000000000e+04,1.000000000000000082e-05,1.000000000000000082e-05,-4.000000000000000327e-05,5.400000000000000069e-04,4.599999999999999597e-04,4.000000000000000327e-05,-5.000000000000000240e-05,2.000000000000000164e-05,4.000000000000000000e+00,1.900000000000000000e+01
3.853600000000000000e+04,1.000000000000000082e-05,5.000000000000000240e-05,-2.000000000000000164e-05,5.000000000000000240e-05,2.999999999999999737e-05,1.499999999999999869e-04,9.000000000000000567e-05,0.000000000000000000e+00,4.000000000000000000e+00,1.900000000000000000e+01
3.853800000000000000e+04,1.000000000000000082e-05,5.000000000000000240e-05,-2.000000000000000164e-05,5.000000000000000240e-05,2.999999999999999737e-05,1.499999999999999869e-04,9.000000000000000567e-05,0.000000000000000000e+00,4.000000000000000000e+00,1.900000000000000000e+01
3.853900000000000000e+04,1.000000000000000082e-05,5.000000000000000240e-05,-2.000000000000000164e-05,5.000000000000000240e-05,2.999999999999999737e-05,1.499999999999999869e-04,9.000000000000000567e-05,0.000000000000000000e+00,4.000000000000000000e+00,1.900000000000000000e+01
3.854000000000000000e+04,1.000000000000000082e-05,5.000000000000000240e-05,-2.000000000000000164e-05,5.000000000000000240e-05,2.999999999999999737e-05,1.499999999999999869e-04,9.000000000000000567e-05,0.000000000000000000e+00,4.000000000000000000e+00,1.900000000000000000e+01
3.854100000000000000e+04,1.000000000000000082e-05,5.000000000000000240e-05,-2.000000000000000164e-05,5.000000000000000240e-05,2.999999999999999737e-05,1.499999999999999869e-04,9.000000000000000567e-05,0.000000000000000000e+00,4.000000000000000000e+00,1.900000000000000000e+01
3.854200000000000000e+04,1.000000000000000082e-05,5.000000000000000240e-05,-2.000000000000000164e-05,5.000000000000000240e-05,2.999999999999999737e-05,1.499999999999999869e-04,9.000000000000000567e-05,0.000000000000000000e+00,4.000000000000000000e+00,1.900000000000000000e+01
3.854300000000000000e+04,1.000000000000000082e-05,5.000000000000000240e-05,-2.000000000000000164e-05,5.000000000000000240e-05,2.999999999999999737e-05,1.499999999999999869e-04,9.000000000000000567e-05,0.000000000000000000e+00,4.000000000000000000e+00,1.900000000000000000e+01
3.854400000000000000e+04,1.000000000000000082e-05,5.000000000000000240e-05,-2.000000000000000164e-05,5.000000000000000240e-05,2.999999999999999737e-05,1.499999999999999869e-04,9.000000000000000567e-05,0.000000000000000000e+00,4.000000000000000000e+00,1.900000000000000000e+01
3.854500000000000000e+04,-2.999999999999999737e-05,-2.999999999999999737e-05,-4.000000000000000327e-05,-6.999999999999999387e-05,2.399999999999999790e-04,-6.999999999999999387e-05,-2.000000000000000164e-05,-2.999999999999999737e-05,4.000000000000000000e+00,1.900000000000000000e+01
3.854600000000000000e+04,-2.999999999999999737e-05,-2.999999999999999737e-05,-4.000000000000000327e-05,-6.999999999999999387e-05,2.399999999999999790e-04,-6.999999999999999387e-05,-2.000000000000000164e-05,-2.999999999999999737e-05,4.000000000000000000e+00,1.900000000000000000e+01
3.854700000000000000e+04,-2.999999999999999737e-05,-2.999999999999999737e-05,-4.000000000000000327e-05,-6.999999999999999387e-05,2.399999999999999790e-04,-6.999999999999999387e-05,-2.000000000000000164e-05,-2.999999999999999737e-05,4.000000000000000000e+00,1.900000000000000000e+01
3.854800000000000000e+04,-2.999999999999999737e-05,-2.999999999999999737e-05,-4.000000000000000327e-05,-6.999999999999999387e-05,2.399999999999999790e-04,-6.999999999999999387e-05,-2.000000000000000164e-05,-2.999999999999999737e-05,4.000000000000000000e+00,1.900000000000000000e+01
3.854900000000000000e+04,-2.999999999999999737e-05,-2.999999999999999737e-05,-4.000000000000000327e-05,-6.999999999999999387e-05,2.399999999999999790e-04,-6.999999999999999387e-05,-2.000000000000000164e-05,-2.999999999999999737e-05,4.000000000000000000e+00,1.900000000000000000e+01
3.855000000000000000e+04,-2.999999999999999737e-05,-2.999999999999999737e-05,-4.000000000000000327e-05,-6.999999999999999387e-05,2.399999999999999790e-04,-6.999999999999999387e-05,-2.000000000000000164e-05,-2.999999999999999737e-05,4.000000000000000000e+00,1.900000000000000000e+01
3.855100000000000000e+04,-2.999999999999999737e-05,-2.999999999999999737e-05,-4.000000000000000327e-05,-6.999999999999999387e-05,2.399999999999999790e-04,-6.999999999999999387e-05,-2.000000000000000164e-05,-2.999999999999999737e-05,4.000000000000000000e+00,1.900000000000000000e+01
3.855200000000000000e+04,-2.999999999999999737e-05,-2.999999999999999737e-05,-4.000000000000000327e-05,-6.999999999999999387e-05,2.399999999999999790e-04,-6.999999999999999387e-05,-2.000000000000000164e-05,-2.999999999999999737e-05,4.000000000000000000e+00,1.900000000000000000e+01
3.855300000000000000e+04,-2.999999999999999737e-05,-2.999999999999999737e-05,-4.000000000000000327e-05,-6.999999999999999387e-05,2.399999999999999790e-04,-6.999999999999999387e-05,-2.000000000000000164e-05,-2.999999999999999737e-05,4.000000000000000000e+00,1.900000000000000000e+01
3.855400000000000000e+04,-2.999999999999999737e-05,-2.999999999999999737e-05,-4.000000000000000327e-05,-6.999999999999999387e-05,2.399999999999999790e-04,-6.999999999999999387e-05,-2.000000000000000164e-05,-2.999999999999999737e-05,4.000000000000000000e+00,1.900000000000000000e+01
3.855500000000000000e+04,-2.999999999999999737e-05,-2.999999999999999737e-05,-4.000000000000000327e-05,-6.999999999999999387e-05,2.399999999999999790e-04,-6.999999999999999387e-05,-2.000000000000000164e-05,-2.999999999999999737e-05,4.000000000000000000e+00,1.900000000000000000e+01
3.855600000000000000e+04,-2.999999999999999737e-05,-2.999999999999999737e-05,-4.000000000000000327e-05,-6.999999999999999387e-05,2.399999999999999790e-04,-6.999999999999999387e-05,-2.000000000000000164e-05,-2.999999999999999737e-05,4.000000000000000000e+00,1.900000000000000000e+01
3.855700000000000000e+04,-2.999999999999999737e-05,-2.999999999999999737e-05,-4.000000000000000327e-05,-6.999999999999999387e-05,2.399999999999999790e-04,-6.999999999999999387e-05,-2.000000000000000164e-05,-2.999999999999999737e-05,4.000000000000000000e+00,1.900000000000000000e+01
3.855800000000000000e+04,-2.999999999999999737e-05,-2.999999999999999737e-05,-4.000000000000000327e-05,-6.999999999999999387e-05,2.399999999999999790e-04,-6.999999999999999387e-05,-2.000000000000000164e-05,-2.999999999999999737e-05,4.000000000000000000e+00,1.900000000000000000e+01
3.855900000000000000e+04,-2.999999999999999737e-05,-2.999999999999999737e-05,-4.000000000000000327e-05,-6.999999999999999387e-05,2.399999999999999790e-04,-6.999999999999999387e-05,-2.000000000000000164e-05,-2.999999999999999737e-05,4.000000000000000000e+00,1.900000000000000000e+01
3.856000000000000000e+04,1.000000000000000082e-05,0.000000000000000000e+00,1.100000000000000039e-04,5.999999999999999474e-05,-4.899999999999999842e-04,-6.999999999999999387e-05,-1.000000000000000082e-05,0.000000000000000000e+00,4.000000000000000000e+00,1.900000000000000000e+01
3.856100000000000000e+04,-2.000000000000000164e-05,-1.000000000000000082e-05,-1.000000000000000082e-05,2.799999999999999755e-04,1.899999999999999834e-04,6.999999999999999387e-05,4.000000000000000327e-05,-4.000000000000000327e-05,4.000000000000000000e+00,1.900000000000000000e+01
3.856200000000000000e+04,0.000000000000000000e+00,-1.000000000000000082e-05,-2.000000000000000164e-05,-2.600000000000000314e-04,-6.300000000000000261e-04,-1.800000000000000113e-04,-8.000000000000000654e-05,1.000000000000000082e-05,4.000000000000000000e+00,1.900000000000000000e+01
3.856300000000000000e+04,0.000000000000000000e+00,-1.000000000000000082e-05,-2.000000000000000164e-05,-2.600000000000000314e-04,-6.300000000000000261e-04,-1.800000000000000113e-04,-8.000000000000000654e-05,1.000000000000000082e-05,4.000000000000000000e+00,1.900000000000000000e+01
3.856400000000000000e+04,0.000000000000000000e+00,-1.000000000000000082e-05,-2.000000000000000164e-05,-2.600000000000000314e-04,-6.300000000000000261e-04,-1.800000000000000113e-04,-8.000000000000000654e-05,1.000000000000000082e-05,4.000000000000000000e+00,1.900000000000000000e+01
3.856500000000000000e+04,0.000000000000000000e+00,-1.000000000000000082e-05,-2.000000000000000164e-05,-2.600000000000000314e-04,-6.300000000000000261e-04,-1.800000000000000113e-04,-8.000000000000000654e-05,1.000000000000000082e-05,4.000000000000000000e+00,1.900000000000000000e+01
3.856600000000000000e+04,0.000000000000000000e+00,-1.000000000000000082e-05,-2.000000000000000164e-05,-2.600000000000000314e-04,-6.300000000000000261e-04,-1.800000000000000113e-04,-8.000000000000000654e-05,1.000000000000000082e-05,4.000000000000000000e+00,1.900000000000000000e+01
3.856700000000000000e+04,0.000000000000000000e+00,-1.000000000000000082e-05,-2.000000000000000164e-05,-2.600000000000000314e-04,-6.300000000000000261e-04,-1.800000000000000113e-04,-8.000000000000000654e-05,1.000000000000000082e-05,4.000000000000000000e+00,1.900000000000000000e+01
3.856800000000000000e+04,0.000000000000000000e+00,-1.000000000000000082e-05,-2.000000000000000164e-05,-2.600000000000000314e-04,-6.300000000000000261e-04,-1.800000000000000113e-04,-8.000000000000000654e-05,1.000000000000000082e-05,4.000000000000000000e+00,1.900000000000000000e+01
3.856900000000000000e+04,0.000000000000000000e+00,-1.000000000000000082e-05,-2.000000000000000164e-05,-2.600000000000000314e-04,-6.300000000000000261e-04,-1.800000000000000113e-04,-8.000000000000000654e-05,1.000000000000000082e-05,4.000000000000000000e+00,1.900000000000000000e+01
3.857000000000000000e+04,0.000000000000000000e+00,-1.000000000000000082e-05,-2.000000000000000164e-05,-2.600000000000000314e-04,-6.300000000000000261e-04,-1.800000000000000113e-04,-8.000000000000000654e-05,1.000000000000000082e-05,4.000000000000000000e+00,1.900000000000000000e+01
3.857100000000000000e+04,0.000000000000000000e+00,-1.000000000000000082e-05,-2.000000000000000164e-05,-2.600000000000000314e-04,-6.300000000000000261e-04,-1.800000000000000113e-04,-8.000000000000000654e-05,1.000000000000000082e-05,4.000000000000000000e+00,1.900000000000000000e+01
3.857200000000000000e+04,0.000000000000000000e+00,-1.000000000000000082e-05,-2.000000000000000164e-05,-2.600000000000000314e-04,-6.300000000000000261e-04,-1.800000000000000113e-04,-8.000000000000000654e-05,1.000000000000000082e-05,4.000000000000000000e+00,1.900000000000000000e+01
3.857300000000000000e+04,0.000000000000000000e+00,-1.000000000000000082e-05,-2.000000000000000164e-05,-2.600000000000000314e-04,-6.300000000000000261e-04,-1.800000000000000113e-04,-8.000000000000000654e-05,1.000000000000000082e-05,4.000000000000000000e+00,1.900000000000000000e+01
3.857400000000000000e+04,0.000000000000000000e+00,-1.000000000000000082e-05,-2.000000000000000164e-05,-2.600000000000000314e-04,-6.300000000000000261e-04,-1.800000000000000113e-04,-8.000000000000000654e-05,1.000000000000000082e-05,4.000000000000000000e+00,1.900000000000000000e+01
3.857500000000000000e+04,0.000000000000000000e+00,-1.000000000000000082e-05,-2.000000000000000164e-05,-2.600000000000000314e-04,-6.300000000000000261e-04,-1.800000000000000113e-04,-8.000000000000000654e-05,1.000000000000000082e-05,4.000000000000000000e+00,1.900000000000000000e+01
3.857600000000000000e+04,0.000000000000000000e+00,-1.000000000000000082e-05,-2.000000000000000164e-05,-2.600000000000000314e-04,-6.300000000000000261e-04,-1.800000000000000113e-04,-8.000000000000000654e-05,1.000000000000000082e-05,4.000000000000000000e+00,1.900000000000000000e+01
3.857700000000000000e+04,0.000000000000000000e+00,-1.000000000000000082e-05,-2.000000000000000164e-05,-2.600000000000000314e-04,-6.300000000000000261e-04,-1.800000000000000113e-04,-8.000000000000000654e-05,1.000000000000000082e-05,4.000000000000000000e+00,1.900000000000000000e+01
3.857800000000000000e+04,0.000000000000000000e+00,-1.000000000000000082e-05,-2.000000000000000164e-05,-2.600000000000000314e-04,-6.300000000000000261e-04,-1.800000000000000113e-04,-8.000000000000000654e-05,1.000000000000000082e-05,4.000000000000000000e+00,1.900000000000000000e+01
