4.478300000000000000e+04,1.100000000000000039e-04,1.800000000000000113e-04,-1.499999999999999869e-04,-1.899999999999999834e-04,-6.999999999999999387e-05,-2.999999999999999737e-05,-1.000000000000000082e-05,2.000000000000000164e-05,5.000000000000000000e+00,2.100000000000000000e+01
4.478400000000000000e+04,1.100000000000000039e-04,1.800000000000000113e-04,-1.499999999999999869e-04,-1.899999999999999834e-04,-6.999999999999999387e-05,-2.999999999999999737e-05,-1.000000000000000082e-05,2.000000000000000164e-05,5.000000000000000000e+00,2.100000000000000000e+01
4.478500000000000000e+04,1.100000000000000039e-04,1.800000000000000113e-04,-1.499999999999999869e-04,-1.899999999999999834e-04,-6.999999999999999387e-05,-2.999999999999999737e-05,-1.000000000000000082e-05,2.000000000000000164e-05,5.000000000000000000e+00,2.100000000000000000e+01
4.478600000000000000e+04,1.100000000000000039e-04,1.800000000000000113e-04,-1.499999999999999869e-04,-1.899999999999999834e-04,-6.999999999999999387e-05,-2.999999999999999737e-05,-1.000000000000000082e-05,2.000000000000000164e-05,5.000000000000000000e+00,2.100000000000000000e+01
4.478900000000000000e+04,1.499999999999999869e-04,-5.999999999999999474e-05,4.299999999999999894e-04,4.200000000000000174e-04,1.209999999999999921e-03,7.500000000000000156e-04,3.699999999999999947e-04,1.899999999999999834e-04,5.000000000000000000e+00,2.100000000000000000e+01
4.479000000000000000e+04,1.499999999999999869e-04,-5.999999999999999474e-05,4.299999999999999894e-04,4.200000000000000174e-04,1.209999999999999921e-03,7.500000000000000156e-04,3.699999999999999947e-04,1.899999999999999834e-04,5.000000000000000000e+00,2.100000000000000000e+01
4.479100000000000000e+04,1.499999999999999869e-04,-5.999999999999999474e-05,4.299999999999999894e-04,4.200000000000000174e-04,1.209999999999999921e-03,7.500000000000000156e-04,3.699999999999999947e-04,1.899999999999999834e-04,5.000000000000000000e+00,2.100000000000000000e+01
4.479200000000000000e+04,1.499999999999999869e-04,-5.999999999999999474e-05,4.299999999999999894e-04,4.200000000000000174e-04,1.209999999999999921e-03,7.500000000000000156e-04,3.699999999999999947e-04,1.899999999999999834e-04,5.000000000000000000e+00,2.100000000000000000e+01
4.479300000000000000e+04,1.499999999999999869e-04,-5.999999999999999474e-05,4.299999999999999894e-04,4.200000000000000174e-04,1.209999999999999921e-03,7.500000000000000156e-04,3.699999999999999947e-04,1.899999999999999834e-04,5.000000000000000000e+00,2.100000000000000000e+01
4.479400000000000000e+04,1.499999999999999869e-04,-5.999999999999999474e-05,4.299999999999999894e-04,4.200000000000000174e-04,1.209999999999999921e-03,7.500000000000000156e-04,3.699999999999999947e-04,1.899999999999999834e-04,5.000000000000000000e+00,2.100000000000000000e+01
4.479500000000000000e+04,1.499999999999999869e-04,-5.999999999999999474e-05,4.299999999999999894e-04,4.200000000000000174e-04,1.209999999999999921e-03,7.500000000000000156e-04,3.699999999999999947e-04,1.899999999999999834e-04,5.000000000000000000e+00,2.100000000000000000e+01
4.479600000000000000e+04,1.499999999999999869e-04,-5.999999999999999474e-05,4.299999999999999894e-04,4.200000000000000174e-04,1.209999999999999921e-03,7.500000000000000156e-04,3.699999999999999947e-04,1.899999999999999834e-04,5.000000000000000000e+00,2.100000000000000000e+01
4.479700000000000000e+04,1.499999999999999869e-04,-5.999999999999999474e-05,4.299999999999999894e-04,4.200000000000000174e-04,1.209999999999999921e-03,7.500000000000000156e-04,3.699999999999999947e-04,1.899999999999999834e-04,5.000000000000000000e+00,2.100000000000000000e+01
4.479800000000000000e+04,1.499999999999999869e-04,-5.999999999999999474e-05,4.299999999999999894e-04,4.200000000000000174e-04,1.209999999999999921e-03,7.500000000000000156e-04,3.699999999999999947e-04,1.899999999999999834e-04,5.000000000000000000e+00,2.100000000000000000e+01
4.479900000000000000e+04,1.499999999999999869e-04,-5.999999999999999474e-05,4.299999999999999894e-04,4.200000000000000174e-04,1.209999999999999921e-03,7.500000000000000156e-04,3.699999999999999947e-04,1.899999999999999834e-04,5.000000000000000000e+00,2.100000000000000000e+01
4.480000000000000000e+04,1.499999999999999869e-04,-5.999999999999999474e-05,4.299999999999999894e-04,4.200000000000000174e-04,1.209999999999999921e-03,7.500000000000000156e-04,3.699999999999999947e-04,1.899999999999999834e-04,5.000000000000000000e+00,2.100000000000000000e+01
4.480100000000000000e+04,1.499999999999999869e-04,-5.999999999999999474e-05,4.299999999999999894e-04,4.200000000000000174e-04,1.209999999999999921e-03,7.500000000000000156e-04,3.699999999999999947e-04,1.899999999999999834e-04,5.000000000000000000e+00,2.100000000000000000e+01
4.480200000000000000e+04,1.499999999999999869e-04,-5.999999999999999474e-05,4.299999999999999894e-04,4.200000000000000174e-04,1.209999999999999921e-03,7.500000000000000156e-04,3.699999999999999947e-04,1.899999999999999834e-04,5.000000000000000000e+00,2.100000000000000000e+01
4.480300000000000000e+04,-1.100000000000000039e-04,-6.999999999999999387e-05,-5.999999999999999474e-05,2.999999999999999737e-05,-8.000000000000000654e-05,-1.300000000000000157e-04,-1.300000000000000157e-04,-5.000000000000000240e-05,5.000000000000000000e+00,2.100000000000000000e+01
4.480400000000000000e+04,4.000000000000000327e-05,9.000000000000000567e-05,2.200000000000000078e-04,5.400000000000000069e-04,-3.099999999999999999e-04,9.000000000000000567e-05,2.999999999999999737e-05,-1.000000000000000082e-05,5.000000000000000000e+00,2.100000000000000000e+01
4.480500000000000000e+04,4.000000000000000327e-05,9.000000000000000567e-05,2.200000000000000078e-04,5.400000000000000069e-04,-3.099999999999999999e-04,9.000000000000000567e-05,2.999999999999999737e-05,-1.000000000000000082e-05,5.000000000000000000e+00,2.100000000000000000e+01
4.480600000000000000e+04,4.000000000000000327e-05,9.000000000000000567e-05,2.200000000000000078e-04,5.400000000000000069e-04,-3.099999999999999999e-04,9.000000000000000567e-05,2.999999999999999737e-05,-1.000000000000000082e-05,5.000000000000000000e+00,2.100000000000000000e+01
4.480700000000000000e+04,4.000000000000000327e-05,9.000000000000000567e-05,2.200000000000000078e-04,5.400000000000000069e-04,-3.099999999999999999e-04,9.000000000000000567e-05,2.999999999999999737e-05,-1.000000000000000082e-05,5.000000000000000000e+00,2.100000000000000000e+01
4.480800000000000000e+04,4.000000000000000327e-05,9.000000000000000567e-05,2.200000000000000078e-04,5.400000000000000069e-04,-3.099999999999999999e-04,9.000000000000000567e-05,2.999999999999999737e-05,-1.000000000000000082e-05,5.000000000000000000e+00,2.100000000000000000e+01
4.480900000000000000e+04,4.000000000000000327e-05,9.000000000000000567e-05,2.200000000000000078e-04,5.400000000000000069e-04,-3.099999999999999999e-04,9.000000000000000567e-05,2.999999999999999737e-05,-1.000000000000000082e-05,5.000000000000000000e+00,2.100000000000000000e+01
4.481000000000000000e+04,4.000000000000000327e-05,9.000000000000000567e-05,2.200000000000000078e-04,5.400000000000000069e-04,-3.099999999999999999e-04,9.000000000000000567e-05,2.999999999999999737e-05,-1.000000000000000082e-05,5.000000000000000000e+00,2.100000000000000000e+01
4.481100000000000000e+04,4.000000000000000327e-05,9.000000000000000567e-05,2.200000000000000078e-04,5.400000000000000069e-04,-3.099999999999999999e-04,9.000000000000000567e-05,2.999999999999999737e-05,-1.000000000000000082e-05,5.000000000000000000e+00,2.100000000000000000e+01
4.481200000000000000e+04,4.000000000000000327e-05,9.000000000000000567e-05,2.200000000000000078e-04,5.400000000000000069e-04,-3.099999999999999999e-04,9.000000000000000567e-05,2.999999999999999737e-05,-1.000000000000000082e-05,5.000000000000000000e+00,2.100000000000000000e+01
4.481300000000000000e+04,4.000000000000000327e-05,9.000000000000000567e-05,2.200000000000000078e-04,5.400000000000000069e-04,-3.099999999999999999e-04,9.000000000000000567e-05,2.999999999999999737e-05,-1.000000000000000082e-05,5.000000000000000000e+00,2.100000000000000000e+01
4.481400000000000000e+04,4.000000000000000327e-05,9.000000000000000567e-05,2.200000000000000078e-04,5.400000000000000069e-04,-3.099999999999999999e-04,9.000000000000000567e-05,2.999999999999999737e-05,-1.000000000000000082e-05,5.000000000000000000e+00,2.100000000000000000e+01
4.481500000000000000e+04,4.000000000000000327e-05,9.000000000000000567e-05,2.200000000000000078e-04,5.400000000000000069e-04,-3.099999999999999999e-04,9.000000000000000567e-05,2.999999999999999737e-05,-1.000000000000000082e-05,5.000000000000000000e+00,2.100000000000000000e+01
4.481600000000000000e+04,4.000000000000000327e-05,9.000000000000000567e-05,2.200000000000000078e-04,5.400000000000000069e-04,-3.099999999999999999e-04,9.000000000000000567e-05,2.999999999999999737e-05,-1.000000000000000082e-05,5.000000000000000000e+00,2.100000000000000000e+01
4.481700000000000000e+04,4.000000000000000327e-05,9.000000000000000567e-05,2.200000000000000078e-04,5.400000000000000069e-04,-3.099999999999999999e-04,9.000000000000000567e-05,2.999999999999999737e-05,-1.000000000000000082e-05,5.000000000000000000e+00,2.100000000000000000e+01
4.481900000000000000e+04,-6.999999999999999387e-05,-8.000000000000000654e-05,-3.099999999999999999e-04,-3.799999999999999667e-04,-1.499999999999999869e-04,-1.699999999999999851e-04,-1.199999999999999895e-04,-5.999999999999999474e-05,5.000000000000000000e+00,2.100000000000000000e+01
4.482000000000000000e+04,-6.999999999999999387e-05,-8.000000000000000654e-05,-3.099999999999999999e-04,-3.799999999999999667e-04,-1.499999999999999869e-04,-1.699999999999999851e-04,-1.199999999999999895e-04,-5.999999999999999474e-05,5.000000000000000000e+00,2.100000000000000000e+01
4.482100000000000000e+04,-6.999999999999999387e-05,-8.000000000000000654e-05,-3.099999999999999999e-04,-3.799999999999999667e-04,-1.499999999999999869e-04,-1.699999999999999851e-04,-1.199999999999999895e-04,-5.999999999999999474e-05,5.000000000000000000e+00,2.100000000000000000e+01
4.482200000000000000e+04,-6.999999999999999387e-05,-8.000000000000000654e-05,-3.099999999999999999e-04,-3.799999999999999667e-04,-1.499999999999999869e-04,-1.699999999999999851e-04,-1.199999999999999895e-04,-5.999999999999999474e-05,5.000000000000000000e+00,2.100000000000000000e+01
4.482300000000000000e+04,-6.999999999999999387e-05,-8.000000000000000654e-05,-3.099999999999999999e-04,-3.799999999999999667e-04,-1.499999999999999869e-04,-1.699999999999999851e-04,-1.199999999999999895e-04,-5.999999999999999474e-05,5.000000000000000000e+00,2.100000000000000000e+01
4.482400000000000000e+04,-6.999999999999999387e-05,-8.000000000000000654e-05,-3.099999999999999999e-04,-3.799999999999999667e-04,-1.499999999999999869e-04,-1.699999999999999851e-04,-1.199999999999999895e-04,-5.999999999999999474e-05,5.000000000000000000e+00,2.100000000000000000e+01
4.482500000000000000e+04,-6.999999999999999387e-05,-8.000000000000000654e-05,-3.099999999999999999e-04,-3.799999999999999667e-04,-1.499999999999999869e-04,-1.699999999999999851e-04,-1.199999999999999895e-04,-5.999999999999999474e-05,5.000000000000000000e+00,2.100000000000000000e+01
4.482600000000000000e+04,-6.999999999999999387e-05,-8.000000000000000654e-05,-3.099999999999999999e-04,-3.799999999999999667e-04,-1.499999999999999869e-04,-1.699999999999999851e-04,-1.199999999999999895e-04,-5.999999999999999474e-05,5.000000000000000000e+00,2.100000000000000000e+01
4.482700000000000000e+04,4.000000000000000327e-05,2.000000000000000096e-04,5.999999999999999474e-05,-2.200000000000000078e-04,-3.099999999999999999e-04,-2.999999999999999737e-04,-1.300000000000000157e-04,-6.999999999999999387e-05,5.000000000000000000e+00,2.100000000000000000e+01
4.482800000000000000e+04,4.000000000000000327e-05,2.000000000000000096e-04,5.999999999999999474e-05,-2.200000000000000078e-04,-3.099999999999999999e-04,-2.999999999999999737e-04,-1.300000000000000157e-04,-6.999999999999999387e-05,5.000000000000000000e+00,2.100000000000000000e+01
4.482900000000000000e+04,-8.000000000000000654e-05,0.000000000000000000e+00,1.199999999999999895e-04,-2.200000000000000078e-04,-8.000000000000000383e-04,-2.500000000000000052e-04,-4.000000000000000327e-05,-5.999999999999999474e-05,5.000000000000000000e+00,2.100000000000000000e+01
4.483000000000000000e+04,-8.000000000000000654e-05,0.000000000000000000e+00,1.199999999999999895e-04,-2.200000000000000078e-04,-8.000000000000000383e-04,-2.500000000000000052e-04,-4.000000000000000327e-05,-5.999999999999999474e-05,5.000000000000000000e+00,2.100000000000000000e+01
4.483100000000000000e+04,-8.000000000000000654e-05,0.000000000000000000e+00,1.199999999999999895e-04,-2.200000000000000078e-04,-8.000000000000000383e-04,-2.500000000000000052e-04,-4.000000000000000327e-05,-5.999999999999999474e-05,5.000000000000000000e+00,2.100000000000000000e+01
4.483200000000000000e+04,-8.000000000000000654e-05,0.000000000000000000e+00,1.199999999999999895e-04,-2.200000000000000078e-04,-8.000000000000000383e-04,-2.500000000000000052e-04,-4.000000000000000327e-05,-5.999999999999999474e-05,5.000000000000000000e+00,2.100000000000000000e+01
4.483300000000000000e+04,-8.000000000000000654e-05,0.000000000000000000e+00,1.199999999999999895e-04,-2.200000000000000078e-04,-8.000000000000000383e-04,-2.500000000000000052e-04,-4.000000000000000327e-05,-5.999999999999999474e-05,5.000000000000000000e+00,2.100000000000000000e+01
4.483400000000000000e+04,-8.000000000000000654e-05,0.000000000000000000e+00,1.199999999999999895e-04,-2.200000000000000078e-04,-8.000000000000000383e-04,-2.500000000000000052e-04,-4.000000000000000327e-05,-5.999999999999999474e-05,5.000000000000000000e+00,2.100000000000000000e+01
4.483500000000000000e+04,-8.000000000000000654e-05,0.000000000000000000e+00,1.199999999999999895e-04,-2.200000000000000078e-04,-8.000000000000000383e-04,-2.500000000000000052e-04,-4.000000000000000327e-05,-5.999999999999999474e-05,5.000000000000000000e+00,2.100000000000000000e+01
4.483700000000000000e+04,-8.000000000000000654e-05,0.000000000000000000e+00,1.199999999999999895e-04,-2.200000000000000078e-04,-8.000000000000000383e-04,-2.500000000000000052e-04,-4.000000000000000327e-05,-5.999999999999999474e-05,5.000000000000000000e+00,2.100000000000000000e+01
4.483900000000000000e+04,-8.000000000000000654e-05,0.000000000000000000e+00,1.199999999999999895e-04,-2.200000000000000078e-04,-8.000000000000000383e-04,-2.500000000000000052e-04,-4.000000000000000327e-05,-5.999999999999999474e-05,5.000000000000000000e+00,2.100000000000000000e+01
4.484000000000000000e+04,-8.000000000000000654e-05,0.000000000000000000e+00,1.199999999999999895e-04,-2.200000000000000078e-04,-8.000000000000000383e-04,-2.500000000000000052e-04,-4.000000000000000327e-05,-5.999999999999999474e-05,5.000000000000000000e+00,2.100000000000000000e+01
4.484100000000000000e+04,-1.000000000000000082e-05,-5.000000000000000240e-05,3.799999999999999667e-04,1.010000000000000047e-03,1.499999999999999869e-04,-4.000000000000000327e-05,-5.000000000000000240e-05,-1.000000000000000082e-05,5.000000000000000000e+00,2.100000000000000000e+01
4.484200000000000000e+04,-1.000000000000000082e-05,-5.000000000000000240e-05,3.799999999999999667e-04,1.010000000000000047e-03,1.499999999999999869e-04,-4.000000000000000327e-05,-5.000000000000000240e-05,-1.000000000000000082e-05,5.000000000000000000e+00,2.100000000000000000e+01
4.484300000000000000e+04,-1.000000000000000082e-05,-5.000000000000000240e-05,3.799999999999999667e-04,1.010000000000000047e-03,1.499999999999999869e-04,-4.000000000000000327e-05,-5.000000000000000240e-05,-1.000000000000000082e-05,5.000000000000000000e+00,2.100000000000000000e+01
4.484400000000000000e+04,-1.000000000000000082e-05,-5.000000000000000240e-05,3.799999999999999667e-04,1.010000000000000047e-03,1.499999999999999869e-04,-4.000000000000000327e-05,-5.000000000000000240e-05,-1.000000000000000082e-05,5.000000000000000000e+00,2.100000000000000000e+01
4.484500000000000000e+04,-1.000000000000000082e-05,-5.000000000000000240e-05,3.799999999999999667e-04,1.010000000000000047e-03,1.499999999999999869e-04,-4.000000000000000327e-05,-5.000000000000000240e-05,-1.000000000000000082e-05,5.000000000000000000e+00,2.100000000000000000e+01
4.484600000000000000e+04,-1.000000000000000082e-05,-5.000000000000000240e-05,3.799999999999999667e-04,1.010000000000000047e-03,1.499999999999999869e-04,-4.000000000000000327e-05,-5.000000000000000240e-05,-1.000000000000000082e-05,5.000000000000000000e+00,2.100000000000000000e+01
4.484700000000000000e+04,-1.000000000000000082e-05,-5.000000000000000240e-05,3.799999999999999667e-04,1.010000000000000047e-03,1.499999999999999869e-04,-4.000000000000000327e-05,-5.000000000000000240e-05,-1.000000000000000082e-05,5.000000000000000000e+00,2.100000000000000000e+01
4.484800000000000000e+04,2.999999999999999737e-05,5.999999999999999474e-05,-4.000000000000000327e-05,4.400000000000000157e-04,5.400000000000000069e-04,2.299999999999999799e-04,4.000000000000000327e-05,1.000000000000000082e-05,5.000000000000000000e+00,2.100000000000000000e+01
4.484900000000000000e+04,2.999999999999999737e-05,5.999999999999999474e-05,-4.000000000000000327e-05,4.400000000000000157e-04,5.400000000000000069e-04,2.299999999999999799e-04,4.000000000000000327e-05,1.000000000000000082e-05,5.000000000000000000e+00,2.100000000000000000e+01
4.485000000000000000e+04,2.999999999999999737e-05,5.999999999999999474e-05,-4.000000000000000327e-05,4.400000000000000157e-04,5.400000000000000069e-04,2.299999999999999799e-04,4.000000000000000327e-05,1.000000000000000082e-05,5.000000000000000000e+00,2.100000000000000000e+01
4.485100000000000000e+04,2.999999999999999737e-05,5.999999999999999474e-05,-4.000000000000000327e-05,4.400000000000000157e-04,5.400000000000000069e-04,2.299999999999999799e-04,4.000000000000000327e-05,1.000000000000000082e-05,5.000000000000000000e+00,2.100000000000000000e+01
4.485300000000000000e+04,2.999999999999999737e-05,5.999999999999999474e-05,-4.000000000000000327e-05,4.400000000000000157e-04,5.400000000000000069e-04,2.299999999999999799e-04,4.000000000000000327e-05,1.000000000000000082e-05,5.000000000000000000e+00,2.100000000000000000e+01
4.485400000000000000e+04,2.999999999999999737e-05,5.999999999999999474e-05,-4.000000000000000327e-05,4.400000000000000157e-04,5.400000000000000069e-04,2.299999999999999799e-04,4.000000000000000327e-05,1.000000000000000082e-05,5.000000000000000000e+00,2.100000000000000000e+01
4.485500000000000000e+04,2.999999999999999737e-05,5.999999999999999474e-05,-4.000000000000000327e-05,4.400000000000000157e-04,5.400000000000000069e-04,2.299999999999999799e-04,4.000000000000000327e-05,1.000000000000000082e-05,5.000000000000000000e+00,2.100000000000000000e+01
4.485600000000000000e+04,2.999999999999999737e-05,5.999999999999999474e-05,-4.000000000000000327e-05,4.400000000000000157e-04,5.400000000000000069e-04,2.299999999999999799e-04,4.000000000000000327e-05,1.000000000000000082e-05,5.000000000000000000e+00,2.100000000000000000e+01
4.485700000000000000e+04,2.999999999999999737e-05,5.999999999999999474e-05,-4.000000000000000327e-05,4.400000000000000157e-04,5.400000000000000069e-04,2.299999999999999799e-04,4.000000000000000327e-05,1.000000000000000082e-05,5.000000000000000000e+00,2.100000000000000000e+01
4.485800000000000000e+04,2.999999999999999737e-05,5.999999999999999474e-05,-4.000000000000000327e-05,4.400000000000000157e-04,5.400000000000000069e-04,2.299999999999999799e-04,4.000000000000000327e-05,1.000000000000000082e-05,5.000000000000000000e+00,2.100000000000000000e+01
4.485900000000000000e+04,2.999999999999999737e-05,5.999999999999999474e-05,-4.000000000000000327e-05,4.400000000000000157e-04,5.400000000000000069e-04,2.299999999999999799e-04,4.000000000000000327e-05,1.000000000000000082e-05,5.000000000000000000e+00,2.100000000000000000e+01
4.486000000000000000e+04,2.999999999999999737e-05,5.999999999999999474e-05,-4.000000000000000327e-05,4.400000000000000157e-04,5.400000000000000069e-04,2.299999999999999799e-04,4.000000000000000327e-05,1.000000000000000082e-05,5.000000000000000000e+00,2.100000000000000000e+01
4.486100000000000000e+04,2.999999999999999737e-05,5.999999999999999474e-05,-4.000000000000000327e-05,4.400000000000000157e-04,5.400000000000000069e-04,2.299999999999999799e-04,4.000000000000000327e-05,1.000000000000000082e-05,5.000000000000000000e+00,2.100000000000000000e+01
4.486200000000000000e+04,2.999999999999999737e-05,5.999999999999999474e-05,-4.000000000000000327e-05,4.400000000000000157e-04,5.400000000000000069e-04,2.299999999999999799e-04,4.000000000000000327e-05,1.000000000000000082e-05,5.000000000000000000e+00,2.100000000000000000e+01
4.486300000000000000e+04,2.999999999999999737e-05,5.999999999999999474e-05,-4.000000000000000327e-05,4.400000000000000157e-04,5.400000000000000069e-04,2.299999999999999799e-04,4.000000000000000327e-05,1.000000000000000082e-05,5.000000000000000000e+00,2.100000000000000000e+01
4.486400000000000000e+04,-1.499999999999999869e-04,-9.000000000000000567e-05,-2.399999999999999790e-04,-2.600000000000000314e-04,-9.899999999999999946e-04,-5.500000000000000331e-04,-1.899999999999999834e-04,-6.999999999999999387e-05,5.000000000000000000e+00,2.100000000000000000e+01
4.486500000000000000e+04,-1.399999999999999877e-04,-1.899999999999999834e-04,-1.800000000000000113e-04,-1.100000000000000039e-04,9.400000000000000803e-04,8.199999999999999824e-04,2.299999999999999799e-04,1.000000000000000082e-05,5.000000000000000000e+00,2.100000000000000000e+01
4.486600000000000000e+04,-5.000000000000000240e-05,-2.299999999999999799e-04,1.300000000000000157e-04,-1.899999999999999834e-04,-2.500000000000000052e-04,-1.800000000000000113e-04,-1.100000000000000039e-04,6.999999999999999387e-05,5.000000000000000000e+00,2.100000000000000000e+01
4.486700000000000000e+04,-5.000000000000000240e-05,-2.299999999999999799e-04,1.300000000000000157e-04,-1.899999999999999834e-04,-2.500000000000000052e-04,-1.800000000000000113e-04,-1.100000000000000039e-04,6.999999999999999387e-05,5.000000000000000000e+00,2.100000000000000000e+01
4.486800000000000000e+04,-5.000000000000000240e-05,-2.299999999999999799e-04,1.300000000000000157e-04,-1.899999999999999834e-04,-2.500000000000000052e-04,-1.800000000000000113e-04,-1.100000000000000039e-04,6.999999999999999387e-05,5.000000000000000000e+00,2.100000000000000000e+01
4.486900000000000000e+04,-5.000000000000000240e-05,-2.299999999999999799e-04,1.300000000000000157e-04,-1.899999999999999834e-04,-2.500000000000000052e-04,-1.800000000000000113e-04,-1.100000000000000039e-04,6.999999999999999387e-05,5.000000000000000000e+00,2.100000000000000000e+01
4.487000000000000000e+04,-5.000000000000000240e-05,-2.299999999999999799e-04,1.300000000000000157e-04,-1.899999999999999834e-04,-2.500000000000000052e-04,-1.800000000000000113e-04,-1.100000000000000039e-04,6.999999999999999387e-05,5.000000000000000000e+00,2.100000000000000000e+01
4.487100000000000000e+04,-5.000000000000000240e-05,-2.299999999999999799e-04,1.300000000000000157e-04,-1.899999999999999834e-04,-2.500000000000000052e-04,-1.800000000000000113e-04,-1.100000000000000039e-04,6.999999999999999387e-05,5.000000000000000000e+00,2.100000000000000000e+01
4.487200000000000000e+04,-5.000000000000000240e-05,-2.299999999999999799e-04,1.300000000000000157e-04,-1.899999999999999834e-04,-2.500000000000000052e-04,-1.800000000000000113e-04,-1.100000000000000039e-04,6.999999999999999387e-05,5.000000000000000000e+00,2.100000000000000000e+01
4.487300000000000000e+04,-5.000000000000000240e-05,-2.299999999999999799e-04,1.300000000000000157e-04,-1.899999999999999834e-04,-2.500000000000000052e-04,-1.800000000000000113e-04,-1.100000000000000039e-04,6.999999999999999387e-05,5.000000000000000000e+00,2.100000000000000000e+01
4.487400000000000000e+04,-5.000000000000000240e-05,-2.299999999999999799e-04,1.300000000000000157e-04,-1.899999999999999834e-04,-2.500000000000000052e-04,-1.800000000000000113e-04,-1.100000000000000039e-04,6.999999999999999387e-05,5.000000000000000000e+00,2.100000000000000000e+01
4.487500000000000000e+04,-5.000000000000000240e-05,-2.299999999999999799e-04,1.300000000000000157e-04,-1.899999999999999834e-04,-2.500000000000000052e-04,-1.800000000000000113e-04,-1.100000000000000039e-04,6.999999999999999387e-05,5.000000000000000000e+00,2.100000000000000000e+01
4.487600000000000000e+04,-5.000000000000000240e-05,-2.299999999999999799e-04,1.300000000000000157e-04,-1.899999999999999834e-04,-2.500000000000000052e-04,-1.800000000000000113e-04,-1.100000000000000039e-04,6.999999999999999387e-05,5.000000000000000000e+00,2.100000000000000000e+01
4.487700000000000000e+04,-5.000000000000000240e-05,-2.299999999999999799e-04,1.300000000000000157e-04,-1.899999999999999834e-04,-2.500000000000000052e-04,-1.800000000000000113e-04,-1.100000000000000039e-04,6.999999999999999387e-05,5.000000000000000000e+00,2.100000000000000000e+01
4.487800000000000000e+04,-5.000000000000000240e-05,-2.299999999999999799e-04,1.300000000000000157e-04,-1.899999999999999834e-04,-2.500000000000000052e-04,-1.800000000000000113e-04,-1.100000000000000039e-04,6.999999999999999387e-05,5.000000000000000000e+00,2.100000000000000000e+01
4.487900000000000000e+04,-5.000000000000000240e-05,-2.299999999999999799e-04,1.300000000000000157e-04,-1.899999999999999834e-04,-2.500000000000000052e-04,-1.800000000000000113e-04,-1.100000000000000039e-04,6.999999999999999387e-05,5.000000000000000000e+00,2.100000000000000000e+01
4.488000000000000000e+04,-5.000000000000000240e-05,-2.299999999999999799e-04,1.300000000000000157e-04,-1.899999999999999834e-04,-2.500000000000000052e-04,-1.800000000000000113e-04,-1.100000000000000039e-04,6.999999999999999387e-05,5.000000000000000000e+00,2.100000000000000000e+01
4.488100000000000000e+04,-5.000000000000000240e-05,-2.299999999999999799e-04,1.300000000000000157e-04,-1.899999999999999834e-04,-2.500000000000000052e-04,-1.800000000000000113e-04,-1.100000000000000039e-04,6.999999999999999387e-05,5.000000000000000000e+00,2.100000000000000000e+01
4.488200000000000000e+04,-5.000000000000000240e-05,-2.299999999999999799e-04,1.300000000000000157e-04,-1.899999999999999834e-04,-2.500000000000000052e-04,-1.800000000000000113e-04,-1.100000000000000039e-04,6.999999999999999387e-05,5.000000000000000000e+00,2.100000000000000000e+01
4.488300000000000000e+04,-5.000000000000000240e-05,-2.299999999999999799e-04,1.300000000000000157e-04,-1.899999999999999834e-04,-2.500000000000000052e-04,-1.800000000000000113e-04,-1.100000000000000039e-04,6.999999999999999387e-05,5.000000000000000000e+00,2.100000000000000000e+01
4.488400000000000000e+04,-5.000000000000000240e-05,-2.299999999999999799e-04,1.300000000000000157e-04,-1.899999999999999834e-04,-2.500000000000000052e-04,-1.800000000000000113e-04,-1.100000000000000039e-04,6.999999999999999387e-05,5.000000000000000000e+00,2.100000000000000000e+01
4.488500000000000000e+04,-5.000000000000000240e-05,-2.299999999999999799e-04,1.300000000000000157e-04,-1.899999999999999834e-04,-2.500000000000000052e-04,-1.800000000000000113e-04,-1.100000000000000039e-04,6.999999999999999387e-05,5.000000000000000000e+00,2.100000000000000000e+01
4.488700000000000000e+04,1.000000000000000082e-05,0.000000000000000000e+00,-4.000000000000000327e-05,-2.500000000000000052e-04,3.600000000000000227e-04,6.799999999999999404e-04,3.299999999999999982e-04,1.100000000000000039e-04,5.000000000000000000e+00,2.100000000000000000e+01
4.488900000000000000e+04,2.999999999999999737e-05,2.900000000000000017e-04,-1.600000000000000131e-04,-2.999999999999999737e-04,1.800000000000000113e-04,-4.700000000000000401e-04,-2.700000000000000035e-04,-9.000000000000000567e-05,5.000000000000000000e+00,2.100000000000000000e+01
4.489000000000000000e+04,2.999999999999999737e-05,2.900000000000000017e-04,-1.600000000000000131e-04,-2.999999999999999737e-04,1.800000000000000113e-04,-4.700000000000000401e-04,-2.700000000000000035e-04,-9.000000000000000567e-05,5.000000000000000000e+00,2.100000000000000000e+01
4.489100000000000000e+04,2.999999999999999737e-05,2.900000000000000017e-04,-1.600000000000000131e-04,-2.999999999999999737e-04,1.800000000000000113e-04,-4.700000000000000401e-04,-2.700000000000000035e-04,-9.000000000000000567e-05,5.000000000000000000e+00,2.100000000000000000e+01
4.489200000000000000e+04,2.999999999999999737e-05,2.900000000000000017e-04,-1.600000000000000131e-04,-2.999999999999999737e-04,1.800000000000000113e-04,-4.700000000000000401e-04,-2.700000000000000035e-04,-9.000000000000000567e-05,5.000000000000000000e+00,2.100000000000000000e+01
4.489300000000000000e+04,2.999999999999999737e-05,2.900000000000000017e-04,-1.600000000000000131e-04,-2.999999999999999737e-04,1.800000000000000113e-04,-4.700000000000000401e-04,-2.700000000000000035e-04,-9.000000000000000567e-05,5.000000000000000000e+00,2.100000000000000000e+01
4.489400000000000000e+04,2.999999999999999737e-05,2.900000000000000017e-04,-1.600000000000000131e-04,-2.999999999999999737e-04,1.800000000000000113e-04,-4.700000000000000401e-04,-2.700000000000000035e-04,-9.000000000000000567e-05,5.000000000000000000e+00,2.100000000000000000e+01
4.489500000000000000e+04,2.999999999999999737e-05,2.900000000000000017e-04,-1.600000000000000131e-04,-2.999999999999999737e-04,1.800000000000000113e-04,-4.700000000000000401e-04,-2.700000000000000035e-04,-9.000000000000000567e-05,5.000000000000000000e+00,2.100000000000000000e+01
4.489600000000000000e+04,2.999999999999999737e-05,2.900000000000000017e-04,-1.600000000000000131e-04,-2.999999999999999737e-04,1.800000000000000113e-04,-4.700000000000000401e-04,-2.700000000000000035e-04,-9.000000000000000567e-05,5.000000000000000000e+00,2.100000000000000000e+01
4.489700000000000000e+04,2.999999999999999737e-05,2.900000000000000017e-04,-1.600000000000000131e-04,-2.999999999999999737e-04,1.800000000000000113e-04,-4.700000000000000401e-04,-2.700000000000000035e-04,-9.000000000000000567e-05,5.000000000000000000e+00,2.100000000000000000e+01
4.489800000000000000e+04,2.999999999999999737e-05,2.900000000000000017e-04,-1.600000000000000131e-04,-2.999999999999999737e-04,1.800000000000000113e-04,-4.700000000000000401e-04,-2.700000000000000035e-04,-9.000000000000000567e-05,5.000000000000000000e+00,2.100000000000000000e+01
4.489900000000000000e+04,2.999999999999999737e-05,2.900000000000000017e-04,-1.600000000000000131e-04,-2.999999999999999737e-04,1.800000000000000113e-04,-4.700000000000000401e-04,-2.700000000000000035e-04,-9.000000000000000567e-05,5.000000000000000000e+00,2.100000000000000000e+01
4.490000000000000000e+04,2.999999999999999737e-05,2.900000000000000017e-04,-1.600000000000000131e-04,-2.999999999999999737e-04,1.800000000000000113e-04,-4.700000000000000401e-04,-2.700000000000000035e-04,-9.000000000000000567e-05,5.000000000000000000e+00,2.100000000000000000e+01
4.490100000000000000e+04,-2.799999999999999755e-04,-3.299999999999999982e-04,-2.500000000000000052e-04,-1.499999999999999869e-04,-2.799999999999999755e-04,1.000000000000000082e-05,0.000000000000000000e+00,-5.000000000000000240e-05,5.000000000000000000e+00,2.100000000000000000e+01
4.490200000000000000e+04,-2.799999999999999755e-04,-3.299999999999999982e-04,-2.500000000000000052e-04,-1.499999999999999869e-04,-2.799999999999999755e-04,1.000000000000000082e-05,0.000000000000000000e+00,-5.000000000000000240e-05,5.000000000000000000e+00,2.100000000000000000e+01
4.490300000000000000e+04,-2.799999999999999755e-04,-3.299999999999999982e-04,-2.500000000000000052e-04,-1.499999999999999869e-04,-2.799999999999999755e-04,1.000000000000000082e-05,0.000000000000000000e+00,-5.000000000000000240e-05,5.000000000000000000e+00,2.100000000000000000e+01
4.490400000000000000e+04,-2.799999999999999755e-04,-3.299999999999999982e-04,-2.500000000000000052e-04,-1.499999999999999869e-04,-2.799999999999999755e-04,1.000000000000000082e-05,0.000000000000000000e+00,-5.000000000000000240e-05,5.000000000000000000e+00,2.100000000000000000e+01
4.490500000000000000e+04,-2.799999999999999755e-04,-3.299999999999999982e-04,-2.500000000000000052e-04,-1.499999999999999869e-04,-2.799999999999999755e-04,1.000000000000000082e-05,0.000000000000000000e+00,-5.000000000000000240e-05,5.000000000000000000e+00,2.100000000000000000e+01
4.490600000000000000e+04,-2.799999999999999755e-04,-3.299999999999999982e-04,-2.500000000000000052e-04,-1.499999999999999869e-04,-2.799999999999999755e-04,1.000000000000000082e-05,0.000000000000000000e+00,-5.000000000000000240e-05,5.000000000000000000e+00,2.100000000000000000e+01
4.490700000000000000e+04,-2.799999999999999755e-04,-3.299999999999999982e-04,-2.500000000000000052e-04,-1.499999999999999869e-04,-2.799999999999999755e-04,1.000000000000000082e-05,0.000000000000000000e+00,-5.000000000000000240e-05,5.000000000000000000e+00,2.100000000000000000e+01
4.490800000000000000e+04,-2.799999999999999755e-04,-3.299999999999999982e-04,-2.500000000000000052e-04,-1.499999999999999869e-04,-2.799999999999999755e-04,1.000000000000000082e-05,0.000000000000000000e+00,-5.000000000000000240e-05,5.000000000000000000e+00,2.100000000000000000e+01
4.490900000000000000e+04,-2.799999999999999755e-04,-3.299999999999999982e-04,-2.500000000000000052e-04,-1.499999999999999869e-04,-2.799999999999999755e-04,1.000000000000000082e-05,0.000000000000000000e+00,-5.000000000000000240e-05,5.000000000000000000e+00,2.100000000000000000e+01
4.491000000000000000e+04,-2.799999999999999755e-04,-3.299999999999999982e-04,-2.500000000000000052e-04,-1.499999999999999869e-04,-2.799999999999999755e-04,1.000000000000000082e-05,0.000000000000000000e+00,-5.000000000000000240e-05,5.000000000000000000e+00,2.100000000000000000e+01
4.491100000000000000e+04,-2.799999999999999755e-04,-3.299999999999999982e-04,-2.500000000000000052e-04,-1.499999999999999869e-04,-2.799999999999999755e-04,1.000000000000000082e-05,0.000000000000000000e+00,-5.000000000000000240e-05,5.000000000000000000e+00,2.100000000000000000e+01
4.491200000000000000e+04,-2.799999999999999755e-04,-3.299999999999999982e-04,-2.500000000000000052e-04,-1.499999999999999869e-04,-2.799999999999999755e-04,1.000000000000000082e-05,0.000000000000000000e+00,-5.000000000000000240e-05,5.000000000000000000e+00,2.100000000000000000e+01
4.491300000000000000e+04,-2.799999999999999755e-04,-3.299999999999999982e-04,-2.500000000000000052e-04,-1.499999999999999869e-04,-2.799999999999999755e-04,1.000000000000000082e-05,0.000000000000000000e+00,-5.000000000000000240e-05,5.000000000000000000e+00,2.100000000000000000e+01
4.491400000000000000e+04,-2.799999999999999755e-04,-3.299999999999999982e-04,-2.500000000000000052e-04,-1.499999999999999869e-04,-2.799999999999999755e-04,1.000000000000000082e-05,0.000000000000000000e+00,-5.000000000000000240e-05,5.000000000000000000e+00,2.100000000000000000e+01
4.491500000000000000e+04,-2.799999999999999755e-04,-3.299999999999999982e-04,-2.500000000000000052e-04,-1.499999999999999869e-04,-2.799999999999999755e-04,1.000000000000000082e-05,0.000000000000000000e+00,-5.000000000000000240e-05,5.000000000000000000e+00,2.100000000000000000e+01
4.491600000000000000e+04,-2.999999999999999737e-05,-5.999999999999999474e-05,-3.099999999999999999e-04,3.200000000000000262e-04,8.599999999999999789e-04,1.300000000000000157e-04,8.000000000000000654e-05,1.000000000000000082e-05,5.000000000000000000e+00,2.100000000000000000e+01
4.491700000000000000e+04,-2.999999999999999737e-05,-5.999999999999999474e-05,-3.099999999999999999e-04,3.200000000000000262e-04,8.599999999999999789e-04,1.300000000000000157e-04,8.000000000000000654e-05,1.000000000000000082e-05,5.000000000000000000e+00,2.100000000000000000e+01
4.491800000000000000e+04,-2.999999999999999737e-05,-5.999999999999999474e-05,-3.099999999999999999e-04,3.200000000000000262e-04,8.599999999999999789e-04,1.300000000000000157e-04,8.000000000000000654e-05,1.000000000000000082e-05,5.000000000000000000e+00,2.100000000000000000e+01
4.491900000000000000e+04,-2.999999999999999737e-05,-5.999999999999999474e-05,-3.099999999999999999e-04,3.200000000000000262e-04,8.599999999999999789e-04,1.300000000000000157e-04,8.000000000000000654e-05,1.000000000000000082e-05,5.000000000000000000e+00,2.100000000000000000e+01
4.492000000000000000e+04,-2.999999999999999737e-05,-5.999999999999999474e-05,-3.099999999999999999e-04,3.200000000000000262e-04,8.599999999999999789e-04,1.300000000000000157e-04,8.000000000000000654e-05,1.000000000000000082e-05,5.000000000000000000e+00,2.100000000000000000e+01
4.492100000000000000e+04,-2.999999999999999737e-05,-5.999999999999999474e-05,-3.099999999999999999e-04,3.200000000000000262e-04,8.599999999999999789e-04,1.300000000000000157e-04,8.000000000000000654e-05,1.000000000000000082e-05,5.000000000000000000e+00,2.100000000000000000e+01
4.492200000000000000e+04,-2.999999999999999737e-05,-5.999999999999999474e-05,-3.099999999999999999e-04,3.200000000000000262e-04,8.599999999999999789e-04,1.300000000000000157e-04,8.000000000000000654e-05,1.000000000000000082e-05,5.000000000000000000e+00,2.100000000000000000e+01
4.492300000000000000e+04,-2.999999999999999737e-05,-5.999999999999999474e-05,-3.099999999999999999e-04,3.200000000000000262e-04,8.599999999999999789e-04,1.300000000000000157e-04,8.000000000000000654e-05,1.000000000000000082e-05,5.000000000000000000e+00,2.100000000000000000e+01
4.492400000000000000e+04,-1.000000000000000082e-05,2.000000000000000164e-05,1.399999999999999877e-04,7.399999999999999894e-04,1.130000000000000145e-03,6.499999999999999702e-04,2.399999999999999790e-04,2.999999999999999737e-05,5.000000000000000000e+00,2.100000000000000000e+01
4.492500000000000000e+04,1.000000000000000082e-05,-1.199999999999999895e-04,-1.199999999999999895e-04,-7.500000000000000156e-04,-7.200000000000000453e-04,-1.100000000000000039e-04,-8.000000000000000654e-05,-5.999999999999999474e-05,5.000000000000000000e+00,2.100000000000000000e+01
4.492600000000000000e+04,1.000000000000000082e-05,-1.199999999999999895e-04,-1.199999999999999895e-04,-7.500000000000000156e-04,-7.200000000000000453e-04,-1.100000000000000039e-04,-8.000000000000000654e-05,-5.999999999999999474e-05,5.000000000000000000e+00,2.100000000000000000e+01
4.492700000000000000e+04,1.000000000000000082e-05,-1.199999999999999895e-04,-1.199999999999999895e-04,-7.500000000000000156e-04,-7.200000000000000453e-04,-1.100000000000000039e-04,-8.000000000000000654e-05,-5.999999999999999474e-05,5.000000000000000000e+00,2.100000000000000000e+01
4.492800000000000000e+04,1.000000000000000082e-05,-1.199999999999999895e-04,-1.199999999999999895e-04,-7.500000000000000156e-04,-7.200000000000000453e-04,-1.100000000000000039e-04,-8.000000000000000654e-05,-5.999999999999999474e-05,5.000000000000000000e+00,2.100000000000000000e+01
4.492900000000000000e+04,1.000000000000000082e-05,-1.199999999999999895e-04,-1.199999999999999895e-04,-7.500000000000000156e-04,-7.200000000000000453e-04,-1.100000000000000039e-04,-8.000000000000000654e-05,-5.999999999999999474e-05,5.000000000000000000e+00,2.100000000000000000e+01
4.493000000000000000e+04,1.000000000000000082e-05,-1.199999999999999895e-04,-1.199999999999999895e-04,-7.500000000000000156e-04,-7.200000000000000453e-04,-1.100000000000000039e-04,-8.000000000000000654e-05,-5.999999999999999474e-05,5.000000000000000000e+00,2.100000000000000000e+01
4.493100000000000000e+04,1.000000000000000082e-05,-1.199999999999999895e-04,-1.199999999999999895e-04,-7.500000000000000156e-04,-7.200000000000000453e-04,-1.100000000000000039e-04,-8.000000000000000654e-05,-5.999999999999999474e-05,5.000000000000000000e+00,2.100000000000000000e+01
4.493200000000000000e+04,1.000000000000000082e-05,-1.199999999999999895e-04,-1.199999999999999895e-04,-7.500000000000000156e-04,-7.200000000000000453e-04,-1.100000000000000039e-04,-8.000000000000000654e-05,-5.999999999999999474e-05,5.000000000000000000e+00,2.100000000000000000e+01
4.493300000000000000e+04,1.000000000000000082e-05,-1.199999999999999895e-04,-1.199999999999999895e-04,-7.500000000000000156e-04,-7.200000000000000453e-04,-1.100000000000000039e-04,-8.000000000000000654e-05,-5.999999999999999474e-05,5.000000000000000000e+00,2.100000000000000000e+01
4.493400000000000000e+04,1.000000000000000082e-05,-1.199999999999999895e-04,-1.199999999999999895e-04,-7.500000000000000156e-04,-7.200000000000000453e-04,-1.100000000000000039e-04,-8.000000000000000654e-05,-5.999999999999999474e-05,5.000000000000000000e+00,2.100000000000000000e+01
4.493500000000000000e+04,1.000000000000000082e-05,-1.199999999999999895e-04,-1.199999999999999895e-04,-7.500000000000000156e-04,-7.200000000000000453e-04,-1.100000000000000039e-04,-8.000000000000000654e-05,-5.999999999999999474e-05,5.000000000000000000e+00,2.100000000000000000e+01
4.493700000000000000e+04,1.000000000000000082e-05,-1.199999999999999895e-04,-1.199999999999999895e-04,-7.500000000000000156e-04,-7.200000000000000453e-04,-1.100000000000000039e-04,-8.000000000000000654e-05,-5.999999999999999474e-05,5.000000000000000000e+00,2.100000000000000000e+01
4.493900000000000000e+04,1.000000000000000082e-05,-1.199999999999999895e-04,-1.199999999999999895e-04,-7.500000000000000156e-04,-7.200000000000000453e-04,-1.100000000000000039e-04,-8.000000000000000654e-05,-5.999999999999999474e-05,5.000000000000000000e+00,2.100000000000000000e+01
4.494000000000000000e+04,1.000000000000000082e-05,-1.199999999999999895e-04,-1.199999999999999895e-04,-7.500000000000000156e-04,-7.200000000000000453e-04,-1.100000000000000039e-04,-8.000000000000000654e-05,-5.999999999999999474e-05,5.000000000000000000e+00,2.100000000000000000e+01
4.494100000000000000e+04,1.000000000000000082e-05,-1.199999999999999895e-04,-1.199999999999999895e-04,-7.500000000000000156e-04,-7.200000000000000453e-04,-1.100000000000000039e-04,-8.000000000000000654e-05,-5.999999999999999474e-05,5.000000000000000000e+00,2.100000000000000000e+01
4.494200000000000000e+04,1.000000000000000082e-05,-1.199999999999999895e-04,-1.199999999999999895e-04,-7.500000000000000156e-04,-7.200000000000000453e-04,-1.100000000000000039e-04,-8.000000000000000654e-05,-5.999999999999999474e-05,5.000000000000000000e+00,2.100000000000000000e+01
4.494300000000000000e+04,1.000000000000000082e-05,-1.199999999999999895e-04,-1.199999999999999895e-04,-7.500000000000000156e-04,-7.200000000000000453e-04,-1.100000000000000039e-04,-8.000000000000000654e-05,-5.999999999999999474e-05,5.000000000000000000e+00,2.100000000000000000e+01
4.494400000000000000e+04,1.000000000000000082e-05,-1.199999999999999895e-04,-1.199999999999999895e-04,-7.500000000000000156e-04,-7.200000000000000453e-04,-1.100000000000000039e-04,-8.000000000000000654e-05,-5.999999999999999474e-05,5.000000000000000000e+00,2.100000000000000000e+01
4.494500000000000000e+04,1.000000000000000082e-05,-1.199999999999999895e-04,-1.199999999999999895e-04,-7.500000000000000156e-04,-7.200000000000000453e-04,-1.100000000000000039e-04,-8.000000000000000654e-05,-5.999999999999999474e-05,5.000000000000000000e+00,2.100000000000000000e+01
4.494600000000000000e+04,1.000000000000000082e-05,-1.199999999999999895e-04,-1.199999999999999895e-04,-7.500000000000000156e-04,-7.200000000000000453e-04,-1.100000000000000039e-04,-8.000000000000000654e-05,-5.999999999999999474e-05,5.000000000000000000e+00,2.100000000000000000e+01
4.494700000000000000e+04,1.000000000000000082e-05,-1.199999999999999895e-04,-1.199999999999999895e-04,-7.500000000000000156e-04,-7.200000000000000453e-04,-1.100000000000000039e-04,-8.000000000000000654e-05,-5.999999999999999474e-05,5.000000000000000000e+00,2.100000000000000000e+01
4.494800000000000000e+04,-1.199999999999999895e-04,-2.999999999999999737e-05,-2.000000000000000096e-04,-3.200000000000000262e-04,-3.399999999999999702e-04,-2.799999999999999755e-04,-1.499999999999999869e-04,-6.999999999999999387e-05,5.000000000000000000e+00,2.100000000000000000e+01
4.494900000000000000e+04,-2.000000000000000096e-04,-1.199999999999999895e-04,-1.000000000000000048e-04,5.000000000000000104e-04,4.099999999999999912e-04,-2.999999999999999737e-05,-4.000000000000000327e-05,-6.999999999999999387e-05,5.000000000000000000e+00,2.100000000000000000e+01
4.495000000000000000e+04,-2.000000000000000096e-04,-1.199999999999999895e-04,-1.000000000000000048e-04,5.000000000000000104e-04,4.099999999999999912e-04,-2.999999999999999737e-05,-4.000000000000000327e-05,-6.999999999999999387e-05,5.000000000000000000e+00,2.100000000000000000e+01
4.495200000000000000e+04,-2.000000000000000096e-04,-1.199999999999999895e-04,-1.000000000000000048e-04,5.000000000000000104e-04,4.099999999999999912e-04,-2.999999999999999737e-05,-4.000000000000000327e-05,-6.999999999999999387e-05,5.000000000000000000e+00,2.100000000000000000e+01
4.495300000000000000e+04,-2.000000000000000096e-04,-1.199999999999999895e-04,-1.000000000000000048e-04,5.000000000000000104e-04,4.099999999999999912e-04,-2.999999999999999737e-05,-4.000000000000000327e-05,-6.999999999999999387e-05,5.000000000000000000e+00,2.100000000000000000e+01
4.495400000000000000e+04,-2.000000000000000096e-04,-1.199999999999999895e-04,-1.000000000000000048e-04,5.000000000000000104e-04,4.099999999999999912e-04,-2.999999999999999737e-05,-4.000000000000000327e-05,-6.999999999999999387e-05,5.000000000000000000e+00,2.100000000000000000e+01
4.495500000000000000e+04,-2.000000000000000096e-04,-1.199999999999999895e-04,-1.000000000000000048e-04,5.000000000000000104e-04,4.099999999999999912e-04,-2.999999999999999737e-05,-4.000000000000000327e-05,-6.999999999999999387e-05,5.000000000000000000e+00,2.100000000000000000e+01
4.495600000000000000e+04,-2.000000000000000096e-04,-1.199999999999999895e-04,-1.000000000000000048e-04,5.000000000000000104e-04,4.099999999999999912e-04,-2.999999999999999737e-05,-4.000000000000000327e-05,-6.999999999999999387e-05,5.000000000000000000e+00,2.100000000000000000e+01
4.495700000000000000e+04,-2.000000000000000096e-04,-1.199999999999999895e-04,-1.000000000000000048e-04,5.000000000000000104e-04,4.099999999999999912e-04,-2.999999999999999737e-05,-4.000000000000000327e-05,-6.999999999999999387e-05,5.000000000000000000e+00,2.100000000000000000e+01
4.495800000000000000e+04,-2.000000000000000096e-04,-1.199999999999999895e-04,-1.000000000000000048e-04,5.000000000000000104e-04,4.099999999999999912e-04,-2.999999999999999737e-05,-4.000000000000000327e-05,-6.999999999999999387e-05,5.000000000000000000e+00,2.100000000000000000e+01
4.495900000000000000e+04,-2.000000000000000096e-04,-1.199999999999999895e-04,-1.000000000000000048e-04,5.000000000000000104e-04,4.099999999999999912e-04,-2.999999999999999737e-05,-4.000000000000000327e-05,-6.999999999999999387e-05,5.000000000000000000e+00,2.100000000000000000e+01
4.496000000000000000e+04,-2.000000000000000096e-04,-1.199999999999999895e-04,-1.000000000000000048e-04,5.000000000000000104e-04,4.099999999999999912e-04,-2.999999999999999737e-05,-4.000000000000000327e-05,-6.999999999999999387e-05,5.000000000000000000e+00,2.100000000000000000e+01
4.496100000000000000e+04,-2.000000000000000096e-04,-1.199999999999999895e-04,-1.000000000000000048e-04,5.000000000000000104e-04,4.099999999999999912e-04,-2.999999999999999737e-05,-4.000000000000000327e-05,-6.999999999999999387e-05,5.000000000000000000e+00,2.100000000000000000e+01
4.496200000000000000e+04,-2.000000000000000096e-04,-1.199999999999999895e-04,-1.000000000000000048e-04,5.000000000000000104e-04,4.099999999999999912e-04,-2.999999999999999737e-05,-4.000000000000000327e-05,-6.999999999999999387e-05,5.000000000000000000e+00,2.100000000000000000e+01
4.496300000000000000e+04,-2.000000000000000096e-04,-1.199999999999999895e-04,-1.000000000000000048e-04,5.000000000000000104e-04,4.099999999999999912e-04,-2.999999999999999737e-05,-4.000000000000000327e-05,-6.999999999999999387e-05,5.000000000000000000e+00,2.100000000000000000e+01
4.496400000000000000e+04,-2.000000000000000096e-04,-1.199999999999999895e-04,-1.000000000000000048e-04,5.000000000000000104e-04,4.099999999999999912e-04,-2.999999999999999737e-05,-4.000000000000000327e-05,-6.999999999999999387e-05,5.000000000000000000e+00,2.100000000000000000e+01
4.496500000000000000e+04,-2.000000000000000096e-04,-1.199999999999999895e-04,-1.000000000000000048e-04,5.000000000000000104e-04,4.099999999999999912e-04,-2.999999999999999737e-05,-4.000000000000000327e-05,-6.999999999999999387e-05,5.000000000000000000e+00,2.100000000000000000e+01
4.496600000000000000e+04,-2.000000000000000096e-04,-1.199999999999999895e-04,-1.000000000000000048e-04,5.000000000000000104e-04,4.099999999999999912e-04,-2.999999999999999737e-05,-4.000000000000000327e-05,-6.999999999999999387e-05,5.000000000000000000e+00,2.100000000000000000e+01
4.496700000000000000e+04,-2.000000000000000096e-04,-1.199999999999999895e-04,-1.000000000000000048e-04,5.000000000000000104e-04,4.099999999999999912e-04,-2.999999999999999737e-05,-4.000000000000000327e-05,-6.999999999999999387e-05,5.000000000000000000e+00,2.100000000000000000e+01
4.496800000000000000e+04,-2.000000000000000096e-04,-1.199999999999999895e-04,-1.000000000000000048e-04,5.000000000000000104e-04,4.099999999999999912e-04,-2.999999999999999737e-05,-4.000000000000000327e-05,-6.999999999999999387e-05,5.000000000000000000e+00,2.100000000000000000e+01
4.496900000000000000e+04,-2.000000000000000096e-04,-1.199999999999999895e-04,-1.000000000000000048e-04,5.000000000000000104e-04,4.099999999999999912e-04,-2.999999999999999737e-05,-4.000000000000000327e-05,-6.999999999999999387e-05,5.000000000000000000e+00,2.100000000000000000e+01
4.497000000000000000e+04,-1.100000000000000039e-04,0.000000000000000000e+00,2.999999999999999737e-05,2.999999999999999737e-05,-2.000000000000000164e-05,0.000000000000000000e+00,-4.000000000000000327e-05,-9.000000000000000567e-05,5.000000000000000000e+00,2.100000000000000000e+01
4.497100000000000000e+04,1.000000000000000048e-04,1.300000000000000157e-04,2.000000000000000164e-05,-8.000000000000000654e-05,-1.049999999999999935e-03,-1.800000000000000113e-04,-5.000000000000000240e-05,-5.000000000000000240e-05,5.000000000000000000e+00,2.100000000000000000e+01
4.497200000000000000e+04,1.000000000000000048e-04,1.300000000000000157e-04,2.000000000000000164e-05,-8.000000000000000654e-05,-1.049999999999999935e-03,-1.800000000000000113e-04,-5.000000000000000240e-05,-5.000000000000000240e-05,5.000000000000000000e+00,2.100000000000000000e+01
4.497300000000000000e+04,1.000000000000000048e-04,1.300000000000000157e-04,2.000000000000000164e-05,-8.000000000000000654e-05,-1.049999999999999935e-03,-1.800000000000000113e-04,-5.000000000000000240e-05,-5.000000000000000240e-05,5.000000000000000000e+00,2.100000000000000000e+01
4.497400000000000000e+04,1.000000000000000048e-04,1.300000000000000157e-04,2.000000000000000164e-05,-8.000000000000000654e-05,-1.049999999999999935e-03,-1.800000000000000113e-04,-5.000000000000000240e-05,-5.000000000000000240e-05,5.000000000000000000e+00,2.100000000000000000e+01
4.497500000000000000e+04,1.000000000000000048e-04,1.300000000000000157e-04,2.000000000000000164e-05,-8.000000000000000654e-05,-1.049999999999999935e-03,-1.800000000000000113e-04,-5.000000000000000240e-05,-5.000000000000000240e-05,5.000000000000000000e+00,2.100000000000000000e+01
4.497600000000000000e+04,1.000000000000000048e-04,1.300000000000000157e-04,2.000000000000000164e-05,-8.000000000000000654e-05,-1.049999999999999935e-03,-1.800000000000000113e-04,-5.000000000000000240e-05,-5.000000000000000240e-05,5.000000000000000000e+00,2.100000000000000000e+01
4.497700000000000000e+04,1.000000000000000048e-04,1.300000000000000157e-04,2.000000000000000164e-05,-8.000000000000000654e-05,-1.049999999999999935e-03,-1.800000000000000113e-04,-5.000000000000000240e-05,-5.000000000000000240e-05,5.000000000000000000e+00,2.100000000000000000e+01
4.497800000000000000e+04,1.000000000000000048e-04,1.300000000000000157e-04,2.000000000000000164e-05,-8.000000000000000654e-05,-1.049999999999999935e-03,-1.800000000000000113e-04,-5.000000000000000240e-05,-5.000000000000000240e-05,5.000000000000000000e+00,2.100000000000000000e+01
4.497900000000000000e+04,1.000000000000000048e-04,1.300000000000000157e-04,2.000000000000000164e-05,-8.000000000000000654e-05,-1.049999999999999935e-03,-1.800000000000000113e-04,-5.000000000000000240e-05,-5.000000000000000240e-05,5.000000000000000000e+00,2.100000000000000000e+01
4.498000000000000000e+04,1.000000000000000048e-04,1.300000000000000157e-04,2.000000000000000164e-05,-8.000000000000000654e-05,-1.049999999999999935e-03,-1.800000000000000113e-04,-5.000000000000000240e-05,-5.000000000000000240e-05,5.000000000000000000e+00,2.100000000000000000e+01
4.498100000000000000e+04,1.000000000000000048e-04,1.300000000000000157e-04,2.000000000000000164e-05,-8.000000000000000654e-05,-1.049999999999999935e-03,-1.800000000000000113e-04,-5.000000000000000240e-05,-5.000000000000000240e-05,5.000000000000000000e+00,2.100000000000000000e+01
4.498200000000000000e+04,1.000000000000000048e-04,1.300000000000000157e-04,2.000000000000000164e-05,-8.000000000000000654e-05,-1.049999999999999935e-03,-1.800000000000000113e-04,-5.000000000000000240e-05,-5.000000000000000240e-05,5.000000000000000000e+00,2.100000000000000000e+01
4.498300000000000000e+04,1.000000000000000048e-04,1.300000000000000157e-04,2.000000000000000164e-05,-8.000000000000000654e-05,-1.049999999999999935e-03,-1.800000000000000113e-04,-5.000000000000000240e-05,-5.000000000000000240e-05,5.000000000000000000e+00,2.100000000000000000e+01
4.498400000000000000e+04,-3.299999999999999982e-04,-3.600000000000000227e-04,-4.499999999999999877e-04,-7.500000000000000156e-04,4.700000000000000401e-04,-2.000000000000000164e-05,-1.199999999999999895e-04,-8.000000000000000654e-05,5.000000000000000000e+00,2.100000000000000000e+01
4.498500000000000000e+04,1.899999999999999834e-04,2.900000000000000017e-04,2.500000000000000052e-04,4.799999999999999580e-04,6.700000000000000226e-04,2.600000000000000314e-04,1.899999999999999834e-04,5.999999999999999474e-05,5.000000000000000000e+00,2.100000000000000000e+01
4.498600000000000000e+04,1.899999999999999834e-04,2.900000000000000017e-04,2.500000000000000052e-04,4.799999999999999580e-04,6.700000000000000226e-04,2.600000000000000314e-04,1.899999999999999834e-04,5.999999999999999474e-05,5.000000000000000000e+00,2.100000000000000000e+01
4.498800000000000000e+04,1.899999999999999834e-04,2.900000000000000017e-04,2.500000000000000052e-04,4.799999999999999580e-04,6.700000000000000226e-04,2.600000000000000314e-04,1.899999999999999834e-04,5.999999999999999474e-05,5.000000000000000000e+00,2.100000000000000000e+01
4.498900000000000000e+04,1.899999999999999834e-04,2.900000000000000017e-04,2.500000000000000052e-04,4.799999999999999580e-04,6.700000000000000226e-04,2.600000000000000314e-04,1.899999999999999834e-04,5.999999999999999474e-05,5.000000000000000000e+00,2.100000000000000000e+01
4.499000000000000000e+04,1.899999999999999834e-04,2.900000000000000017e-04,2.500000000000000052e-04,4.799999999999999580e-04,6.700000000000000226e-04,2.600000000000000314e-04,1.899999999999999834e-04,5.999999999999999474e-05,5.000000000000000000e+00,2.100000000000000000e+01
4.499100000000000000e+04,1.899999999999999834e-04,2.900000000000000017e-04,2.500000000000000052e-04,4.799999999999999580e-04,6.700000000000000226e-04,2.600000000000000314e-04,1.899999999999999834e-04,5.999999999999999474e-05,5.000000000000000000e+00,2.100000000000000000e+01
4.499200000000000000e+04,1.899999999999999834e-04,2.900000000000000017e-04,2.500000000000000052e-04,4.799999999999999580e-04,6.700000000000000226e-04,2.600000000000000314e-04,1.899999999999999834e-04,5.999999999999999474e-05,5.000000000000000000e+00,2.100000000000000000e+01
4.499300000000000000e+04,1.899999999999999834e-04,2.900000000000000017e-04,2.500000000000000052e-04,4.799999999999999580e-04,6.700000000000000226e-04,2.600000000000000314e-04,1.899999999999999834e-04,5.999999999999999474e-05,5.000000000000000000e+00,2.100000000000000000e+01
4.499400000000000000e+04,1.899999999999999834e-04,2.900000000000000017e-04,2.500000000000000052e-04,4.799999999999999580e-04,6.700000000000000226e-04,2.600000000000000314e-04,1.899999999999999834e-04,5.999999999999999474e-05,5.000000000000000000e+00,2.100000000000000000e+01
4.499500000000000000e+04,1.899999999999999834e-04,2.900000000000000017e-04,2.500000000000000052e-04,4.799999999999999580e-04,6.700000000000000226e-04,2.600000000000000314e-04,1.899999999999999834e-04,5.999999999999999474e-05,5.000000000000000000e+00,2.100000000000000000e+01
4.499600000000000000e+04,1.899999999999999834e-04,2.900000000000000017e-04,2.500000000000000052e-04,4.799999999999999580e-04,6.700000000000000226e-04,2.600000000000000314e-04,1.899999999999999834e-04,5.999999999999999474e-05,5.000000000000000000e+00,2.100000000000000000e+01
4.499700000000000000e+04,1.899999999999999834e-04,2.900000000000000017e-04,2.500000000000000052e-04,4.799999999999999580e-04,6.700000000000000226e-04,2.600000000000000314e-04,1.899999999999999834e-04,5.999999999999999474e-05,5.000000000000000000e+00,2.100000000000000000e+01
4.499800000000000000e+04,1.899999999999999834e-04,2.900000000000000017e-04,2.500000000000000052e-04,4.799999999999999580e-04,6.700000000000000226e-04,2.600000000000000314e-04,1.899999999999999834e-04,5.999999999999999474e-05,5.000000000000000000e+00,2.100000000000000000e+01
4.499900000000000000e+04,1.899999999999999834e-04,2.900000000000000017e-04,2.500000000000000052e-04,4.799999999999999580e-04,6.700000000000000226e-04,2.600000000000000314e-04,1.899999999999999834e-04,5.999999999999999474e-05,5.000000000000000000e+00,2.100000000000000000e+01
4.500000000000000000e+04,1.899999999999999834e-04,2.900000000000000017e-04,2.500000000000000052e-04,4.799999999999999580e-04,6.700000000000000226e-04,2.600000000000000314e-04,1.899999999999999834e-04,5.999999999999999474e-05,5.000000000000000000e+00,2.100000000000000000e+01
4.500100000000000000e+04,1.899999999999999834e-04,2.900000000000000017e-04,2.500000000000000052e-04,4.799999999999999580e-04,6.700000000000000226e-04,2.600000000000000314e-04,1.899999999999999834e-04,5.999999999999999474e-05,5.000000000000000000e+00,2.100000000000000000e+01
4.500200000000000000e+04,1.899999999999999834e-04,2.900000000000000017e-04,2.500000000000000052e-04,4.799999999999999580e-04,6.700000000000000226e-04,2.600000000000000314e-04,1.899999999999999834e-04,5.999999999999999474e-05,5.000000000000000000e+00,2.100000000000000000e+01
4.500300000000000000e+04,1.899999999999999834e-04,2.900000000000000017e-04,2.500000000000000052e-04,4.799999999999999580e-04,6.700000000000000226e-04,2.600000000000000314e-04,1.899999999999999834e-04,5.999999999999999474e-05,5.000000000000000000e+00,2.100000000000000000e+01
4.500400000000000000e+04,1.899999999999999834e-04,2.900000000000000017e-04,2.500000000000000052e-04,4.799999999999999580e-04,6.700000000000000226e-04,2.600000000000000314e-04,1.899999999999999834e-04,5.999999999999999474e-05,5.000000000000000000e+00,2.100000000000000000e+01
4.500500000000000000e+04,1.899999999999999834e-04,2.900000000000000017e-04,2.500000000000000052e-04,4.799999999999999580e-04,6.700000000000000226e-04,2.600000000000000314e-04,1.899999999999999834e-04,5.999999999999999474e-05,5.000000000000000000e+00,2.100000000000000000e+01
4.500600000000000000e+04,1.899999999999999834e-04,2.900000000000000017e-04,2.500000000000000052e-04,4.799999999999999580e-04,6.700000000000000226e-04,2.600000000000000314e-04,1.899999999999999834e-04,5.999999999999999474e-05,5.000000000000000000e+00,2.100000000000000000e+01
4.500700000000000000e+04,1.899999999999999834e-04,2.900000000000000017e-04,2.500000000000000052e-04,4.799999999999999580e-04,6.700000000000000226e-04,2.600000000000000314e-04,1.899999999999999834e-04,5.999999999999999474e-05,5.000000000000000000e+00,2.100000000000000000e+01
4.500800000000000000e+04,-3.699999999999999947e-04,-6.099999999999999737e-04,-1.100000000000000039e-04,4.099999999999999912e-04,-1.199999999999999895e-04,-5.999999999999999474e-05,-6.999999999999999387e-05,-1.000000000000000048e-04,5.000000000000000000e+00,2.100000000000000000e+01
4.500900000000000000e+04,-1.399999999999999877e-04,0.000000000000000000e+00,1.699999999999999851e-04,2.000000000000000164e-05,3.399999999999999702e-04,5.999999999999999474e-05,0.000000000000000000e+00,-5.000000000000000240e-05,5.000000000000000000e+00,2.100000000000000000e+01
4.501000000000000000e+04,-1.399999999999999877e-04,0.000000000000000000e+00,1.699999999999999851e-04,2.000000000000000164e-05,3.399999999999999702e-04,5.999999999999999474e-05,0.000000000000000000e+00,-5.000000000000000240e-05,5.000000000000000000e+00,2.100000000000000000e+01
4.501100000000000000e+04,-1.399999999999999877e-04,0.000000000000000000e+00,1.699999999999999851e-04,2.000000000000000164e-05,3.399999999999999702e-04,5.999999999999999474e-05,0.000000000000000000e+00,-5.000000000000000240e-05,5.000000000000000000e+00,2.100000000000000000e+01
4.501200000000000000e+04,-1.399999999999999877e-04,0.000000000000000000e+00,1.699999999999999851e-04,2.000000000000000164e-05,3.399999999999999702e-04,5.999999999999999474e-05,0.000000000000000000e+00,-5.000000000000000240e-05,5.000000000000000000e+00,2.100000000000000000e+01
4.501300000000000000e+04,-1.399999999999999877e-04,0.000000000000000000e+00,1.699999999999999851e-04,2.000000000000000164e-05,3.399999999999999702e-04,5.999999999999999474e-05,0.000000000000000000e+00,-5.000000000000000240e-05,5.000000000000000000e+00,2.100000000000000000e+01
4.501400000000000000e+04,-1.399999999999999877e-04,0.000000000000000000e+00,1.699999999999999851e-04,2.000000000000000164e-05,3.399999999999999702e-04,5.999999999999999474e-05,0.000000000000000000e+00,-5.000000000000000240e-05,5.000000000000000000e+00,2.100000000000000000e+01
4.501500000000000000e+04,-1.399999999999999877e-04,0.000000000000000000e+00,1.699999999999999851e-04,2.000000000000000164e-05,3.399999999999999702e-04,5.999999999999999474e-05,0.000000000000000000e+00,-5.000000000000000240e-05,5.000000000000000000e+00,2.100000000000000000e+01
4.501600000000000000e+04,-1.399999999999999877e-04,0.000000000000000000e+00,1.699999999999999851e-04,2.000000000000000164e-05,3.399999999999999702e-04,5.999999999999999474e-05,0.000000000000000000e+00,-5.000000000000000240e-05,5.000000000000000000e+00,2.100000000000000000e+01
4.501700000000000000e+04,-1.399999999999999877e-04,0.000000000000000000e+00,1.699999999999999851e-04,2.000000000000000164e-05,3.399999999999999702e-04,5.999999999999999474e-05,0.000000000000000000e+00,-5.000000000000000240e-05,5.000000000000000000e+00,2.100000000000000000e+01
4.501800000000000000e+04,-1.399999999999999877e-04,0.000000000000000000e+00,1.699999999999999851e-04,2.000000000000000164e-05,3.399999999999999702e-04,5.999999999999999474e-05,0.000000000000000000e+00,-5.000000000000000240e-05,5.000000000000000000e+00,2.100000000000000000e+01
4.501900000000000000e+04,-1.399999999999999877e-04,0.000000000000000000e+00,1.699999999999999851e-04,2.000000000000000164e-05,3.399999999999999702e-04,5.999999999999999474e-05,0.000000000000000000e+00,-5.000000000000000240e-05,5.000000000000000000e+00,2.100000000000000000e+01
4.502000000000000000e+04,-1.399999999999999877e-04,0.000000000000000000e+00,1.699999999999999851e-04,2.000000000000000164e-05,3.399999999999999702e-04,5.999999999999999474e-05,0.000000000000000000e+00,-5.000000000000000240e-05,5.000000000000000000e+00,2.100000000000000000e+01
4.502100000000000000e+04,-1.399999999999999877e-04,0.000000000000000000e+00,1.699999999999999851e-04,2.000000000000000164e-05,3.399999999999999702e-04,5.999999999999999474e-05,0.000000000000000000e+00,-5.000000000000000240e-05,5.000000000000000000e+00,2.100000000000000000e+01
4.502200000000000000e+04,-1.399999999999999877e-04,0.000000000000000000e+00,1.699999999999999851e-04,2.000000000000000164e-05,3.399999999999999702e-04,5.999999999999999474e-05,0.000000000000000000e+00,-5.000000000000000240e-05,5.000000000000000000e+00,2.100000000000000000e+01
4.502300000000000000e+04,-1.399999999999999877e-04,0.000000000000000000e+00,1.699999999999999851e-04,2.000000000000000164e-05,3.399999999999999702e-04,5.999999999999999474e-05,0.000000000000000000e+00,-5.000000000000000240e-05,5.000000000000000000e+00,2.100000000000000000e+01
4.502400000000000000e+04,-1.399999999999999877e-04,0.000000000000000000e+00,1.699999999999999851e-04,2.000000000000000164e-05,3.399999999999999702e-04,5.999999999999999474e-05,0.000000000000000000e+00,-5.000000000000000240e-05,5.000000000000000000e+00,2.100000000000000000e+01
4.502500000000000000e+04,-1.399999999999999877e-04,0.000000000000000000e+00,1.699999999999999851e-04,2.000000000000000164e-05,3.399999999999999702e-04,5.999999999999999474e-05,0.000000000000000000e+00,-5.000000000000000240e-05,5.000000000000000000e+00,2.100000000000000000e+01
4.502600000000000000e+04,-1.399999999999999877e-04,0.000000000000000000e+00,1.699999999999999851e-04,2.000000000000000164e-05,3.399999999999999702e-04,5.999999999999999474e-05,0.000000000000000000e+00,-5.000000000000000240e-05,5.000000000000000000e+00,2.100000000000000000e+01
4.502700000000000000e+04,-1.399999999999999877e-04,0.000000000000000000e+00,1.699999999999999851e-04,2.000000000000000164e-05,3.399999999999999702e-04,5.999999999999999474e-05,0.000000000000000000e+00,-5.000000000000000240e-05,5.000000000000000000e+00,2.100000000000000000e+01
4.502800000000000000e+04,-1.399999999999999877e-04,0.000000000000000000e+00,1.699999999999999851e-04,2.000000000000000164e-05,3.399999999999999702e-04,5.999999999999999474e-05,0.000000000000000000e+00,-5.000000000000000240e-05,5.000000000000000000e+00,2.100000000000000000e+01
4.502900000000000000e+04,-1.399999999999999877e-04,0.000000000000000000e+00,1.699999999999999851e-04,2.000000000000000164e-05,3.399999999999999702e-04,5.999999999999999474e-05,0.000000000000000000e+00,-5.000000000000000240e-05,5.000000000000000000e+00,2.100000000000000000e+01
4.503000000000000000e+04,-1.399999999999999877e-04,0.000000000000000000e+00,1.699999999999999851e-04,2.000000000000000164e-05,3.399999999999999702e-04,5.999999999999999474e-05,0.000000000000000000e+00,-5.000000000000000240e-05,5.000000000000000000e+00,2.100000000000000000e+01
4.503100000000000000e+04,-1.399999999999999877e-04,0.000000000000000000e+00,1.699999999999999851e-04,2.000000000000000164e-05,3.399999999999999702e-04,5.999999999999999474e-05,0.000000000000000000e+00,-5.000000000000000240e-05,5.000000000000000000e+00,2.100000000000000000e+01
4.503300000000000000e+04,-1.399999999999999877e-04,0.000000000000000000e+00,1.699999999999999851e-04,2.000000000000000164e-05,3.399999999999999702e-04,5.999999999999999474e-05,0.000000000000000000e+00,-5.000000000000000240e-05,5.000000000000000000e+00,2.100000000000000000e+01
4.503400000000000000e+04,-1.399999999999999877e-04,0.000000000000000000e+00,1.699999999999999851e-04,2.000000000000000164e-05,3.399999999999999702e-04,5.999999999999999474e-05,0.000000000000000000e+00,-5.000000000000000240e-05,5.000000000000000000e+00,2.100000000000000000e+01
4.503500000000000000e+04,-1.399999999999999877e-04,0.000000000000000000e+00,1.699999999999999851e-04,2.000000000000000164e-05,3.399999999999999702e-04,5.999999999999999474e-05,0.000000000000000000e+00,-5.000000000000000240e-05,5.000000000000000000e+00,2.100000000000000000e+01
4.503700000000000000e+04,1.199999999999999895e-04,3.099999999999999999e-04,4.499999999999999877e-04,5.999999999999999474e-05,3.799999999999999667e-04,1.100000000000000039e-04,2.000000000000000164e-05,0.000000000000000000e+00,5.000000000000000000e+00,2.100000000000000000e+01
4.503900000000000000e+04,-1.000000000000000048e-04,-2.000000000000000164e-05,-1.100000000000000039e-04,-5.500000000000000331e-04,-4.299999999999999894e-04,5.000000000000000240e-05,-1.000000000000000082e-05,-4.000000000000000327e-05,5.000000000000000000e+00,2.100000000000000000e+01
4.504000000000000000e+04,-1.000000000000000048e-04,-2.000000000000000164e-05,-1.100000000000000039e-04,-5.500000000000000331e-04,-4.299999999999999894e-04,5.000000000000000240e-05,-1.000000000000000082e-05,-4.000000000000000327e-05,5.000000000000000000e+00,2.100000000000000000e+01
4.504100000000000000e+04,-1.000000000000000048e-04,-2.000000000000000164e-05,-1.100000000000000039e-04,-5.500000000000000331e-04,-4.299999999999999894e-04,5.000000000000000240e-05,-1.000000000000000082e-05,-4.000000000000000327e-05,5.000000000000000000e+00,2.100000000000000000e+01
4.504200000000000000e+04,-1.000000000000000048e-04,-2.000000000000000164e-05,-1.100000000000000039e-04,-5.500000000000000331e-04,-4.299999999999999894e-04,5.000000000000000240e-05,-1.000000000000000082e-05,-4.000000000000000327e-05,5.000000000000000000e+00,2.100000000000000000e+01
4.504300000000000000e+04,-1.000000000000000048e-04,-2.000000000000000164e-05,-1.100000000000000039e-04,-5.500000000000000331e-04,-4.299999999999999894e-04,5.000000000000000240e-05,-1.000000000000000082e-05,-4.000000000000000327e-05,5.000000000000000000e+00,2.100000000000000000e+01
4.504400000000000000e+04,-2.700000000000000035e-04,-3.600000000000000227e-04,-3.299999999999999982e-04,-2.500000000000000052e-04,-1.800000000000000113e-04,-1.000000000000000048e-04,-8.000000000000000654e-05,-1.100000000000000039e-04,5.000000000000000000e+00,2.100000000000000000e+01
4.504500000000000000e+04,1.000000000000000082e-05,1.100000000000000039e-04,2.399999999999999790e-04,2.600000000000000314e-04,-4.400000000000000157e-04,-6.999999999999999387e-05,-5.000000000000000240e-05,-5.000000000000000240e-05,5.000000000000000000e+00,2.100000000000000000e+01
4.504600000000000000e+04,1.000000000000000082e-05,1.100000000000000039e-04,2.399999999999999790e-04,2.600000000000000314e-04,-4.400000000000000157e-04,-6.999999999999999387e-05,-5.000000000000000240e-05,-5.000000000000000240e-05,5.000000000000000000e+00,2.100000000000000000e+01
4.504700000000000000e+04,1.000000000000000082e-05,1.100000000000000039e-04,2.399999999999999790e-04,2.600000000000000314e-04,-4.400000000000000157e-04,-6.999999999999999387e-05,-5.000000000000000240e-05,-5.000000000000000240e-05,5.000000000000000000e+00,2.100000000000000000e+01
4.504800000000000000e+04,1.000000000000000082e-05,1.100000000000000039e-04,2.399999999999999790e-04,2.600000000000000314e-04,-4.400000000000000157e-04,-6.999999999999999387e-05,-5.000000000000000240e-05,-5.000000000000000240e-05,5.000000000000000000e+00,2.100000000000000000e+01
4.504900000000000000e+04,1.000000000000000082e-05,1.100000000000000039e-04,2.399999999999999790e-04,2.600000000000000314e-04,-4.400000000000000157e-04,-6.999999999999999387e-05,-5.000000000000000240e-05,-5.000000000000000240e-05,5.000000000000000000e+00,2.100000000000000000e+01
4.505000000000000000e+04,1.000000000000000082e-05,1.100000000000000039e-04,2.399999999999999790e-04,2.600000000000000314e-04,-4.400000000000000157e-04,-6.999999999999999387e-05,-5.000000000000000240e-05,-5.000000000000000240e-05,5.000000000000000000e+00,2.100000000000000000e+01
4.505100000000000000e+04,1.000000000000000082e-05,1.100000000000000039e-04,2.399999999999999790e-04,2.600000000000000314e-04,-4.400000000000000157e-04,-6.999999999999999387e-05,-5.000000000000000240e-05,-5.000000000000000240e-05,5.000000000000000000e+00,2.100000000000000000e+01
4.505200000000000000e+04,1.000000000000000082e-05,1.100000000000000039e-04,2.399999999999999790e-04,2.600000000000000314e-04,-4.400000000000000157e-04,-6.999999999999999387e-05,-5.000000000000000240e-05,-5.000000000000000240e-05,5.000000000000000000e+00,2.100000000000000000e+01
4.505300000000000000e+04,1.000000000000000082e-05,1.100000000000000039e-04,2.399999999999999790e-04,2.600000000000000314e-04,-4.400000000000000157e-04,-6.999999999999999387e-05,-5.000000000000000240e-05,-5.000000000000000240e-05,5.000000000000000000e+00,2.100000000000000000e+01
4.505400000000000000e+04,1.000000000000000082e-05,1.100000000000000039e-04,2.399999999999999790e-04,2.600000000000000314e-04,-4.400000000000000157e-04,-6.999999999999999387e-05,-5.000000000000000240e-05,-5.000000000000000240e-05,5.000000000000000000e+00,2.100000000000000000e+01
4.505500000000000000e+04,1.000000000000000082e-05,1.100000000000000039e-04,2.399999999999999790e-04,2.600000000000000314e-04,-4.400000000000000157e-04,-6.999999999999999387e-05,-5.000000000000000240e-05,-5.000000000000000240e-05,5.000000000000000000e+00,2.100000000000000000e+01
4.505600000000000000e+04,1.000000000000000082e-05,1.100000000000000039e-04,2.399999999999999790e-04,2.600000000000000314e-04,-4.400000000000000157e-04,-6.999999999999999387e-05,-5.000000000000000240e-05,-5.000000000000000240e-05,5.000000000000000000e+00,2.100000000000000000e+01
4.505700000000000000e+04,1.000000000000000082e-05,1.100000000000000039e-04,2.399999999999999790e-04,2.600000000000000314e-04,-4.400000000000000157e-04,-6.999999999999999387e-05,-5.000000000000000240e-05,-5.000000000000000240e-05,5.000000000000000000e+00,2.100000000000000000e+01
4.505800000000000000e+04,1.000000000000000082e-05,1.100000000000000039e-04,2.399999999999999790e-04,2.600000000000000314e-04,-4.400000000000000157e-04,-6.999999999999999387e-05,-5.000000000000000240e-05,-5.000000000000000240e-05,5.000000000000000000e+00,2.100000000000000000e+01
4.505900000000000000e+04,1.000000000000000082e-05,1.100000000000000039e-04,2.399999999999999790e-04,2.600000000000000314e-04,-4.400000000000000157e-04,-6.999999999999999387e-05,-5.000000000000000240e-05,-5.000000000000000240e-05,5.000000000000000000e+00,2.100000000000000000e+01
4.506000000000000000e+04,1.000000000000000082e-05,1.100000000000000039e-04,2.399999999999999790e-04,2.600000000000000314e-04,-4.400000000000000157e-04,-6.999999999999999387e-05,-5.000000000000000240e-05,-5.000000000000000240e-05,5.000000000000000000e+00,2.100000000000000000e+01
4.506100000000000000e+04,1.000000000000000082e-05,1.100000000000000039e-04,2.399999999999999790e-04,2.600000000000000314e-04,-4.400000000000000157e-04,-6.999999999999999387e-05,-5.000000000000000240e-05,-5.000000000000000240e-05,5.000000000000000000e+00,2.100000000000000000e+01
4.506200000000000000e+04,1.000000000000000082e-05,1.100000000000000039e-04,2.399999999999999790e-04,2.600000000000000314e-04,-4.400000000000000157e-04,-6.999999999999999387e-05,-5.000000000000000240e-05,-5.000000000000000240e-05,5.000000000000000000e+00,2.100000000000000000e+01
4.506300000000000000e+04,1.000000000000000082e-05,1.100000000000000039e-04,2.399999999999999790e-04,2.600000000000000314e-04,-4.400000000000000157e-04,-6.999999999999999387e-05,-5.000000000000000240e-05,-5.000000000000000240e-05,5.000000000000000000e+00,2.100000000000000000e+01
4.506400000000000000e+04,1.000000000000000082e-05,1.100000000000000039e-04,2.399999999999999790e-04,2.600000000000000314e-04,-4.400000000000000157e-04,-6.999999999999999387e-05,-5.000000000000000240e-05,-5.000000000000000240e-05,5.000000000000000000e+00,2.100000000000000000e+01
4.506500000000000000e+04,1.000000000000000082e-05,1.100000000000000039e-04,2.399999999999999790e-04,2.600000000000000314e-04,-4.400000000000000157e-04,-6.999999999999999387e-05,-5.000000000000000240e-05,-5.000000000000000240e-05,5.000000000000000000e+00,2.100000000000000000e+01
4.506600000000000000e+04,1.000000000000000082e-05,1.100000000000000039e-04,2.399999999999999790e-04,2.600000000000000314e-04,-4.400000000000000157e-04,-6.999999999999999387e-05,-5.000000000000000240e-05,-5.000000000000000240e-05,5.000000000000000000e+00,2.100000000000000000e+01
4.506700000000000000e+04,1.000000000000000082e-05,1.100000000000000039e-04,2.399999999999999790e-04,2.600000000000000314e-04,-4.400000000000000157e-04,-6.999999999999999387e-05,-5.000000000000000240e-05,-5.000000000000000240e-05,5.000000000000000000e+00,2.100000000000000000e+01
4.506800000000000000e+04,1.800000000000000113e-04,-1.899999999999999834e-04,8.000000000000000654e-05,-8.000000000000000654e-05,-5.999999999999999474e-05,-1.100000000000000039e-04,-2.999999999999999737e-05,2.000000000000000164e-05,5.000000000000000000e+00,2.100000000000000000e+01
4.506900000000000000e+04,5.999999999999999474e-05,1.499999999999999869e-04,1.600000000000000131e-04,-3.399999999999999702e-04,-2.500000000000000052e-04,-3.299999999999999982e-04,-1.499999999999999869e-04,-5.999999999999999474e-05,5.000000000000000000e+00,2.100000000000000000e+01
4.507000000000000000e+04,5.999999999999999474e-05,1.499999999999999869e-04,1.600000000000000131e-04,-3.399999999999999702e-04,-2.500000000000000052e-04,-3.299999999999999982e-04,-1.499999999999999869e-04,-5.999999999999999474e-05,5.000000000000000000e+00,2.100000000000000000e+01
4.507100000000000000e+04,5.999999999999999474e-05,1.499999999999999869e-04,1.600000000000000131e-04,-3.399999999999999702e-04,-2.500000000000000052e-04,-3.299999999999999982e-04,-1.499999999999999869e-04,-5.999999999999999474e-05,5.000000000000000000e+00,2.100000000000000000e+01
4.507200000000000000e+04,5.999999999999999474e-05,1.499999999999999869e-04,1.600000000000000131e-04,-3.399999999999999702e-04,-2.500000000000000052e-04,-3.299999999999999982e-04,-1.499999999999999869e-04,-5.999999999999999474e-05,5.000000000000000000e+00,2.100000000000000000e+01
4.507300000000000000e+04,5.999999999999999474e-05,1.499999999999999869e-04,1.600000000000000131e-04,-3.399999999999999702e-04,-2.500000000000000052e-04,-3.299999999999999982e-04,-1.499999999999999869e-04,-5.999999999999999474e-05,5.000000000000000000e+00,2.100000000000000000e+01
4.507400000000000000e+04,5.999999999999999474e-05,1.499999999999999869e-04,1.600000000000000131e-04,-3.399999999999999702e-04,-2.500000000000000052e-04,-3.299999999999999982e-04,-1.499999999999999869e-04,-5.999999999999999474e-05,5.000000000000000000e+00,2.100000000000000000e+01
4.507500000000000000e+04,5.999999999999999474e-05,1.499999999999999869e-04,1.600000000000000131e-04,-3.399999999999999702e-04,-2.500000000000000052e-04,-3.299999999999999982e-04,-1.499999999999999869e-04,-5.999999999999999474e-05,5.000000000000000000e+00,2.100000000000000000e+01
4.507600000000000000e+04,5.999999999999999474e-05,1.499999999999999869e-04,1.600000000000000131e-04,-3.399999999999999702e-04,-2.500000000000000052e-04,-3.299999999999999982e-04,-1.499999999999999869e-04,-5.999999999999999474e-05,5.000000000000000000e+00,2.100000000000000000e+01
4.507700000000000000e+04,5.999999999999999474e-05,1.499999999999999869e-04,1.600000000000000131e-04,-3.399999999999999702e-04,-2.500000000000000052e-04,-3.299999999999999982e-04,-1.499999999999999869e-04,-5.999999999999999474e-05,5.000000000000000000e+00,2.100000000000000000e+01
4.507800000000000000e+04,5.999999999999999474e-05,1.499999999999999869e-04,1.600000000000000131e-04,-3.399999999999999702e-04,-2.500000000000000052e-04,-3.299999999999999982e-04,-1.499999999999999869e-04,-5.999999999999999474e-05,5.000000000000000000e+00,2.100000000000000000e+01
4.507900000000000000e+04,5.999999999999999474e-05,1.499999999999999869e-04,1.600000000000000131e-04,-3.399999999999999702e-04,-2.500000000000000052e-04,-3.299999999999999982e-04,-1.499999999999999869e-04,-5.999999999999999474e-05,5.000000000000000000e+00,2.100000000000000000e+01
4.508000000000000000e+04,5.999999999999999474e-05,1.499999999999999869e-04,1.600000000000000131e-04,-3.399999999999999702e-04,-2.500000000000000052e-04,-3.299999999999999982e-04,-1.499999999999999869e-04,-5.999999999999999474e-05,5.000000000000000000e+00,2.100000000000000000e+01
4.508100000000000000e+04,5.999999999999999474e-05,1.499999999999999869e-04,1.600000000000000131e-04,-3.399999999999999702e-04,-2.500000000000000052e-04,-3.299999999999999982e-04,-1.499999999999999869e-04,-5.999999999999999474e-05,5.000000000000000000e+00,2.100000000000000000e+01
4.508200000000000000e+04,5.999999999999999474e-05,1.499999999999999869e-04,1.600000000000000131e-04,-3.399999999999999702e-04,-2.500000000000000052e-04,-3.299999999999999982e-04,-1.499999999999999869e-04,-5.999999999999999474e-05,5.000000000000000000e+00,2.100000000000000000e+01
4.508300000000000000e+04,5.999999999999999474e-05,1.499999999999999869e-04,1.600000000000000131e-04,-3.399999999999999702e-04,-2.500000000000000052e-04,-3.299999999999999982e-04,-1.499999999999999869e-04,-5.999999999999999474e-05,5.000000000000000000e+00,2.100000000000000000e+01
4.508400000000000000e+04,5.999999999999999474e-05,1.499999999999999869e-04,1.600000000000000131e-04,-3.399999999999999702e-04,-2.500000000000000052e-04,-3.299999999999999982e-04,-1.499999999999999869e-04,-5.999999999999999474e-05,5.000000000000000000e+00,2.100000000000000000e+01
4.508500000000000000e+04,5.999999999999999474e-05,1.499999999999999869e-04,1.600000000000000131e-04,-3.399999999999999702e-04,-2.500000000000000052e-04,-3.299999999999999982e-04,-1.499999999999999869e-04,-5.999999999999999474e-05,5.000000000000000000e+00,2.100000000000000000e+01
4.508600000000000000e+04,5.999999999999999474e-05,1.499999999999999869e-04,1.600000000000000131e-04,-3.399999999999999702e-04,-2.500000000000000052e-04,-3.299999999999999982e-04,-1.499999999999999869e-04,-5.999999999999999474e-05,5.000000000000000000e+00,2.100000000000000000e+01
4.508900000000000000e+04,5.999999999999999474e-05,1.499999999999999869e-04,1.600000000000000131e-04,-3.399999999999999702e-04,-2.500000000000000052e-04,-3.299999999999999982e-04,-1.499999999999999869e-04,-5.999999999999999474e-05,5.000000000000000000e+00,2.100000000000000000e+01
4.509000000000000000e+04,5.999999999999999474e-05,1.499999999999999869e-04,1.600000000000000131e-04,-3.399999999999999702e-04,-2.500000000000000052e-04,-3.299999999999999982e-04,-1.499999999999999869e-04,-5.999999999999999474e-05,5.000000000000000000e+00,2.100000000000000000e+01
4.509100000000000000e+04,5.999999999999999474e-05,1.499999999999999869e-04,1.600000000000000131e-04,-3.399999999999999702e-04,-2.500000000000000052e-04,-3.299999999999999982e-04,-1.499999999999999869e-04,-5.999999999999999474e-05,5.000000000000000000e+00,2.100000000000000000e+01
4.509200000000000000e+04,5.999999999999999474e-05,1.499999999999999869e-04,1.600000000000000131e-04,-3.399999999999999702e-04,-2.500000000000000052e-04,-3.299999999999999982e-04,-1.499999999999999869e-04,-5.999999999999999474e-05,5.000000000000000000e+00,2.100000000000000000e+01
4.509300000000000000e+04,5.999999999999999474e-05,1.499999999999999869e-04,1.600000000000000131e-04,-3.399999999999999702e-04,-2.500000000000000052e-04,-3.299999999999999982e-04,-1.499999999999999869e-04,-5.999999999999999474e-05,5.000000000000000000e+00,2.100000000000000000e+01
4.509400000000000000e+04,5.999999999999999474e-05,1.499999999999999869e-04,1.600000000000000131e-04,-3.399999999999999702e-04,-2.500000000000000052e-04,-3.299999999999999982e-04,-1.499999999999999869e-04,-5.999999999999999474e-05,5.000000000000000000e+00,2.100000000000000000e+01
4.509500000000000000e+04,5.999999999999999474e-05,1.499999999999999869e-04,1.600000000000000131e-04,-3.399999999999999702e-04,-2.500000000000000052e-04,-3.299999999999999982e-04,-1.499999999999999869e-04,-5.999999999999999474e-05,5.000000000000000000e+00,2.100000000000000000e+01
4.509600000000000000e+04,5.999999999999999474e-05,1.499999999999999869e-04,1.600000000000000131e-04,-3.399999999999999702e-04,-2.500000000000000052e-04,-3.299999999999999982e-04,-1.499999999999999869e-04,-5.999999999999999474e-05,5.000000000000000000e+00,2.100000000000000000e+01
4.509700000000000000e+04,-1.499999999999999869e-04,-9.000000000000000567e-05,-1.000000000000000048e-04,-3.600000000000000227e-04,-2.799999999999999755e-04,-1.800000000000000113e-04,-8.000000000000000654e-05,-4.000000000000000327e-05,5.000000000000000000e+00,2.100000000000000000e+01
4.509800000000000000e+04,5.000000000000000240e-05,-5.000000000000000240e-05,-6.999999999999999387e-05,0.000000000000000000e+00,-6.999999999999999387e-05,1.899999999999999834e-04,1.300000000000000157e-04,6.999999999999999387e-05,5.000000000000000000e+00,2.100000000000000000e+01
4.509900000000000000e+04,5.000000000000000240e-05,-5.000000000000000240e-05,-6.999999999999999387e-05,0.000000000000000000e+00,-6.999999999999999387e-05,1.899999999999999834e-04,1.300000000000000157e-04,6.999999999999999387e-05,5.000000000000000000e+00,2.100000000000000000e+01
4.510000000000000000e+04,5.000000000000000240e-05,-5.000000000000000240e-05,-6.999999999999999387e-05,0.000000000000000000e+00,-6.999999999999999387e-05,1.899999999999999834e-04,1.300000000000000157e-04,6.999999999999999387e-05,5.000000000000000000e+00,2.100000000000000000e+01
4.510100000000000000e+04,5.000000000000000240e-05,-5.000000000000000240e-05,-6.999999999999999387e-05,0.000000000000000000e+00,-6.999999999999999387e-05,1.899999999999999834e-04,1.300000000000000157e-04,6.999999999999999387e-05,5.000000000000000000e+00,2.100000000000000000e+01
4.510200000000000000e+04,5.000000000000000240e-05,-5.000000000000000240e-05,-6.999999999999999387e-05,0.000000000000000000e+00,-6.999999999999999387e-05,1.899999999999999834e-04,1.300000000000000157e-04,6.999999999999999387e-05,5.000000000000000000e+00,2.100000000000000000e+01
4.510300000000000000e+04,5.000000000000000240e-05,-5.000000000000000240e-05,-6.999999999999999387e-05,0.000000000000000000e+00,-6.999999999999999387e-05,1.899999999999999834e-04,1.300000000000000157e-04,6.999999999999999387e-05,5.000000000000000000e+00,2.100000000000000000e+01
4.510400000000000000e+04,2.000000000000000164e-05,-8.000000000000000654e-05,2.000000000000000096e-04,-2.000000000000000096e-04,-2.000000000000000164e-05,-1.000000000000000082e-05,-4.000000000000000327e-05,6.999999999999999387e-05,5.000000000000000000e+00,2.100000000000000000e+01
4.510500000000000000e+04,8.499999999999999526e-04,-8.499999999999999526e-04,-4.599999999999999597e-04,-4.200000000000000174e-04,-4.200000000000000174e-04,-6.999999999999999387e-05,2.999999999999999737e-05,3.399999999999999702e-04,5.000000000000000000e+00,2.100000000000000000e+01
4.510600000000000000e+04,8.499999999999999526e-04,-8.499999999999999526e-04,-4.599999999999999597e-04,-4.200000000000000174e-04,-4.200000000000000174e-04,-6.999999999999999387e-05,2.999999999999999737e-05,3.399999999999999702e-04,5.000000000000000000e+00,2.100000000000000000e+01
4.510700000000000000e+04,8.499999999999999526e-04,-8.499999999999999526e-04,-4.599999999999999597e-04,-4.200000000000000174e-04,-4.200000000000000174e-04,-6.999999999999999387e-05,2.999999999999999737e-05,3.399999999999999702e-04,5.000000000000000000e+00,2.100000000000000000e+01
4.510800000000000000e+04,8.499999999999999526e-04,-8.499999999999999526e-04,-4.599999999999999597e-04,-4.200000000000000174e-04,-4.200000000000000174e-04,-6.999999999999999387e-05,2.999999999999999737e-05,3.399999999999999702e-04,5.000000000000000000e+00,2.100000000000000000e+01
4.510900000000000000e+04,8.499999999999999526e-04,-8.499999999999999526e-04,-4.599999999999999597e-04,-4.200000000000000174e-04,-4.200000000000000174e-04,-6.999999999999999387e-05,2.999999999999999737e-05,3.399999999999999702e-04,5.000000000000000000e+00,2.100000000000000000e+01
4.511000000000000000e+04,8.499999999999999526e-04,-8.499999999999999526e-04,-4.599999999999999597e-04,-4.200000000000000174e-04,-4.200000000000000174e-04,-6.999999999999999387e-05,2.999999999999999737e-05,3.399999999999999702e-04,5.000000000000000000e+00,2.100000000000000000e+01
4.511100000000000000e+04,8.499999999999999526e-04,-8.499999999999999526e-04,-4.599999999999999597e-04,-4.200000000000000174e-04,-4.200000000000000174e-04,-6.999999999999999387e-05,2.999999999999999737e-05,3.399999999999999702e-04,5.000000000000000000e+00,2.100000000000000000e+01
4.511200000000000000e+04,8.499999999999999526e-04,-8.499999999999999526e-04,-4.599999999999999597e-04,-4.200000000000000174e-04,-4.200000000000000174e-04,-6.999999999999999387e-05,2.999999999999999737e-05,3.399999999999999702e-04,5.000000000000000000e+00,2.100000000000000000e+01
4.511300000000000000e+04,8.499999999999999526e-04,-8.499999999999999526e-04,-4.599999999999999597e-04,-4.200000000000000174e-04,-4.200000000000000174e-04,-6.999999999999999387e-05,2.999999999999999737e-05,3.399999999999999702e-04,5.000000000000000000e+00,2.100000000000000000e+01
4.511400000000000000e+04,8.499999999999999526e-04,-8.499999999999999526e-04,-4.599999999999999597e-04,-4.200000000000000174e-04,-4.200000000000000174e-04,-6.999999999999999387e-05,2.999999999999999737e-05,3.399999999999999702e-04,5.000000000000000000e+00,2.100000000000000000e+01
4.511500000000000000e+04,8.499999999999999526e-04,-8.499999999999999526e-04,-4.599999999999999597e-04,-4.200000000000000174e-04,-4.200000000000000174e-04,-6.999999999999999387e-05,2.999999999999999737e-05,3.399999999999999702e-04,5.000000000000000000e+00,2.100000000000000000e+01
4.511600000000000000e+04,8.499999999999999526e-04,-8.499999999999999526e-04,-4.599999999999999597e-04,-4.200000000000000174e-04,-4.200000000000000174e-04,-6.999999999999999387e-05,2.999999999999999737e-05,3.399999999999999702e-04,5.000000000000000000e+00,2.100000000000000000e+01
4.511700000000000000e+04,8.499999999999999526e-04,-8.499999999999999526e-04,-4.599999999999999597e-04,-4.200000000000000174e-04,-4.200000000000000174e-04,-6.999999999999999387e-05,2.999999999999999737e-05,3.399999999999999702e-04,5.000000000000000000e+00,2.100000000000000000e+01
4.511800000000000000e+04,8.499999999999999526e-04,-8.499999999999999526e-04,-4.599999999999999597e-04,-4.200000000000000174e-04,-4.200000000000000174e-04,-6.999999999999999387e-05,2.999999999999999737e-05,3.399999999999999702e-04,5.000000000000000000e+00,2.100000000000000000e+01
4.511900000000000000e+04,8.499999999999999526e-04,-8.499999999999999526e-04,-4.599999999999999597e-04,-4.200000000000000174e-04,-4.200000000000000174e-04,-6.999999999999999387e-05,2.999999999999999737e-05,3.399999999999999702e-04,5.000000000000000000e+00,2.100000000000000000e+01
4.512000000000000000e+04,8.499999999999999526e-04,-8.499999999999999526e-04,-4.599999999999999597e-04,-4.200000000000000174e-04,-4.200000000000000174e-04,-6.999999999999999387e-05,2.999999999999999737e-05,3.399999999999999702e-04,5.000000000000000000e+00,2.100000000000000000e+01
4.512100000000000000e+04,8.499999999999999526e-04,-8.499999999999999526e-04,-4.599999999999999597e-04,-4.200000000000000174e-04,-4.200000000000000174e-04,-6.999999999999999387e-05,2.999999999999999737e-05,3.399999999999999702e-04,5.000000000000000000e+00,2.100000000000000000e+01
4.512200000000000000e+04,8.499999999999999526e-04,-8.499999999999999526e-04,-4.599999999999999597e-04,-4.200000000000000174e-04,-4.200000000000000174e-04,-6.999999999999999387e-05,2.999999999999999737e-05,3.399999999999999702e-04,5.000000000000000000e+00,2.100000000000000000e+01
4.512300000000000000e+04,8.499999999999999526e-04,-8.499999999999999526e-04,-4.599999999999999597e-04,-4.200000000000000174e-04,-4.200000000000000174e-04,-6.999999999999999387e-05,2.999999999999999737e-05,3.399999999999999702e-04,5.000000000000000000e+00,2.100000000000000000e+01
4.512400000000000000e+04,8.499999999999999526e-04,-8.499999999999999526e-04,-4.599999999999999597e-04,-4.200000000000000174e-04,-4.200000000000000174e-04,-6.999999999999999387e-05,2.999999999999999737e-05,3.399999999999999702e-04,5.000000000000000000e+00,2.100000000000000000e+01
4.512500000000000000e+04,8.499999999999999526e-04,-8.499999999999999526e-04,-4.599999999999999597e-04,-4.200000000000000174e-04,-4.200000000000000174e-04,-6.999999999999999387e-05,2.999999999999999737e-05,3.399999999999999702e-04,5.000000000000000000e+00,2.100000000000000000e+01
4.512600000000000000e+04,8.499999999999999526e-04,-8.499999999999999526e-04,-4.599999999999999597e-04,-4.200000000000000174e-04,-4.200000000000000174e-04,-6.999999999999999387e-05,2.999999999999999737e-05,3.399999999999999702e-04,5.000000000000000000e+00,2.100000000000000000e+01
4.512700000000000000e+04,-1.000000000000000048e-04,-6.999999999999999387e-05,-2.000000000000000096e-04,-1.059999999999999961e-03,-1.149999999999999981e-03,-2.999999999999999737e-04,-1.399999999999999877e-04,-9.000000000000000567e-05,5.000000000000000000e+00,2.100000000000000000e+01
4.512800000000000000e+04,-1.800000000000000113e-04,3.099999999999999999e-04,2.000000000000000096e-04,7.299999999999999632e-04,8.300000000000001170e-04,-8.000000000000000654e-05,-5.999999999999999474e-05,-1.100000000000000039e-04,5.000000000000000000e+00,2.100000000000000000e+01
4.512900000000000000e+04,-1.800000000000000113e-04,3.099999999999999999e-04,2.000000000000000096e-04,7.299999999999999632e-04,8.300000000000001170e-04,-8.000000000000000654e-05,-5.999999999999999474e-05,-1.100000000000000039e-04,5.000000000000000000e+00,2.100000000000000000e+01
4.513000000000000000e+04,-1.800000000000000113e-04,3.099999999999999999e-04,2.000000000000000096e-04,7.299999999999999632e-04,8.300000000000001170e-04,-8.000000000000000654e-05,-5.999999999999999474e-05,-1.100000000000000039e-04,5.000000000000000000e+00,2.100000000000000000e+01
4.513100000000000000e+04,-1.800000000000000113e-04,3.099999999999999999e-04,2.000000000000000096e-04,7.299999999999999632e-04,8.300000000000001170e-04,-8.000000000000000654e-05,-5.999999999999999474e-05,-1.100000000000000039e-04,5.000000000000000000e+00,2.100000000000000000e+01
4.513200000000000000e+04,-1.800000000000000113e-04,3.099999999999999999e-04,2.000000000000000096e-04,7.299999999999999632e-04,8.300000000000001170e-04,-8.000000000000000654e-05,-5.999999999999999474e-05,-1.100000000000000039e-04,5.000000000000000000e+00,2.100000000000000000e+01
4.513300000000000000e+04,-1.800000000000000113e-04,3.099999999999999999e-04,2.000000000000000096e-04,7.299999999999999632e-04,8.300000000000001170e-04,-8.000000000000000654e-05,-5.999999999999999474e-05,-1.100000000000000039e-04,5.000000000000000000e+00,2.100000000000000000e+01
4.513400000000000000e+04,-1.800000000000000113e-04,3.099999999999999999e-04,2.000000000000000096e-04,7.299999999999999632e-04,8.300000000000001170e-04,-8.000000000000000654e-05,-5.999999999999999474e-05,-1.100000000000000039e-04,5.000000000000000000e+00,2.100000000000000000e+01
4.513500000000000000e+04,-1.800000000000000113e-04,3.099999999999999999e-04,2.000000000000000096e-04,7.299999999999999632e-04,8.300000000000001170e-04,-8.000000000000000654e-05,-5.999999999999999474e-05,-1.100000000000000039e-04,5.000000000000000000e+00,2.100000000000000000e+01
4.513600000000000000e+04,-1.800000000000000113e-04,3.099999999999999999e-04,2.000000000000000096e-04,7.299999999999999632e-04,8.300000000000001170e-04,-8.000000000000000654e-05,-5.999999999999999474e-05,-1.100000000000000039e-04,5.000000000000000000e+00,2.100000000000000000e+01
4.513900000000000000e+04,-1.800000000000000113e-04,3.099999999999999999e-04,2.000000000000000096e-04,7.299999999999999632e-04,8.300000000000001170e-04,-8.000000000000000654e-05,-5.999999999999999474e-05,-1.100000000000000039e-04,5.000000000000000000e+00,2.100000000000000000e+01
4.514000000000000000e+04,-1.800000000000000113e-04,3.099999999999999999e-04,2.000000000000000096e-04,7.299999999999999632e-04,8.300000000000001170e-04,-8.000000000000000654e-05,-5.999999999999999474e-05,-1.100000000000000039e-04,5.000000000000000000e+00,2.100000000000000000e+01
4.514100000000000000e+04,1.600000000000000131e-04,-5.999999999999999474e-05,-8.000000000000000654e-05,4.000000000000000327e-05,4.000000000000000327e-05,1.399999999999999877e-04,1.699999999999999851e-04,6.999999999999999387e-05,5.000000000000000000e+00,2.100000000000000000e+01
4.514200000000000000e+04,1.600000000000000131e-04,-5.999999999999999474e-05,-8.000000000000000654e-05,4.000000000000000327e-05,4.000000000000000327e-05,1.399999999999999877e-04,1.699999999999999851e-04,6.999999999999999387e-05,5.000000000000000000e+00,2.100000000000000000e+01
4.514300000000000000e+04,1.600000000000000131e-04,-5.999999999999999474e-05,-8.000000000000000654e-05,4.000000000000000327e-05,4.000000000000000327e-05,1.399999999999999877e-04,1.699999999999999851e-04,6.999999999999999387e-05,5.000000000000000000e+00,2.100000000000000000e+01
4.514400000000000000e+04,1.600000000000000131e-04,-5.999999999999999474e-05,-8.000000000000000654e-05,4.000000000000000327e-05,4.000000000000000327e-05,1.399999999999999877e-04,1.699999999999999851e-04,6.999999999999999387e-05,5.000000000000000000e+00,2.100000000000000000e+01
4.514500000000000000e+04,1.600000000000000131e-04,-5.999999999999999474e-05,-8.000000000000000654e-05,4.000000000000000327e-05,4.000000000000000327e-05,1.399999999999999877e-04,1.699999999999999851e-04,6.999999999999999387e-05,5.000000000000000000e+00,2.100000000000000000e+01
4.514600000000000000e+04,1.600000000000000131e-04,-5.999999999999999474e-05,-8.000000000000000654e-05,4.000000000000000327e-05,4.000000000000000327e-05,1.399999999999999877e-04,1.699999999999999851e-04,6.999999999999999387e-05,5.000000000000000000e+00,2.100000000000000000e+01
4.514700000000000000e+04,1.600000000000000131e-04,-5.999999999999999474e-05,-8.000000000000000654e-05,4.000000000000000327e-05,4.000000000000000327e-05,1.399999999999999877e-04,1.699999999999999851e-04,6.999999999999999387e-05,5.000000000000000000e+00,2.100000000000000000e+01
4.514800000000000000e+04,1.600000000000000131e-04,-5.999999999999999474e-05,-8.000000000000000654e-05,4.000000000000000327e-05,4.000000000000000327e-05,1.399999999999999877e-04,1.699999999999999851e-04,6.999999999999999387e-05,5.000000000000000000e+00,2.100000000000000000e+01
4.514900000000000000e+04,-2.500000000000000052e-04,-2.999999999999999737e-05,-1.800000000000000113e-04,1.800000000000000113e-04,5.500000000000000331e-04,5.299999999999999807e-04,1.199999999999999895e-04,-1.100000000000000039e-04,5.000000000000000000e+00,2.100000000000000000e+01
4.515000000000000000e+04,-2.500000000000000052e-04,-2.999999999999999737e-05,-1.800000000000000113e-04,1.800000000000000113e-04,5.500000000000000331e-04,5.299999999999999807e-04,1.199999999999999895e-04,-1.100000000000000039e-04,5.000000000000000000e+00,2.100000000000000000e+01
4.515100000000000000e+04,-2.500000000000000052e-04,-2.999999999999999737e-05,-1.800000000000000113e-04,1.800000000000000113e-04,5.500000000000000331e-04,5.299999999999999807e-04,1.199999999999999895e-04,-1.100000000000000039e-04,5.000000000000000000e+00,2.100000000000000000e+01
4.515200000000000000e+04,-2.500000000000000052e-04,-2.999999999999999737e-05,-1.800000000000000113e-04,1.800000000000000113e-04,5.500000000000000331e-04,5.299999999999999807e-04,1.199999999999999895e-04,-1.100000000000000039e-04,5.000000000000000000e+00,2.100000000000000000e+01
4.515300000000000000e+04,-2.500000000000000052e-04,-2.999999999999999737e-05,-1.800000000000000113e-04,1.800000000000000113e-04,5.500000000000000331e-04,5.299999999999999807e-04,1.199999999999999895e-04,-1.100000000000000039e-04,5.000000000000000000e+00,2.100000000000000000e+01
4.515400000000000000e+04,-2.500000000000000052e-04,-2.999999999999999737e-05,-1.800000000000000113e-04,1.800000000000000113e-04,5.500000000000000331e-04,5.299999999999999807e-04,1.199999999999999895e-04,-1.100000000000000039e-04,5.000000000000000000e+00,2.100000000000000000e+01
4.515500000000000000e+04,-2.500000000000000052e-04,-2.999999999999999737e-05,-1.800000000000000113e-04,1.800000000000000113e-04,5.500000000000000331e-04,5.299999999999999807e-04,1.199999999999999895e-04,-1.100000000000000039e-04,5.000000000000000000e+00,2.100000000000000000e+01
4.515700000000000000e+04,-2.500000000000000052e-04,-2.999999999999999737e-05,-1.800000000000000113e-04,1.800000000000000113e-04,5.500000000000000331e-04,5.299999999999999807e-04,1.199999999999999895e-04,-1.100000000000000039e-04,5.000000000000000000e+00,2.100000000000000000e+01
4.515800000000000000e+04,-2.500000000000000052e-04,-2.999999999999999737e-05,-1.800000000000000113e-04,1.800000000000000113e-04,5.500000000000000331e-04,5.299999999999999807e-04,1.199999999999999895e-04,-1.100000000000000039e-04,5.000000000000000000e+00,2.100000000000000000e+01
4.515900000000000000e+04,-2.500000000000000052e-04,-2.999999999999999737e-05,-1.800000000000000113e-04,1.800000000000000113e-04,5.500000000000000331e-04,5.299999999999999807e-04,1.199999999999999895e-04,-1.100000000000000039e-04,5.000000000000000000e+00,2.100000000000000000e+01
4.516000000000000000e+04,-2.500000000000000052e-04,-2.999999999999999737e-05,-1.800000000000000113e-04,1.800000000000000113e-04,5.500000000000000331e-04,5.299999999999999807e-04,1.199999999999999895e-04,-1.100000000000000039e-04,5.000000000000000000e+00,2.100000000000000000e+01
4.516100000000000000e+04,-2.500000000000000052e-04,-2.999999999999999737e-05,-1.800000000000000113e-04,1.800000000000000113e-04,5.500000000000000331e-04,5.299999999999999807e-04,1.199999999999999895e-04,-1.100000000000000039e-04,5.000000000000000000e+00,2.100000000000000000e+01
4.516200000000000000e+04,-2.500000000000000052e-04,-2.999999999999999737e-05,-1.800000000000000113e-04,1.800000000000000113e-04,5.500000000000000331e-04,5.299999999999999807e-04,1.199999999999999895e-04,-1.100000000000000039e-04,5.000000000000000000e+00,2.100000000000000000e+01
4.516300000000000000e+04,-2.500000000000000052e-04,-2.999999999999999737e-05,-1.800000000000000113e-04,1.800000000000000113e-04,5.500000000000000331e-04,5.299999999999999807e-04,1.199999999999999895e-04,-1.100000000000000039e-04,5.000000000000000000e+00,2.100000000000000000e+01
4.516400000000000000e+04,-2.500000000000000052e-04,-2.999999999999999737e-05,-1.800000000000000113e-04,1.800000000000000113e-04,5.500000000000000331e-04,5.299999999999999807e-04,1.199999999999999895e-04,-1.100000000000000039e-04,5.000000000000000000e+00,2.100000000000000000e+01
4.516500000000000000e+04,-1.199999999999999895e-04,2.999999999999999737e-05,-1.300000000000000157e-04,-6.099999999999999737e-04,-8.699999999999998967e-04,-2.200000000000000078e-04,-5.000000000000000240e-05,-6.999999999999999387e-05,5.000000000000000000e+00,2.100000000000000000e+01
4.516600000000000000e+04,-2.200000000000000078e-04,-1.199999999999999895e-04,-1.399999999999999877e-04,1.600000000000000131e-04,8.499999999999999526e-04,5.699999999999999772e-04,1.800000000000000113e-04,0.000000000000000000e+00,5.000000000000000000e+00,2.100000000000000000e+01
4.516700000000000000e+04,-2.200000000000000078e-04,-1.199999999999999895e-04,-1.399999999999999877e-04,1.600000000000000131e-04,8.499999999999999526e-04,5.699999999999999772e-04,1.800000000000000113e-04,0.000000000000000000e+00,5.000000000000000000e+00,2.100000000000000000e+01
4.516800000000000000e+04,-2.200000000000000078e-04,-1.199999999999999895e-04,-1.399999999999999877e-04,1.600000000000000131e-04,8.499999999999999526e-04,5.699999999999999772e-04,1.800000000000000113e-04,0.000000000000000000e+00,5.000000000000000000e+00,2.100000000000000000e+01
4.516900000000000000e+04,-2.200000000000000078e-04,-1.199999999999999895e-04,-1.399999999999999877e-04,1.600000000000000131e-04,8.499999999999999526e-04,5.699999999999999772e-04,1.800000000000000113e-04,0.000000000000000000e+00,5.000000000000000000e+00,2.100000000000000000e+01
4.517000000000000000e+04,-2.200000000000000078e-04,-1.199999999999999895e-04,-1.399999999999999877e-04,1.600000000000000131e-04,8.499999999999999526e-04,5.699999999999999772e-04,1.800000000000000113e-04,0.000000000000000000e+00,5.000000000000000000e+00,2.100000000000000000e+01
4.517100000000000000e+04,-2.200000000000000078e-04,-1.199999999999999895e-04,-1.399999999999999877e-04,1.600000000000000131e-04,8.499999999999999526e-04,5.699999999999999772e-04,1.800000000000000113e-04,0.000000000000000000e+00,5.000000000000000000e+00,2.100000000000000000e+01
4.517200000000000000e+04,-2.200000000000000078e-04,-1.199999999999999895e-04,-1.399999999999999877e-04,1.600000000000000131e-04,8.499999999999999526e-04,5.699999999999999772e-04,1.800000000000000113e-04,0.000000000000000000e+00,5.000000000000000000e+00,2.100000000000000000e+01
4.517300000000000000e+04,-2.200000000000000078e-04,-1.199999999999999895e-04,-1.399999999999999877e-04,1.600000000000000131e-04,8.499999999999999526e-04,5.699999999999999772e-04,1.800000000000000113e-04,0.000000000000000000e+00,5.000000000000000000e+00,2.100000000000000000e+01
4.517400000000000000e+04,-2.200000000000000078e-04,-1.199999999999999895e-04,-1.399999999999999877e-04,1.600000000000000131e-04,8.499999999999999526e-04,5.699999999999999772e-04,1.800000000000000113e-04,0.000000000000000000e+00,5.000000000000000000e+00,2.100000000000000000e+01
4.517500000000000000e+04,-2.200000000000000078e-04,-1.199999999999999895e-04,-1.399999999999999877e-04,1.600000000000000131e-04,8.499999999999999526e-04,5.699999999999999772e-04,1.800000000000000113e-04,0.000000000000000000e+00,5.000000000000000000e+00,2.100000000000000000e+01
4.517600000000000000e+04,-2.200000000000000078e-04,-1.199999999999999895e-04,-1.399999999999999877e-04,1.600000000000000131e-04,8.499999999999999526e-04,5.699999999999999772e-04,1.800000000000000113e-04,0.000000000000000000e+00,5.000000000000000000e+00,2.100000000000000000e+01
4.517700000000000000e+04,-2.200000000000000078e-04,-1.199999999999999895e-04,-1.399999999999999877e-04,1.600000000000000131e-04,8.499999999999999526e-04,5.699999999999999772e-04,1.800000000000000113e-04,0.000000000000000000e+00,5.000000000000000000e+00,2.100000000000000000e+01
4.517800000000000000e+04,-2.200000000000000078e-04,-1.199999999999999895e-04,-1.399999999999999877e-04,1.600000000000000131e-04,8.499999999999999526e-04,5.699999999999999772e-04,1.800000000000000113e-04,0.000000000000000000e+00,5.000000000000000000e+00,2.100000000000000000e+01
4.517900000000000000e+04,-2.200000000000000078e-04,-1.199999999999999895e-04,-1.399999999999999877e-04,1.600000000000000131e-04,8.499999999999999526e-04,5.699999999999999772e-04,1.800000000000000113e-04,0.000000000000000000e+00,5.000000000000000000e+00,2.100000000000000000e+01
4.518000000000000000e+04,-2.200000000000000078e-04,-1.199999999999999895e-04,-1.399999999999999877e-04,1.600000000000000131e-04,8.499999999999999526e-04,5.699999999999999772e-04,1.800000000000000113e-04,0.000000000000000000e+00,5.000000000000000000e+00,2.100000000000000000e+01
4.518100000000000000e+04,-2.200000000000000078e-04,-1.199999999999999895e-04,-1.399999999999999877e-04,1.600000000000000131e-04,8.499999999999999526e-04,5.699999999999999772e-04,1.800000000000000113e-04,0.000000000000000000e+00,5.000000000000000000e+00,2.100000000000000000e+01
4.518200000000000000e+04,-2.200000000000000078e-04,-1.199999999999999895e-04,-1.399999999999999877e-04,1.600000000000000131e-04,8.499999999999999526e-04,5.699999999999999772e-04,1.800000000000000113e-04,0.000000000000000000e+00,5.000000000000000000e+00,2.100000000000000000e+01
4.518300000000000000e+04,-2.200000000000000078e-04,-1.199999999999999895e-04,-1.399999999999999877e-04,1.600000000000000131e-04,8.499999999999999526e-04,5.699999999999999772e-04,1.800000000000000113e-04,0.000000000000000000e+00,5.000000000000000000e+00,2.100000000000000000e+01
4.518400000000000000e+04,-2.200000000000000078e-04,-1.199999999999999895e-04,-1.399999999999999877e-04,1.600000000000000131e-04,8.499999999999999526e-04,5.699999999999999772e-04,1.800000000000000113e-04,0.000000000000000000e+00,5.000000000000000000e+00,2.100000000000000000e+01
4.518500000000000000e+04,-2.200000000000000078e-04,-1.199999999999999895e-04,-1.399999999999999877e-04,1.600000000000000131e-04,8.499999999999999526e-04,5.699999999999999772e-04,1.800000000000000113e-04,0.000000000000000000e+00,5.000000000000000000e+00,2.100000000000000000e+01
4.518600000000000000e+04,-2.200000000000000078e-04,-1.199999999999999895e-04,-1.399999999999999877e-04,1.600000000000000131e-04,8.499999999999999526e-04,5.699999999999999772e-04,1.800000000000000113e-04,0.000000000000000000e+00,5.000000000000000000e+00,2.100000000000000000e+01
4.518900000000000000e+04,-2.200000000000000078e-04,-1.199999999999999895e-04,-1.399999999999999877e-04,1.600000000000000131e-04,8.499999999999999526e-04,5.699999999999999772e-04,1.800000000000000113e-04,0.000000000000000000e+00,5.000000000000000000e+00,2.100000000000000000e+01
4.519000000000000000e+04,-2.200000000000000078e-04,-1.199999999999999895e-04,-1.399999999999999877e-04,1.600000000000000131e-04,8.499999999999999526e-04,5.699999999999999772e-04,1.800000000000000113e-04,0.000000000000000000e+00,5.000000000000000000e+00,2.100000000000000000e+01
4.519100000000000000e+04,-2.200000000000000078e-04,-1.199999999999999895e-04,-1.399999999999999877e-04,1.600000000000000131e-04,8.499999999999999526e-04,5.699999999999999772e-04,1.800000000000000113e-04,0.000000000000000000e+00,5.000000000000000000e+00,2.100000000000000000e+01
4.519200000000000000e+04,-2.200000000000000078e-04,-1.199999999999999895e-04,-1.399999999999999877e-04,1.600000000000000131e-04,8.499999999999999526e-04,5.699999999999999772e-04,1.800000000000000113e-04,0.000000000000000000e+00,5.000000000000000000e+00,2.100000000000000000e+01
4.519300000000000000e+04,-2.200000000000000078e-04,-1.199999999999999895e-04,-1.399999999999999877e-04,1.600000000000000131e-04,8.499999999999999526e-04,5.699999999999999772e-04,1.800000000000000113e-04,0.000000000000000000e+00,5.000000000000000000e+00,2.100000000000000000e+01
4.519400000000000000e+04,-2.200000000000000078e-04,-1.199999999999999895e-04,-1.399999999999999877e-04,1.600000000000000131e-04,8.499999999999999526e-04,5.699999999999999772e-04,1.800000000000000113e-04,0.000000000000000000e+00,5.000000000000000000e+00,2.100000000000000000e+01
4.519500000000000000e+04,1.000000000000000048e-04,-2.100000000000000087e-04,-3.600000000000000227e-04,-5.099999999999999282e-04,-8.499999999999999526e-04,-2.200000000000000078e-04,-1.100000000000000039e-04,-1.000000000000000048e-04,5.000000000000000000e+00,2.100000000000000000e+01
4.519600000000000000e+04,-5.999999999999999474e-05,1.100000000000000039e-04,1.600000000000000131e-04,-6.999999999999999387e-05,-7.900000000000000121e-04,-2.000000000000000096e-04,-6.999999999999999387e-05,-2.000000000000000164e-05,5.000000000000000000e+00,2.100000000000000000e+01
4.519700000000000000e+04,-5.999999999999999474e-05,1.100000000000000039e-04,1.600000000000000131e-04,-6.999999999999999387e-05,-7.900000000000000121e-04,-2.000000000000000096e-04,-6.999999999999999387e-05,-2.000000000000000164e-05,5.000000000000000000e+00,2.100000000000000000e+01
4.519800000000000000e+04,-5.999999999999999474e-05,1.100000000000000039e-04,1.600000000000000131e-04,-6.999999999999999387e-05,-7.900000000000000121e-04,-2.000000000000000096e-04,-6.999999999999999387e-05,-2.000000000000000164e-05,5.000000000000000000e+00,2.100000000000000000e+01
4.519900000000000000e+04,-5.999999999999999474e-05,1.100000000000000039e-04,1.600000000000000131e-04,-6.999999999999999387e-05,-7.900000000000000121e-04,-2.000000000000000096e-04,-6.999999999999999387e-05,-2.000000000000000164e-05,5.000000000000000000e+00,2.100000000000000000e+01
4.520000000000000000e+04,-5.999999999999999474e-05,1.100000000000000039e-04,1.600000000000000131e-04,-6.999999999999999387e-05,-7.900000000000000121e-04,-2.000000000000000096e-04,-6.999999999999999387e-05,-2.000000000000000164e-05,5.000000000000000000e+00,2.100000000000000000e+01
4.520100000000000000e+04,4.099999999999999912e-04,2.999999999999999737e-04,1.199999999999999895e-04,1.499999999999999869e-04,-8.000000000000000654e-05,4.000000000000000327e-05,-5.000000000000000240e-05,0.000000000000000000e+00,5.000000000000000000e+00,2.100000000000000000e+01
4.520200000000000000e+04,4.099999999999999912e-04,2.999999999999999737e-04,1.199999999999999895e-04,1.499999999999999869e-04,-8.000000000000000654e-05,4.000000000000000327e-05,-5.000000000000000240e-05,0.000000000000000000e+00,5.000000000000000000e+00,2.100000000000000000e+01
4.520300000000000000e+04,4.099999999999999912e-04,2.999999999999999737e-04,1.199999999999999895e-04,1.499999999999999869e-04,-8.000000000000000654e-05,4.000000000000000327e-05,-5.000000000000000240e-05,0.000000000000000000e+00,5.000000000000000000e+00,2.100000000000000000e+01
4.520400000000000000e+04,4.099999999999999912e-04,2.999999999999999737e-04,1.199999999999999895e-04,1.499999999999999869e-04,-8.000000000000000654e-05,4.000000000000000327e-05,-5.000000000000000240e-05,0.000000000000000000e+00,5.000000000000000000e+00,2.100000000000000000e+01
4.520500000000000000e+04,4.099999999999999912e-04,2.999999999999999737e-04,1.199999999999999895e-04,1.499999999999999869e-04,-8.000000000000000654e-05,4.000000000000000327e-05,-5.000000000000000240e-05,0.000000000000000000e+00,5.000000000000000000e+00,2.100000000000000000e+01
4.520600000000000000e+04,4.099999999999999912e-04,2.999999999999999737e-04,1.199999999999999895e-04,1.499999999999999869e-04,-8.000000000000000654e-05,4.000000000000000327e-05,-5.000000000000000240e-05,0.000000000000000000e+00,5.000000000000000000e+00,2.100000000000000000e+01
4.520700000000000000e+04,4.099999999999999912e-04,2.999999999999999737e-04,1.199999999999999895e-04,1.499999999999999869e-04,-8.000000000000000654e-05,4.000000000000000327e-05,-5.000000000000000240e-05,0.000000000000000000e+00,5.000000000000000000e+00,2.100000000000000000e+01
4.520800000000000000e+04,4.099999999999999912e-04,2.999999999999999737e-04,1.199999999999999895e-04,1.499999999999999869e-04,-8.000000000000000654e-05,4.000000000000000327e-05,-5.000000000000000240e-05,0.000000000000000000e+00,5.000000000000000000e+00,2.100000000000000000e+01
4.520900000000000000e+04,4.099999999999999912e-04,2.999999999999999737e-04,1.199999999999999895e-04,1.499999999999999869e-04,-8.000000000000000654e-05,4.000000000000000327e-05,-5.000000000000000240e-05,0.000000000000000000e+00,5.000000000000000000e+00,2.100000000000000000e+01
4.521000000000000000e+04,4.099999999999999912e-04,2.999999999999999737e-04,1.199999999999999895e-04,1.499999999999999869e-04,-8.000000000000000654e-05,4.000000000000000327e-05,-5.000000000000000240e-05,0.000000000000000000e+00,5.000000000000000000e+00,2.100000000000000000e+01
4.521100000000000000e+04,4.099999999999999912e-04,2.999999999999999737e-04,1.199999999999999895e-04,1.499999999999999869e-04,-8.000000000000000654e-05,4.000000000000000327e-05,-5.000000000000000240e-05,0.000000000000000000e+00,5.000000000000000000e+00,2.100000000000000000e+01
4.521200000000000000e+04,4.099999999999999912e-04,2.999999999999999737e-04,1.199999999999999895e-04,1.499999999999999869e-04,-8.000000000000000654e-05,4.000000000000000327e-05,-5.000000000000000240e-05,0.000000000000000000e+00,5.000000000000000000e+00,2.100000000000000000e+01
4.521300000000000000e+04,4.099999999999999912e-04,2.999999999999999737e-04,1.199999999999999895e-04,1.499999999999999869e-04,-8.000000000000000654e-05,4.000000000000000327e-05,-5.000000000000000240e-05,0.000000000000000000e+00,5.000000000000000000e+00,2.100000000000000000e+01
4.521400000000000000e+04,4.099999999999999912e-04,2.999999999999999737e-04,1.199999999999999895e-04,1.499999999999999869e-04,-8.000000000000000654e-05,4.000000000000000327e-05,-5.000000000000000240e-05,0.000000000000000000e+00,5.000000000000000000e+00,2.100000000000000000e+01
4.521500000000000000e+04,4.099999999999999912e-04,2.999999999999999737e-04,1.199999999999999895e-04,1.499999999999999869e-04,-8.000000000000000654e-05,4.000000000000000327e-05,-5.000000000000000240e-05,0.000000000000000000e+00,5.000000000000000000e+00,2.100000000000000000e+01
4.521600000000000000e+04,4.099999999999999912e-04,2.999999999999999737e-04,1.199999999999999895e-04,1.499999999999999869e-04,-8.000000000000000654e-05,4.000000000000000327e-05,-5.000000000000000240e-05,0.000000000000000000e+00,5.000000000000000000e+00,2.100000000000000000e+01
4.521700000000000000e+04,4.099999999999999912e-04,2.999999999999999737e-04,1.199999999999999895e-04,1.499999999999999869e-04,-8.000000000000000654e-05,4.000000000000000327e-05,-5.000000000000000240e-05,0.000000000000000000e+00,5.000000000000000000e+00,2.100000000000000000e+01
4.521800000000000000e+04,4.099999999999999912e-04,2.999999999999999737e-04,1.199999999999999895e-04,1.499999999999999869e-04,-8.000000000000000654e-05,4.000000000000000327e-05,-5.000000000000000240e-05,0.000000000000000000e+00,5.000000000000000000e+00,2.100000000000000000e+01
4.521900000000000000e+04,4.099999999999999912e-04,2.999999999999999737e-04,1.199999999999999895e-04,1.499999999999999869e-04,-8.000000000000000654e-05,4.000000000000000327e-05,-5.000000000000000240e-05,0.000000000000000000e+00,5.000000000000000000e+00,2.100000000000000000e+01
4.522000000000000000e+04,4.099999999999999912e-04,2.999999999999999737e-04,1.199999999999999895e-04,1.499999999999999869e-04,-8.000000000000000654e-05,4.000000000000000327e-05,-5.000000000000000240e-05,0.000000000000000000e+00,5.000000000000000000e+00,2.100000000000000000e+01
4.522100000000000000e+04,4.099999999999999912e-04,2.999999999999999737e-04,1.199999999999999895e-04,1.499999999999999869e-04,-8.000000000000000654e-05,4.000000000000000327e-05,-5.000000000000000240e-05,0.000000000000000000e+00,5.000000000000000000e+00,2.100000000000000000e+01
4.522200000000000000e+04,4.099999999999999912e-04,2.999999999999999737e-04,1.199999999999999895e-04,1.499999999999999869e-04,-8.000000000000000654e-05,4.000000000000000327e-05,-5.000000000000000240e-05,0.000000000000000000e+00,5.000000000000000000e+00,2.100000000000000000e+01
4.522300000000000000e+04,4.099999999999999912e-04,2.999999999999999737e-04,1.199999999999999895e-04,1.499999999999999869e-04,-8.000000000000000654e-05,4.000000000000000327e-05,-5.000000000000000240e-05,0.000000000000000000e+00,5.000000000000000000e+00,2.100000000000000000e+01
4.522400000000000000e+04,4.099999999999999912e-04,2.999999999999999737e-04,1.199999999999999895e-04,1.499999999999999869e-04,-8.000000000000000654e-05,4.000000000000000327e-05,-5.000000000000000240e-05,0.000000000000000000e+00,5.000000000000000000e+00,2.100000000000000000e+01
4.522500000000000000e+04,-2.000000000000000096e-04,-1.000000000000000082e-05,2.399999999999999790e-04,6.999999999999999387e-05,-7.099999999999999107e-04,-2.299999999999999799e-04,-1.199999999999999895e-04,-1.300000000000000157e-04,5.000000000000000000e+00,2.100000000000000000e+01
4.522600000000000000e+04,-2.000000000000000096e-04,-1.000000000000000082e-05,2.399999999999999790e-04,6.999999999999999387e-05,-7.099999999999999107e-04,-2.299999999999999799e-04,-1.199999999999999895e-04,-1.300000000000000157e-04,5.000000000000000000e+00,2.100000000000000000e+01
4.522700000000000000e+04,-1.699999999999999851e-04,-6.999999999999999387e-05,-1.399999999999999877e-04,3.600000000000000227e-04,5.000000000000000240e-05,0.000000000000000000e+00,-1.000000000000000048e-04,-1.000000000000000048e-04,5.000000000000000000e+00,2.100000000000000000e+01
4.522800000000000000e+04,2.999999999999999737e-05,8.000000000000000654e-05,-2.999999999999999737e-05,-1.100000000000000039e-04,-9.100000000000000016e-04,4.000000000000000327e-05,8.000000000000000654e-05,5.999999999999999474e-05,5.000000000000000000e+00,2.100000000000000000e+01
4.522900000000000000e+04,2.999999999999999737e-05,8.000000000000000654e-05,-2.999999999999999737e-05,-1.100000000000000039e-04,-9.100000000000000016e-04,4.000000000000000327e-05,8.000000000000000654e-05,5.999999999999999474e-05,5.000000000000000000e+00,2.100000000000000000e+01
4.523000000000000000e+04,2.999999999999999737e-05,8.000000000000000654e-05,-2.999999999999999737e-05,-1.100000000000000039e-04,-9.100000000000000016e-04,4.000000000000000327e-05,8.000000000000000654e-05,5.999999999999999474e-05,5.000000000000000000e+00,2.100000000000000000e+01
4.523100000000000000e+04,2.999999999999999737e-05,8.000000000000000654e-05,-2.999999999999999737e-05,-1.100000000000000039e-04,-9.100000000000000016e-04,4.000000000000000327e-05,8.000000000000000654e-05,5.999999999999999474e-05,5.000000000000000000e+00,2.100000000000000000e+01
4.523200000000000000e+04,2.999999999999999737e-05,8.000000000000000654e-05,-2.999999999999999737e-05,-1.100000000000000039e-04,-9.100000000000000016e-04,4.000000000000000327e-05,8.000000000000000654e-05,5.999999999999999474e-05,5.000000000000000000e+00,2.100000000000000000e+01
4.523300000000000000e+04,2.999999999999999737e-05,8.000000000000000654e-05,-2.999999999999999737e-05,-1.100000000000000039e-04,-9.100000000000000016e-04,4.000000000000000327e-05,8.000000000000000654e-05,5.999999999999999474e-05,5.000000000000000000e+00,2.100000000000000000e+01
4.523400000000000000e+04,2.999999999999999737e-05,8.000000000000000654e-05,-2.999999999999999737e-05,-1.100000000000000039e-04,-9.100000000000000016e-04,4.000000000000000327e-05,8.000000000000000654e-05,5.999999999999999474e-05,5.000000000000000000e+00,2.100000000000000000e+01
