3.418300000000000000e+04,-1.000000000000000082e-05,-2.999999999999999737e-05,-2.999999999999999737e-05,-2.999999999999999737e-05,1.000000000000000082e-05,-2.000000000000000164e-05,-1.000000000000000082e-05,0.000000000000000000e+00,1.000000000000000000e+00,1.200000000000000000e+01
3.418400000000000000e+04,-1.000000000000000082e-05,-2.999999999999999737e-05,-2.999999999999999737e-05,-2.999999999999999737e-05,1.000000000000000082e-05,-2.000000000000000164e-05,-1.000000000000000082e-05,0.000000000000000000e+00,1.000000000000000000e+00,1.200000000000000000e+01
3.418500000000000000e+04,-1.000000000000000082e-05,-2.999999999999999737e-05,-2.999999999999999737e-05,-2.999999999999999737e-05,1.000000000000000082e-05,-2.000000000000000164e-05,-1.000000000000000082e-05,0.000000000000000000e+00,1.000000000000000000e+00,1.200000000000000000e+01
3.418600000000000000e+04,-1.000000000000000082e-05,-2.999999999999999737e-05,-2.999999999999999737e-05,-2.999999999999999737e-05,1.000000000000000082e-05,-2.000000000000000164e-05,-1.000000000000000082e-05,0.000000000000000000e+00,1.000000000000000000e+00,1.200000000000000000e+01
3.418800000000000000e+04,-1.000000000000000082e-05,-2.999999999999999737e-05,-2.999999999999999737e-05,-2.999999999999999737e-05,1.000000000000000082e-05,-2.000000000000000164e-05,-1.000000000000000082e-05,0.000000000000000000e+00,1.000000000000000000e+00,1.200000000000000000e+01
3.418900000000000000e+04,-1.000000000000000082e-05,-2.999999999999999737e-05,-2.999999999999999737e-05,-2.999999999999999737e-05,1.000000000000000082e-05,-2.000000000000000164e-05,-1.000000000000000082e-05,0.000000000000000000e+00,1.000000000000000000e+00,1.200000000000000000e+01
3.419000000000000000e+04,-1.000000000000000082e-05,-2.999999999999999737e-05,-2.999999999999999737e-05,-2.999999999999999737e-05,1.000000000000000082e-05,-2.000000000000000164e-05,-1.000000000000000082e-05,0.000000000000000000e+00,1.000000000000000000e+00,1.200000000000000000e+01
3.419100000000000000e+04,-1.000000000000000082e-05,-2.999999999999999737e-05,-2.999999999999999737e-05,-2.999999999999999737e-05,1.000000000000000082e-05,-2.000000000000000164e-05,-1.000000000000000082e-05,0.000000000000000000e+00,1.000000000000000000e+00,1.200000000000000000e+01
3.419200000000000000e+04,-1.000000000000000082e-05,-2.999999999999999737e-05,-2.999999999999999737e-05,-2.999999999999999737e-05,1.000000000000000082e-05,-2.000000000000000164e-05,-1.000000000000000082e-05,0.000000000000000000e+00,1.000000000000000000e+00,1.200000000000000000e+01
3.419300000000000000e+04,-1.000000000000000082e-05,-2.999999999999999737e-05,-2.999999999999999737e-05,-2.999999999999999737e-05,1.000000000000000082e-05,-2.000000000000000164e-05,-1.000000000000000082e-05,0.000000000000000000e+00,1.000000000000000000e+00,1.200000000000000000e+01
3.419400000000000000e+04,-1.000000000000000082e-05,-2.999999999999999737e-05,-2.999999999999999737e-05,-2.999999999999999737e-05,1.000000000000000082e-05,-2.000000000000000164e-05,-1.000000000000000082e-05,0.000000000000000000e+00,1.000000000000000000e+00,1.200000000000000000e+01
3.419500000000000000e+04,-1.000000000000000082e-05,-2.999999999999999737e-05,-2.999999999999999737e-05,-2.999999999999999737e-05,1.000000000000000082e-05,-2.000000000000000164e-05,-1.000000000000000082e-05,0.000000000000000000e+00,1.000000000000000000e+00,1.200000000000000000e+01
3.419600000000000000e+04,-1.000000000000000082e-05,-2.999999999999999737e-05,-2.999999999999999737e-05,-2.999999999999999737e-05,1.000000000000000082e-05,-2.000000000000000164e-05,-1.000000000000000082e-05,0.000000000000000000e+00,1.000000000000000000e+00,1.200000000000000000e+01
3.419700000000000000e+04,-1.000000000000000082e-05,-2.999999999999999737e-05,-2.999999999999999737e-05,-2.999999999999999737e-05,1.000000000000000082e-05,-2.000000000000000164e-05,-1.000000000000000082e-05,0.000000000000000000e+00,1.000000000000000000e+00,1.200000000000000000e+01
3.419800000000000000e+04,-1.000000000000000082e-05,-2.999999999999999737e-05,-2.999999999999999737e-05,-2.999999999999999737e-05,1.000000000000000082e-05,-2.000000000000000164e-05,-1.000000000000000082e-05,0.000000000000000000e+00,1.000000000000000000e+00,1.200000000000000000e+01
3.419900000000000000e+04,-1.000000000000000082e-05,-2.999999999999999737e-05,-2.999999999999999737e-05,-2.999999999999999737e-05,1.000000000000000082e-05,-2.000000000000000164e-05,-1.000000000000000082e-05,0.000000000000000000e+00,1.000000000000000000e+00,1.200000000000000000e+01
3.420100000000000000e+04,-1.000000000000000082e-05,0.000000000000000000e+00,-1.000000000000000082e-05,-5.999999999999999474e-05,-2.000000000000000164e-05,-2.000000000000000164e-05,-2.000000000000000164e-05,0.000000000000000000e+00,1.000000000000000000e+00,1.200000000000000000e+01
3.420200000000000000e+04,0.000000000000000000e+00,2.000000000000000164e-05,2.999999999999999737e-05,2.000000000000000164e-05,-5.000000000000000240e-05,2.000000000000000164e-05,0.000000000000000000e+00,-1.000000000000000082e-05,1.000000000000000000e+00,1.200000000000000000e+01
3.420400000000000000e+04,-2.000000000000000164e-05,-1.000000000000000082e-05,-1.000000000000000082e-05,0.000000000000000000e+00,-2.000000000000000164e-05,-1.000000000000000082e-05,-1.000000000000000082e-05,-1.000000000000000082e-05,1.000000000000000000e+00,1.200000000000000000e+01
3.420500000000000000e+04,-2.000000000000000164e-05,-1.000000000000000082e-05,-1.000000000000000082e-05,0.000000000000000000e+00,-2.000000000000000164e-05,-1.000000000000000082e-05,-1.000000000000000082e-05,-1.000000000000000082e-05,1.000000000000000000e+00,1.200000000000000000e+01
3.420600000000000000e+04,-2.000000000000000164e-05,-1.000000000000000082e-05,-1.000000000000000082e-05,0.000000000000000000e+00,-2.000000000000000164e-05,-1.000000000000000082e-05,-1.000000000000000082e-05,-1.000000000000000082e-05,1.000000000000000000e+00,1.200000000000000000e+01
3.420700000000000000e+04,-2.000000000000000164e-05,-1.000000000000000082e-05,-1.000000000000000082e-05,0.000000000000000000e+00,-2.000000000000000164e-05,-1.000000000000000082e-05,-1.000000000000000082e-05,-1.000000000000000082e-05,1.000000000000000000e+00,1.200000000000000000e+01
3.420800000000000000e+04,-2.000000000000000164e-05,-1.000000000000000082e-05,-1.000000000000000082e-05,0.000000000000000000e+00,-2.000000000000000164e-05,-1.000000000000000082e-05,-1.000000000000000082e-05,-1.000000000000000082e-05,1.000000000000000000e+00,1.200000000000000000e+01
3.420900000000000000e+04,-2.000000000000000164e-05,-1.000000000000000082e-05,-1.000000000000000082e-05,0.000000000000000000e+00,-2.000000000000000164e-05,-1.000000000000000082e-05,-1.000000000000000082e-05,-1.000000000000000082e-05,1.000000000000000000e+00,1.200000000000000000e+01
3.421000000000000000e+04,-2.000000000000000164e-05,-1.000000000000000082e-05,-1.000000000000000082e-05,0.000000000000000000e+00,-2.000000000000000164e-05,-1.000000000000000082e-05,-1.000000000000000082e-05,-1.000000000000000082e-05,1.000000000000000000e+00,1.200000000000000000e+01
3.421100000000000000e+04,-2.000000000000000164e-05,-1.000000000000000082e-05,-1.000000000000000082e-05,0.000000000000000000e+00,-2.000000000000000164e-05,-1.000000000000000082e-05,-1.000000000000000082e-05,-1.000000000000000082e-05,1.000000000000000000e+00,1.200000000000000000e+01
3.421200000000000000e+04,-2.000000000000000164e-05,-1.000000000000000082e-05,-1.000000000000000082e-05,0.000000000000000000e+00,-2.000000000000000164e-05,-1.000000000000000082e-05,-1.000000000000000082e-05,-1.000000000000000082e-05,1.000000000000000000e+00,1.200000000000000000e+01
3.421300000000000000e+04,-2.000000000000000164e-05,-1.000000000000000082e-05,-1.000000000000000082e-05,0.000000000000000000e+00,-2.000000000000000164e-05,-1.000000000000000082e-05,-1.000000000000000082e-05,-1.000000000000000082e-05,1.000000000000000000e+00,1.200000000000000000e+01
3.421400000000000000e+04,-2.000000000000000164e-05,-1.000000000000000082e-05,-1.000000000000000082e-05,0.000000000000000000e+00,-2.000000000000000164e-05,-1.000000000000000082e-05,-1.000000000000000082e-05,-1.000000000000000082e-05,1.000000000000000000e+00,1.200000000000000000e+01
3.421500000000000000e+04,-1.000000000000000082e-05,-2.000000000000000164e-05,-1.100000000000000039e-04,-9.000000000000000567e-05,-1.000000000000000082e-05,0.000000000000000000e+00,0.000000000000000000e+00,0.000000000000000000e+00,1.000000000000000000e+00,1.200000000000000000e+01
3.421600000000000000e+04,-1.000000000000000082e-05,-2.000000000000000164e-05,-1.100000000000000039e-04,-9.000000000000000567e-05,-1.000000000000000082e-05,0.000000000000000000e+00,0.000000000000000000e+00,0.000000000000000000e+00,1.000000000000000000e+00,1.200000000000000000e+01
3.421700000000000000e+04,-1.000000000000000082e-05,-2.000000000000000164e-05,-1.100000000000000039e-04,-9.000000000000000567e-05,-1.000000000000000082e-05,0.000000000000000000e+00,0.000000000000000000e+00,0.000000000000000000e+00,1.000000000000000000e+00,1.200000000000000000e+01
3.421800000000000000e+04,-1.000000000000000082e-05,-2.000000000000000164e-05,-1.100000000000000039e-04,-9.000000000000000567e-05,-1.000000000000000082e-05,0.000000000000000000e+00,0.000000000000000000e+00,0.000000000000000000e+00,1.000000000000000000e+00,1.200000000000000000e+01
3.421900000000000000e+04,-1.000000000000000082e-05,-2.000000000000000164e-05,-1.100000000000000039e-04,-9.000000000000000567e-05,-1.000000000000000082e-05,0.000000000000000000e+00,0.000000000000000000e+00,0.000000000000000000e+00,1.000000000000000000e+00,1.200000000000000000e+01
3.422000000000000000e+04,-1.000000000000000082e-05,-2.000000000000000164e-05,-1.100000000000000039e-04,-9.000000000000000567e-05,-1.000000000000000082e-05,0.000000000000000000e+00,0.000000000000000000e+00,0.000000000000000000e+00,1.000000000000000000e+00,1.200000000000000000e+01
3.422100000000000000e+04,-1.000000000000000082e-05,-2.000000000000000164e-05,-1.100000000000000039e-04,-9.000000000000000567e-05,-1.000000000000000082e-05,0.000000000000000000e+00,0.000000000000000000e+00,0.000000000000000000e+00,1.000000000000000000e+00,1.200000000000000000e+01
3.422200000000000000e+04,-1.000000000000000082e-05,-2.000000000000000164e-05,-1.100000000000000039e-04,-9.000000000000000567e-05,-1.000000000000000082e-05,0.000000000000000000e+00,0.000000000000000000e+00,0.000000000000000000e+00,1.000000000000000000e+00,1.200000000000000000e+01
3.422300000000000000e+04,-1.000000000000000082e-05,-2.000000000000000164e-05,-1.100000000000000039e-04,-9.000000000000000567e-05,-1.000000000000000082e-05,0.000000000000000000e+00,0.000000000000000000e+00,0.000000000000000000e+00,1.000000000000000000e+00,1.200000000000000000e+01
3.422400000000000000e+04,-1.000000000000000082e-05,-2.000000000000000164e-05,-1.100000000000000039e-04,-9.000000000000000567e-05,-1.000000000000000082e-05,0.000000000000000000e+00,0.000000000000000000e+00,0.000000000000000000e+00,1.000000000000000000e+00,1.200000000000000000e+01
3.422500000000000000e+04,-1.000000000000000082e-05,-2.000000000000000164e-05,-1.100000000000000039e-04,-9.000000000000000567e-05,-1.000000000000000082e-05,0.000000000000000000e+00,0.000000000000000000e+00,0.000000000000000000e+00,1.000000000000000000e+00,1.200000000000000000e+01
3.422600000000000000e+04,-1.000000000000000082e-05,-2.000000000000000164e-05,-1.100000000000000039e-04,-9.000000000000000567e-05,-1.000000000000000082e-05,0.000000000000000000e+00,0.000000000000000000e+00,0.000000000000000000e+00,1.000000000000000000e+00,1.200000000000000000e+01
3.422700000000000000e+04,-1.000000000000000082e-05,-2.000000000000000164e-05,-1.100000000000000039e-04,-9.000000000000000567e-05,-1.000000000000000082e-05,0.000000000000000000e+00,0.000000000000000000e+00,0.000000000000000000e+00,1.000000000000000000e+00,1.200000000000000000e+01
3.422800000000000000e+04,-1.000000000000000082e-05,-2.000000000000000164e-05,-1.100000000000000039e-04,-9.000000000000000567e-05,-1.000000000000000082e-05,0.000000000000000000e+00,0.000000000000000000e+00,0.000000000000000000e+00,1.000000000000000000e+00,1.200000000000000000e+01
3.422900000000000000e+04,-1.000000000000000082e-05,-2.000000000000000164e-05,-1.100000000000000039e-04,-9.000000000000000567e-05,-1.000000000000000082e-05,0.000000000000000000e+00,0.000000000000000000e+00,0.000000000000000000e+00,1.000000000000000000e+00,1.200000000000000000e+01
3.423000000000000000e+04,-1.000000000000000082e-05,0.000000000000000000e+00,2.000000000000000164e-05,0.000000000000000000e+00,1.000000000000000082e-05,-2.000000000000000164e-05,-1.000000000000000082e-05,-1.000000000000000082e-05,1.000000000000000000e+00,1.200000000000000000e+01
3.423100000000000000e+04,-1.000000000000000082e-05,0.000000000000000000e+00,2.000000000000000164e-05,0.000000000000000000e+00,1.000000000000000082e-05,-2.000000000000000164e-05,-1.000000000000000082e-05,-1.000000000000000082e-05,1.000000000000000000e+00,1.200000000000000000e+01
3.423200000000000000e+04,-1.000000000000000082e-05,0.000000000000000000e+00,2.000000000000000164e-05,0.000000000000000000e+00,1.000000000000000082e-05,-2.000000000000000164e-05,-1.000000000000000082e-05,-1.000000000000000082e-05,1.000000000000000000e+00,1.200000000000000000e+01
3.423300000000000000e+04,-1.000000000000000082e-05,0.000000000000000000e+00,2.000000000000000164e-05,0.000000000000000000e+00,1.000000000000000082e-05,-2.000000000000000164e-05,-1.000000000000000082e-05,-1.000000000000000082e-05,1.000000000000000000e+00,1.200000000000000000e+01
3.423400000000000000e+04,-1.000000000000000082e-05,0.000000000000000000e+00,2.000000000000000164e-05,0.000000000000000000e+00,1.000000000000000082e-05,-2.000000000000000164e-05,-1.000000000000000082e-05,-1.000000000000000082e-05,1.000000000000000000e+00,1.200000000000000000e+01
3.423500000000000000e+04,-1.000000000000000082e-05,0.000000000000000000e+00,2.000000000000000164e-05,0.000000000000000000e+00,1.000000000000000082e-05,-2.000000000000000164e-05,-1.000000000000000082e-05,-1.000000000000000082e-05,1.000000000000000000e+00,1.200000000000000000e+01
3.423600000000000000e+04,-1.000000000000000082e-05,0.000000000000000000e+00,2.000000000000000164e-05,0.000000000000000000e+00,1.000000000000000082e-05,-2.000000000000000164e-05,-1.000000000000000082e-05,-1.000000000000000082e-05,1.000000000000000000e+00,1.200000000000000000e+01
3.423800000000000000e+04,-1.000000000000000082e-05,0.000000000000000000e+00,2.000000000000000164e-05,0.000000000000000000e+00,1.000000000000000082e-05,-2.000000000000000164e-05,-1.000000000000000082e-05,-1.000000000000000082e-05,1.000000000000000000e+00,1.200000000000000000e+01
3.423900000000000000e+04,-2.999999999999999737e-05,-2.000000000000000164e-05,-5.999999999999999474e-05,1.699999999999999851e-04,-1.000000000000000082e-05,0.000000000000000000e+00,-1.000000000000000082e-05,0.000000000000000000e+00,1.000000000000000000e+00,1.200000000000000000e+01
3.424000000000000000e+04,1.000000000000000082e-05,-1.000000000000000082e-05,-2.999999999999999737e-05,-1.000000000000000082e-05,-2.000000000000000164e-05,-1.000000000000000082e-05,-2.000000000000000164e-05,0.000000000000000000e+00,1.000000000000000000e+00,1.200000000000000000e+01
3.424100000000000000e+04,1.000000000000000082e-05,-1.000000000000000082e-05,-2.999999999999999737e-05,-1.000000000000000082e-05,-2.000000000000000164e-05,-1.000000000000000082e-05,-2.000000000000000164e-05,0.000000000000000000e+00,1.000000000000000000e+00,1.200000000000000000e+01
3.424200000000000000e+04,1.000000000000000082e-05,-1.000000000000000082e-05,-2.999999999999999737e-05,-1.000000000000000082e-05,-2.000000000000000164e-05,-1.000000000000000082e-05,-2.000000000000000164e-05,0.000000000000000000e+00,1.000000000000000000e+00,1.200000000000000000e+01
3.424300000000000000e+04,1.000000000000000082e-05,-1.000000000000000082e-05,-2.999999999999999737e-05,-1.000000000000000082e-05,-2.000000000000000164e-05,-1.000000000000000082e-05,-2.000000000000000164e-05,0.000000000000000000e+00,1.000000000000000000e+00,1.200000000000000000e+01
3.424400000000000000e+04,1.000000000000000082e-05,-1.000000000000000082e-05,-2.999999999999999737e-05,-1.000000000000000082e-05,-2.000000000000000164e-05,-1.000000000000000082e-05,-2.000000000000000164e-05,0.000000000000000000e+00,1.000000000000000000e+00,1.200000000000000000e+01
3.424500000000000000e+04,1.000000000000000082e-05,-1.000000000000000082e-05,-2.999999999999999737e-05,-1.000000000000000082e-05,-2.000000000000000164e-05,-1.000000000000000082e-05,-2.000000000000000164e-05,0.000000000000000000e+00,1.000000000000000000e+00,1.200000000000000000e+01
3.424700000000000000e+04,1.000000000000000082e-05,-1.000000000000000082e-05,-2.999999999999999737e-05,-1.000000000000000082e-05,-2.000000000000000164e-05,-1.000000000000000082e-05,-2.000000000000000164e-05,0.000000000000000000e+00,1.000000000000000000e+00,1.200000000000000000e+01
3.424800000000000000e+04,1.000000000000000082e-05,-1.000000000000000082e-05,-2.999999999999999737e-05,-1.000000000000000082e-05,-2.000000000000000164e-05,-1.000000000000000082e-05,-2.000000000000000164e-05,0.000000000000000000e+00,1.000000000000000000e+00,1.200000000000000000e+01
3.424900000000000000e+04,1.000000000000000082e-05,-1.000000000000000082e-05,-2.999999999999999737e-05,-1.000000000000000082e-05,-2.000000000000000164e-05,-1.000000000000000082e-05,-2.000000000000000164e-05,0.000000000000000000e+00,1.000000000000000000e+00,1.200000000000000000e+01
3.425000000000000000e+04,1.000000000000000082e-05,-1.000000000000000082e-05,-2.999999999999999737e-05,-1.000000000000000082e-05,-2.000000000000000164e-05,-1.000000000000000082e-05,-2.000000000000000164e-05,0.000000000000000000e+00,1.000000000000000000e+00,1.200000000000000000e+01
3.425100000000000000e+04,1.000000000000000082e-05,-1.000000000000000082e-05,-2.999999999999999737e-05,-1.000000000000000082e-05,-2.000000000000000164e-05,-1.000000000000000082e-05,-2.000000000000000164e-05,0.000000000000000000e+00,1.000000000000000000e+00,1.200000000000000000e+01
3.425200000000000000e+04,1.000000000000000082e-05,-1.000000000000000082e-05,-2.999999999999999737e-05,-1.000000000000000082e-05,-2.000000000000000164e-05,-1.000000000000000082e-05,-2.000000000000000164e-05,0.000000000000000000e+00,1.000000000000000000e+00,1.200000000000000000e+01
3.425400000000000000e+04,1.000000000000000082e-05,-1.000000000000000082e-05,-2.999999999999999737e-05,-1.000000000000000082e-05,-2.000000000000000164e-05,-1.000000000000000082e-05,-2.000000000000000164e-05,0.000000000000000000e+00,1.000000000000000000e+00,1.200000000000000000e+01
3.425500000000000000e+04,1.000000000000000082e-05,-1.000000000000000082e-05,-2.999999999999999737e-05,-1.000000000000000082e-05,-2.000000000000000164e-05,-1.000000000000000082e-05,-2.000000000000000164e-05,0.000000000000000000e+00,1.000000000000000000e+00,1.200000000000000000e+01
3.425600000000000000e+04,1.000000000000000082e-05,-1.000000000000000082e-05,-2.999999999999999737e-05,-1.000000000000000082e-05,-2.000000000000000164e-05,-1.000000000000000082e-05,-2.000000000000000164e-05,0.000000000000000000e+00,1.000000000000000000e+00,1.200000000000000000e+01
3.425700000000000000e+04,1.000000000000000082e-05,-1.000000000000000082e-05,-2.999999999999999737e-05,-1.000000000000000082e-05,-2.000000000000000164e-05,-1.000000000000000082e-05,-2.000000000000000164e-05,0.000000000000000000e+00,1.000000000000000000e+00,1.200000000000000000e+01
3.425800000000000000e+04,1.000000000000000082e-05,-1.000000000000000082e-05,-2.999999999999999737e-05,-1.000000000000000082e-05,-2.000000000000000164e-05,-1.000000000000000082e-05,-2.000000000000000164e-05,0.000000000000000000e+00,1.000000000000000000e+00,1.200000000000000000e+01
3.425900000000000000e+04,1.000000000000000082e-05,-1.000000000000000082e-05,-2.999999999999999737e-05,-1.000000000000000082e-05,-2.000000000000000164e-05,-1.000000000000000082e-05,-2.000000000000000164e-05,0.000000000000000000e+00,1.000000000000000000e+00,1.200000000000000000e+01
3.426000000000000000e+04,1.000000000000000082e-05,-1.000000000000000082e-05,-2.999999999999999737e-05,-1.000000000000000082e-05,-2.000000000000000164e-05,-1.000000000000000082e-05,-2.000000000000000164e-05,0.000000000000000000e+00,1.000000000000000000e+00,1.200000000000000000e+01
3.426100000000000000e+04,-2.999999999999999737e-05,-1.000000000000000082e-05,0.000000000000000000e+00,2.999999999999999737e-05,8.000000000000000654e-05,4.000000000000000327e-05,-1.000000000000000082e-05,-2.000000000000000164e-05,1.000000000000000000e+00,1.200000000000000000e+01
3.426200000000000000e+04,0.000000000000000000e+00,2.000000000000000164e-05,8.000000000000000654e-05,2.999999999999999737e-05,-2.000000000000000164e-05,0.000000000000000000e+00,0.000000000000000000e+00,-2.000000000000000164e-05,1.000000000000000000e+00,1.200000000000000000e+01
3.426300000000000000e+04,0.000000000000000000e+00,-2.999999999999999737e-05,-4.000000000000000327e-05,-2.000000000000000164e-05,-1.100000000000000039e-04,-5.000000000000000240e-05,-1.000000000000000082e-05,-1.000000000000000082e-05,1.000000000000000000e+00,1.200000000000000000e+01
3.426400000000000000e+04,0.000000000000000000e+00,-2.999999999999999737e-05,-4.000000000000000327e-05,-2.000000000000000164e-05,-1.100000000000000039e-04,-5.000000000000000240e-05,-1.000000000000000082e-05,-1.000000000000000082e-05,1.000000000000000000e+00,1.200000000000000000e+01
3.426500000000000000e+04,0.000000000000000000e+00,-2.999999999999999737e-05,-4.000000000000000327e-05,-2.000000000000000164e-05,-1.100000000000000039e-04,-5.000000000000000240e-05,-1.000000000000000082e-05,-1.000000000000000082e-05,1.000000000000000000e+00,1.200000000000000000e+01
3.426600000000000000e+04,0.000000000000000000e+00,-2.999999999999999737e-05,-4.000000000000000327e-05,-2.000000000000000164e-05,-1.100000000000000039e-04,-5.000000000000000240e-05,-1.000000000000000082e-05,-1.000000000000000082e-05,1.000000000000000000e+00,1.200000000000000000e+01
3.426700000000000000e+04,0.000000000000000000e+00,-2.999999999999999737e-05,-4.000000000000000327e-05,-2.000000000000000164e-05,-1.100000000000000039e-04,-5.000000000000000240e-05,-1.000000000000000082e-05,-1.000000000000000082e-05,1.000000000000000000e+00,1.200000000000000000e+01
3.426800000000000000e+04,0.000000000000000000e+00,-2.999999999999999737e-05,-4.000000000000000327e-05,-2.000000000000000164e-05,-1.100000000000000039e-04,-5.000000000000000240e-05,-1.000000000000000082e-05,-1.000000000000000082e-05,1.000000000000000000e+00,1.200000000000000000e+01
3.426900000000000000e+04,0.000000000000000000e+00,-2.999999999999999737e-05,-4.000000000000000327e-05,-2.000000000000000164e-05,-1.100000000000000039e-04,-5.000000000000000240e-05,-1.000000000000000082e-05,-1.000000000000000082e-05,1.000000000000000000e+00,1.200000000000000000e+01
3.427000000000000000e+04,0.000000000000000000e+00,-2.999999999999999737e-05,-4.000000000000000327e-05,-2.000000000000000164e-05,-1.100000000000000039e-04,-5.000000000000000240e-05,-1.000000000000000082e-05,-1.000000000000000082e-05,1.000000000000000000e+00,1.200000000000000000e+01
3.427100000000000000e+04,0.000000000000000000e+00,-2.999999999999999737e-05,-4.000000000000000327e-05,-2.000000000000000164e-05,-1.100000000000000039e-04,-5.000000000000000240e-05,-1.000000000000000082e-05,-1.000000000000000082e-05,1.000000000000000000e+00,1.200000000000000000e+01
3.427200000000000000e+04,0.000000000000000000e+00,-2.999999999999999737e-05,-4.000000000000000327e-05,-2.000000000000000164e-05,-1.100000000000000039e-04,-5.000000000000000240e-05,-1.000000000000000082e-05,-1.000000000000000082e-05,1.000000000000000000e+00,1.200000000000000000e+01
3.427300000000000000e+04,0.000000000000000000e+00,-2.999999999999999737e-05,-4.000000000000000327e-05,-2.000000000000000164e-05,-1.100000000000000039e-04,-5.000000000000000240e-05,-1.000000000000000082e-05,-1.000000000000000082e-05,1.000000000000000000e+00,1.200000000000000000e+01
3.427400000000000000e+04,0.000000000000000000e+00,-2.999999999999999737e-05,-4.000000000000000327e-05,-2.000000000000000164e-05,-1.100000000000000039e-04,-5.000000000000000240e-05,-1.000000000000000082e-05,-1.000000000000000082e-05,1.000000000000000000e+00,1.200000000000000000e+01
3.427500000000000000e+04,1.000000000000000082e-05,-2.000000000000000164e-05,-2.999999999999999737e-05,-5.000000000000000240e-05,2.000000000000000164e-05,0.000000000000000000e+00,0.000000000000000000e+00,1.000000000000000082e-05,1.000000000000000000e+00,1.200000000000000000e+01
3.427600000000000000e+04,1.000000000000000082e-05,-2.000000000000000164e-05,-2.999999999999999737e-05,-5.000000000000000240e-05,2.000000000000000164e-05,0.000000000000000000e+00,0.000000000000000000e+00,1.000000000000000082e-05,1.000000000000000000e+00,1.200000000000000000e+01
3.427700000000000000e+04,1.000000000000000082e-05,-2.000000000000000164e-05,-2.999999999999999737e-05,-5.000000000000000240e-05,2.000000000000000164e-05,0.000000000000000000e+00,0.000000000000000000e+00,1.000000000000000082e-05,1.000000000000000000e+00,1.200000000000000000e+01
3.427800000000000000e+04,1.000000000000000082e-05,-2.000000000000000164e-05,-2.999999999999999737e-05,-5.000000000000000240e-05,2.000000000000000164e-05,0.000000000000000000e+00,0.000000000000000000e+00,1.000000000000000082e-05,1.000000000000000000e+00,1.200000000000000000e+01
3.427900000000000000e+04,1.000000000000000082e-05,-2.000000000000000164e-05,-2.999999999999999737e-05,-5.000000000000000240e-05,2.000000000000000164e-05,0.000000000000000000e+00,0.000000000000000000e+00,1.000000000000000082e-05,1.000000000000000000e+00,1.200000000000000000e+01
3.428000000000000000e+04,1.000000000000000082e-05,-2.000000000000000164e-05,-2.999999999999999737e-05,-5.000000000000000240e-05,2.000000000000000164e-05,0.000000000000000000e+00,0.000000000000000000e+00,1.000000000000000082e-05,1.000000000000000000e+00,1.200000000000000000e+01
3.428100000000000000e+04,1.000000000000000082e-05,-2.000000000000000164e-05,-2.999999999999999737e-05,-5.000000000000000240e-05,2.000000000000000164e-05,0.000000000000000000e+00,0.000000000000000000e+00,1.000000000000000082e-05,1.000000000000000000e+00,1.200000000000000000e+01
3.428200000000000000e+04,1.000000000000000082e-05,-2.000000000000000164e-05,-2.999999999999999737e-05,-5.000000000000000240e-05,2.000000000000000164e-05,0.000000000000000000e+00,0.000000000000000000e+00,1.000000000000000082e-05,1.000000000000000000e+00,1.200000000000000000e+01
3.428300000000000000e+04,1.000000000000000082e-05,-2.000000000000000164e-05,-2.999999999999999737e-05,-5.000000000000000240e-05,2.000000000000000164e-05,0.000000000000000000e+00,0.000000000000000000e+00,1.000000000000000082e-05,1.000000000000000000e+00,1.200000000000000000e+01
3.428400000000000000e+04,1.000000000000000082e-05,0.000000000000000000e+00,2.000000000000000164e-05,1.000000000000000082e-05,2.000000000000000164e-05,0.000000000000000000e+00,0.000000000000000000e+00,-1.000000000000000082e-05,1.000000000000000000e+00,1.200000000000000000e+01
3.428500000000000000e+04,1.000000000000000082e-05,0.000000000000000000e+00,2.000000000000000164e-05,1.000000000000000082e-05,2.000000000000000164e-05,0.000000000000000000e+00,0.000000000000000000e+00,-1.000000000000000082e-05,1.000000000000000000e+00,1.200000000000000000e+01
3.428600000000000000e+04,1.000000000000000082e-05,0.000000000000000000e+00,2.000000000000000164e-05,1.000000000000000082e-05,2.000000000000000164e-05,0.000000000000000000e+00,0.000000000000000000e+00,-1.000000000000000082e-05,1.000000000000000000e+00,1.200000000000000000e+01
3.428800000000000000e+04,1.000000000000000082e-05,0.000000000000000000e+00,2.000000000000000164e-05,1.000000000000000082e-05,2.000000000000000164e-05,0.000000000000000000e+00,0.000000000000000000e+00,-1.000000000000000082e-05,1.000000000000000000e+00,1.200000000000000000e+01
3.429000000000000000e+04,1.000000000000000082e-05,0.000000000000000000e+00,2.000000000000000164e-05,1.000000000000000082e-05,2.000000000000000164e-05,0.000000000000000000e+00,0.000000000000000000e+00,-1.000000000000000082e-05,1.000000000000000000e+00,1.200000000000000000e+01
3.429100000000000000e+04,1.000000000000000082e-05,0.000000000000000000e+00,2.000000000000000164e-05,1.000000000000000082e-05,2.000000000000000164e-05,0.000000000000000000e+00,0.000000000000000000e+00,-1.000000000000000082e-05,1.000000000000000000e+00,1.200000000000000000e+01
3.429200000000000000e+04,1.000000000000000082e-05,0.000000000000000000e+00,2.000000000000000164e-05,1.000000000000000082e-05,2.000000000000000164e-05,0.000000000000000000e+00,0.000000000000000000e+00,-1.000000000000000082e-05,1.000000000000000000e+00,1.200000000000000000e+01
3.429300000000000000e+04,1.000000000000000082e-05,0.000000000000000000e+00,2.000000000000000164e-05,1.000000000000000082e-05,2.000000000000000164e-05,0.000000000000000000e+00,0.000000000000000000e+00,-1.000000000000000082e-05,1.000000000000000000e+00,1.200000000000000000e+01
3.429400000000000000e+04,1.000000000000000082e-05,0.000000000000000000e+00,2.000000000000000164e-05,1.000000000000000082e-05,2.000000000000000164e-05,0.000000000000000000e+00,0.000000000000000000e+00,-1.000000000000000082e-05,1.000000000000000000e+00,1.200000000000000000e+01
3.429500000000000000e+04,1.000000000000000082e-05,0.000000000000000000e+00,2.000000000000000164e-05,1.000000000000000082e-05,2.000000000000000164e-05,0.000000000000000000e+00,0.000000000000000000e+00,-1.000000000000000082e-05,1.000000000000000000e+00,1.200000000000000000e+01
3.429600000000000000e+04,1.000000000000000082e-05,0.000000000000000000e+00,2.000000000000000164e-05,1.000000000000000082e-05,2.000000000000000164e-05,0.000000000000000000e+00,0.000000000000000000e+00,-1.000000000000000082e-05,1.000000000000000000e+00,1.200000000000000000e+01
3.429700000000000000e+04,1.000000000000000082e-05,0.000000000000000000e+00,2.000000000000000164e-05,1.000000000000000082e-05,2.000000000000000164e-05,0.000000000000000000e+00,0.000000000000000000e+00,-1.000000000000000082e-05,1.000000000000000000e+00,1.200000000000000000e+01
3.429800000000000000e+04,1.000000000000000082e-05,0.000000000000000000e+00,2.000000000000000164e-05,1.000000000000000082e-05,2.000000000000000164e-05,0.000000000000000000e+00,0.000000000000000000e+00,-1.000000000000000082e-05,1.000000000000000000e+00,1.200000000000000000e+01
3.429900000000000000e+04,-2.999999999999999737e-05,-5.999999999999999474e-05,-5.999999999999999474e-05,-6.999999999999999387e-05,-2.000000000000000164e-05,-2.000000000000000164e-05,-1.000000000000000082e-05,-1.000000000000000082e-05,1.000000000000000000e+00,1.200000000000000000e+01
3.430000000000000000e+04,-1.000000000000000082e-05,-2.999999999999999737e-05,-1.000000000000000082e-05,2.999999999999999737e-05,1.100000000000000039e-04,1.000000000000000082e-05,0.000000000000000000e+00,0.000000000000000000e+00,1.000000000000000000e+00,1.200000000000000000e+01
3.430100000000000000e+04,-1.000000000000000082e-05,-2.999999999999999737e-05,-1.000000000000000082e-05,2.999999999999999737e-05,1.100000000000000039e-04,1.000000000000000082e-05,0.000000000000000000e+00,0.000000000000000000e+00,1.000000000000000000e+00,1.200000000000000000e+01
3.430200000000000000e+04,-1.000000000000000082e-05,-2.999999999999999737e-05,-1.000000000000000082e-05,2.999999999999999737e-05,1.100000000000000039e-04,1.000000000000000082e-05,0.000000000000000000e+00,0.000000000000000000e+00,1.000000000000000000e+00,1.200000000000000000e+01
3.430400000000000000e+04,-1.000000000000000082e-05,-2.999999999999999737e-05,-1.000000000000000082e-05,2.999999999999999737e-05,1.100000000000000039e-04,1.000000000000000082e-05,0.000000000000000000e+00,0.000000000000000000e+00,1.000000000000000000e+00,1.200000000000000000e+01
3.430500000000000000e+04,-1.000000000000000082e-05,-2.999999999999999737e-05,-1.000000000000000082e-05,2.999999999999999737e-05,1.100000000000000039e-04,1.000000000000000082e-05,0.000000000000000000e+00,0.000000000000000000e+00,1.000000000000000000e+00,1.200000000000000000e+01
3.430600000000000000e+04,-1.000000000000000082e-05,-2.999999999999999737e-05,-1.000000000000000082e-05,2.999999999999999737e-05,1.100000000000000039e-04,1.000000000000000082e-05,0.000000000000000000e+00,0.000000000000000000e+00,1.000000000000000000e+00,1.200000000000000000e+01
3.430700000000000000e+04,-1.000000000000000082e-05,-2.999999999999999737e-05,-1.000000000000000082e-05,2.999999999999999737e-05,1.100000000000000039e-04,1.000000000000000082e-05,0.000000000000000000e+00,0.000000000000000000e+00,1.000000000000000000e+00,1.200000000000000000e+01
3.430800000000000000e+04,-1.000000000000000082e-05,-2.999999999999999737e-05,-1.000000000000000082e-05,2.999999999999999737e-05,1.100000000000000039e-04,1.000000000000000082e-05,0.000000000000000000e+00,0.000000000000000000e+00,1.000000000000000000e+00,1.200000000000000000e+01
3.430900000000000000e+04,-1.000000000000000082e-05,-2.999999999999999737e-05,-1.000000000000000082e-05,2.999999999999999737e-05,1.100000000000000039e-04,1.000000000000000082e-05,0.000000000000000000e+00,0.000000000000000000e+00,1.000000000000000000e+00,1.200000000000000000e+01
3.431000000000000000e+04,-1.000000000000000082e-05,-2.999999999999999737e-05,-1.000000000000000082e-05,2.999999999999999737e-05,1.100000000000000039e-04,1.000000000000000082e-05,0.000000000000000000e+00,0.000000000000000000e+00,1.000000000000000000e+00,1.200000000000000000e+01
3.431100000000000000e+04,-1.000000000000000082e-05,-2.999999999999999737e-05,-1.000000000000000082e-05,2.999999999999999737e-05,1.100000000000000039e-04,1.000000000000000082e-05,0.000000000000000000e+00,0.000000000000000000e+00,1.000000000000000000e+00,1.200000000000000000e+01
3.431300000000000000e+04,-1.000000000000000082e-05,-2.999999999999999737e-05,-1.000000000000000082e-05,2.999999999999999737e-05,1.100000000000000039e-04,1.000000000000000082e-05,0.000000000000000000e+00,0.000000000000000000e+00,1.000000000000000000e+00,1.200000000000000000e+01
3.431400000000000000e+04,-1.000000000000000082e-05,-2.999999999999999737e-05,-1.000000000000000082e-05,2.999999999999999737e-05,1.100000000000000039e-04,1.000000000000000082e-05,0.000000000000000000e+00,0.000000000000000000e+00,1.000000000000000000e+00,1.200000000000000000e+01
3.431500000000000000e+04,-1.000000000000000082e-05,-2.999999999999999737e-05,-1.000000000000000082e-05,2.999999999999999737e-05,1.100000000000000039e-04,1.000000000000000082e-05,0.000000000000000000e+00,0.000000000000000000e+00,1.000000000000000000e+00,1.200000000000000000e+01
3.431600000000000000e+04,-1.000000000000000082e-05,-2.999999999999999737e-05,-1.000000000000000082e-05,2.999999999999999737e-05,1.100000000000000039e-04,1.000000000000000082e-05,0.000000000000000000e+00,0.000000000000000000e+00,1.000000000000000000e+00,1.200000000000000000e+01
3.431700000000000000e+04,-1.000000000000000082e-05,-2.999999999999999737e-05,-1.000000000000000082e-05,2.999999999999999737e-05,1.100000000000000039e-04,1.000000000000000082e-05,0.000000000000000000e+00,0.000000000000000000e+00,1.000000000000000000e+00,1.200000000000000000e+01
3.431800000000000000e+04,-1.000000000000000082e-05,-2.999999999999999737e-05,-1.000000000000000082e-05,2.999999999999999737e-05,1.100000000000000039e-04,1.000000000000000082e-05,0.000000000000000000e+00,0.000000000000000000e+00,1.000000000000000000e+00,1.200000000000000000e+01
3.431900000000000000e+04,-1.000000000000000082e-05,-2.999999999999999737e-05,-1.000000000000000082e-05,2.999999999999999737e-05,1.100000000000000039e-04,1.000000000000000082e-05,0.000000000000000000e+00,0.000000000000000000e+00,1.000000000000000000e+00,1.200000000000000000e+01
3.432000000000000000e+04,-1.000000000000000082e-05,-2.999999999999999737e-05,-1.000000000000000082e-05,2.999999999999999737e-05,1.100000000000000039e-04,1.000000000000000082e-05,0.000000000000000000e+00,0.000000000000000000e+00,1.000000000000000000e+00,1.200000000000000000e+01
3.432100000000000000e+04,2.000000000000000164e-05,2.000000000000000164e-05,2.999999999999999737e-05,5.999999999999999474e-05,0.000000000000000000e+00,1.000000000000000082e-05,0.000000000000000000e+00,-2.000000000000000164e-05,1.000000000000000000e+00,1.200000000000000000e+01
3.432200000000000000e+04,2.000000000000000164e-05,2.000000000000000164e-05,2.999999999999999737e-05,5.999999999999999474e-05,0.000000000000000000e+00,1.000000000000000082e-05,0.000000000000000000e+00,-2.000000000000000164e-05,1.000000000000000000e+00,1.200000000000000000e+01
3.432300000000000000e+04,0.000000000000000000e+00,1.000000000000000082e-05,0.000000000000000000e+00,-5.999999999999999474e-05,-9.000000000000000567e-05,-1.000000000000000082e-05,-1.000000000000000082e-05,1.000000000000000082e-05,1.000000000000000000e+00,1.200000000000000000e+01
3.432400000000000000e+04,0.000000000000000000e+00,1.000000000000000082e-05,0.000000000000000000e+00,-5.999999999999999474e-05,-9.000000000000000567e-05,-1.000000000000000082e-05,-1.000000000000000082e-05,1.000000000000000082e-05,1.000000000000000000e+00,1.200000000000000000e+01
3.432500000000000000e+04,0.000000000000000000e+00,1.000000000000000082e-05,0.000000000000000000e+00,-5.999999999999999474e-05,-9.000000000000000567e-05,-1.000000000000000082e-05,-1.000000000000000082e-05,1.000000000000000082e-05,1.000000000000000000e+00,1.200000000000000000e+01
3.432600000000000000e+04,0.000000000000000000e+00,1.000000000000000082e-05,0.000000000000000000e+00,-5.999999999999999474e-05,-9.000000000000000567e-05,-1.000000000000000082e-05,-1.000000000000000082e-05,1.000000000000000082e-05,1.000000000000000000e+00,1.200000000000000000e+01
3.432700000000000000e+04,0.000000000000000000e+00,1.000000000000000082e-05,0.000000000000000000e+00,-5.999999999999999474e-05,-9.000000000000000567e-05,-1.000000000000000082e-05,-1.000000000000000082e-05,1.000000000000000082e-05,1.000000000000000000e+00,1.200000000000000000e+01
3.432800000000000000e+04,0.000000000000000000e+00,1.000000000000000082e-05,0.000000000000000000e+00,-5.999999999999999474e-05,-9.000000000000000567e-05,-1.000000000000000082e-05,-1.000000000000000082e-05,1.000000000000000082e-05,1.000000000000000000e+00,1.200000000000000000e+01
3.432900000000000000e+04,0.000000000000000000e+00,1.000000000000000082e-05,0.000000000000000000e+00,-5.999999999999999474e-05,-9.000000000000000567e-05,-1.000000000000000082e-05,-1.000000000000000082e-05,1.000000000000000082e-05,1.000000000000000000e+00,1.200000000000000000e+01
3.433000000000000000e+04,0.000000000000000000e+00,1.000000000000000082e-05,0.000000000000000000e+00,-5.999999999999999474e-05,-9.000000000000000567e-05,-1.000000000000000082e-05,-1.000000000000000082e-05,1.000000000000000082e-05,1.000000000000000000e+00,1.200000000000000000e+01
3.433100000000000000e+04,0.000000000000000000e+00,1.000000000000000082e-05,0.000000000000000000e+00,-5.999999999999999474e-05,-9.000000000000000567e-05,-1.000000000000000082e-05,-1.000000000000000082e-05,1.000000000000000082e-05,1.000000000000000000e+00,1.200000000000000000e+01
3.433200000000000000e+04,0.000000000000000000e+00,1.000000000000000082e-05,0.000000000000000000e+00,-5.999999999999999474e-05,-9.000000000000000567e-05,-1.000000000000000082e-05,-1.000000000000000082e-05,1.000000000000000082e-05,1.000000000000000000e+00,1.200000000000000000e+01
3.433300000000000000e+04,0.000000000000000000e+00,1.000000000000000082e-05,0.000000000000000000e+00,-5.999999999999999474e-05,-9.000000000000000567e-05,-1.000000000000000082e-05,-1.000000000000000082e-05,1.000000000000000082e-05,1.000000000000000000e+00,1.200000000000000000e+01
3.433400000000000000e+04,0.000000000000000000e+00,1.000000000000000082e-05,0.000000000000000000e+00,-5.999999999999999474e-05,-9.000000000000000567e-05,-1.000000000000000082e-05,-1.000000000000000082e-05,1.000000000000000082e-05,1.000000000000000000e+00,1.200000000000000000e+01
3.433500000000000000e+04,1.000000000000000082e-05,0.000000000000000000e+00,2.000000000000000164e-05,-2.000000000000000164e-05,0.000000000000000000e+00,0.000000000000000000e+00,-2.000000000000000164e-05,0.000000000000000000e+00,1.000000000000000000e+00,1.200000000000000000e+01
3.433600000000000000e+04,1.000000000000000082e-05,0.000000000000000000e+00,2.000000000000000164e-05,-2.000000000000000164e-05,0.000000000000000000e+00,0.000000000000000000e+00,-2.000000000000000164e-05,0.000000000000000000e+00,1.000000000000000000e+00,1.200000000000000000e+01
3.433800000000000000e+04,1.000000000000000082e-05,0.000000000000000000e+00,2.000000000000000164e-05,-2.000000000000000164e-05,0.000000000000000000e+00,0.000000000000000000e+00,-2.000000000000000164e-05,0.000000000000000000e+00,1.000000000000000000e+00,1.200000000000000000e+01
3.433900000000000000e+04,1.000000000000000082e-05,0.000000000000000000e+00,2.000000000000000164e-05,-2.000000000000000164e-05,0.000000000000000000e+00,0.000000000000000000e+00,-2.000000000000000164e-05,0.000000000000000000e+00,1.000000000000000000e+00,1.200000000000000000e+01
3.434000000000000000e+04,1.000000000000000082e-05,0.000000000000000000e+00,2.000000000000000164e-05,-2.000000000000000164e-05,0.000000000000000000e+00,0.000000000000000000e+00,-2.000000000000000164e-05,0.000000000000000000e+00,1.000000000000000000e+00,1.200000000000000000e+01
3.434200000000000000e+04,1.000000000000000082e-05,0.000000000000000000e+00,2.000000000000000164e-05,-2.000000000000000164e-05,0.000000000000000000e+00,0.000000000000000000e+00,-2.000000000000000164e-05,0.000000000000000000e+00,1.000000000000000000e+00,1.200000000000000000e+01
3.434300000000000000e+04,1.000000000000000082e-05,0.000000000000000000e+00,2.000000000000000164e-05,-2.000000000000000164e-05,0.000000000000000000e+00,0.000000000000000000e+00,-2.000000000000000164e-05,0.000000000000000000e+00,1.000000000000000000e+00,1.200000000000000000e+01
3.434400000000000000e+04,-1.000000000000000082e-05,-2.999999999999999737e-05,-4.000000000000000327e-05,2.000000000000000164e-05,-1.000000000000000082e-05,-1.000000000000000082e-05,-2.000000000000000164e-05,-2.000000000000000164e-05,1.000000000000000000e+00,1.200000000000000000e+01
3.434600000000000000e+04,-1.000000000000000082e-05,-2.999999999999999737e-05,-4.000000000000000327e-05,2.000000000000000164e-05,-1.000000000000000082e-05,-1.000000000000000082e-05,-2.000000000000000164e-05,-2.000000000000000164e-05,1.000000000000000000e+00,1.200000000000000000e+01
3.434700000000000000e+04,-1.000000000000000082e-05,-2.999999999999999737e-05,-4.000000000000000327e-05,2.000000000000000164e-05,-1.000000000000000082e-05,-1.000000000000000082e-05,-2.000000000000000164e-05,-2.000000000000000164e-05,1.000000000000000000e+00,1.200000000000000000e+01
3.434800000000000000e+04,-1.000000000000000082e-05,-2.999999999999999737e-05,-4.000000000000000327e-05,2.000000000000000164e-05,-1.000000000000000082e-05,-1.000000000000000082e-05,-2.000000000000000164e-05,-2.000000000000000164e-05,1.000000000000000000e+00,1.200000000000000000e+01
3.434900000000000000e+04,-1.000000000000000082e-05,-2.999999999999999737e-05,-4.000000000000000327e-05,2.000000000000000164e-05,-1.000000000000000082e-05,-1.000000000000000082e-05,-2.000000000000000164e-05,-2.000000000000000164e-05,1.000000000000000000e+00,1.200000000000000000e+01
3.435000000000000000e+04,-1.000000000000000082e-05,-2.999999999999999737e-05,-4.000000000000000327e-05,2.000000000000000164e-05,-1.000000000000000082e-05,-1.000000000000000082e-05,-2.000000000000000164e-05,-2.000000000000000164e-05,1.000000000000000000e+00,1.200000000000000000e+01
3.435100000000000000e+04,-1.000000000000000082e-05,-2.999999999999999737e-05,-4.000000000000000327e-05,2.000000000000000164e-05,-1.000000000000000082e-05,-1.000000000000000082e-05,-2.000000000000000164e-05,-2.000000000000000164e-05,1.000000000000000000e+00,1.200000000000000000e+01
3.435200000000000000e+04,-1.000000000000000082e-05,-2.999999999999999737e-05,-4.000000000000000327e-05,2.000000000000000164e-05,-1.000000000000000082e-05,-1.000000000000000082e-05,-2.000000000000000164e-05,-2.000000000000000164e-05,1.000000000000000000e+00,1.200000000000000000e+01
3.435400000000000000e+04,-1.000000000000000082e-05,-2.999999999999999737e-05,-4.000000000000000327e-05,2.000000000000000164e-05,-1.000000000000000082e-05,-1.000000000000000082e-05,-2.000000000000000164e-05,-2.000000000000000164e-05,1.000000000000000000e+00,1.200000000000000000e+01
3.435500000000000000e+04,-1.000000000000000082e-05,-2.999999999999999737e-05,-4.000000000000000327e-05,2.000000000000000164e-05,-1.000000000000000082e-05,-1.000000000000000082e-05,-2.000000000000000164e-05,-2.000000000000000164e-05,1.000000000000000000e+00,1.200000000000000000e+01
3.435600000000000000e+04,-1.000000000000000082e-05,-2.999999999999999737e-05,-4.000000000000000327e-05,2.000000000000000164e-05,-1.000000000000000082e-05,-1.000000000000000082e-05,-2.000000000000000164e-05,-2.000000000000000164e-05,1.000000000000000000e+00,1.200000000000000000e+01
3.435700000000000000e+04,-1.000000000000000082e-05,-2.999999999999999737e-05,-4.000000000000000327e-05,2.000000000000000164e-05,-1.000000000000000082e-05,-1.000000000000000082e-05,-2.000000000000000164e-05,-2.000000000000000164e-05,1.000000000000000000e+00,1.200000000000000000e+01
3.435800000000000000e+04,-1.000000000000000082e-05,-2.999999999999999737e-05,-4.000000000000000327e-05,2.000000000000000164e-05,-1.000000000000000082e-05,-1.000000000000000082e-05,-2.000000000000000164e-05,-2.000000000000000164e-05,1.000000000000000000e+00,1.200000000000000000e+01
3.435900000000000000e+04,-1.000000000000000082e-05,-1.000000000000000082e-05,-2.999999999999999737e-05,5.999999999999999474e-05,0.000000000000000000e+00,-2.000000000000000164e-05,-2.999999999999999737e-05,-1.000000000000000082e-05,1.000000000000000000e+00,1.200000000000000000e+01
3.436000000000000000e+04,-1.000000000000000082e-05,-1.000000000000000082e-05,-2.999999999999999737e-05,5.999999999999999474e-05,0.000000000000000000e+00,-2.000000000000000164e-05,-2.999999999999999737e-05,-1.000000000000000082e-05,1.000000000000000000e+00,1.200000000000000000e+01
3.436100000000000000e+04,0.000000000000000000e+00,2.000000000000000164e-05,5.000000000000000240e-05,2.999999999999999737e-05,0.000000000000000000e+00,1.000000000000000082e-05,-1.000000000000000082e-05,-1.000000000000000082e-05,1.000000000000000000e+00,1.200000000000000000e+01
3.436200000000000000e+04,0.000000000000000000e+00,2.000000000000000164e-05,5.000000000000000240e-05,2.999999999999999737e-05,0.000000000000000000e+00,1.000000000000000082e-05,-1.000000000000000082e-05,-1.000000000000000082e-05,1.000000000000000000e+00,1.200000000000000000e+01
3.436300000000000000e+04,0.000000000000000000e+00,2.000000000000000164e-05,5.000000000000000240e-05,2.999999999999999737e-05,0.000000000000000000e+00,1.000000000000000082e-05,-1.000000000000000082e-05,-1.000000000000000082e-05,1.000000000000000000e+00,1.200000000000000000e+01
3.436400000000000000e+04,0.000000000000000000e+00,2.000000000000000164e-05,5.000000000000000240e-05,2.999999999999999737e-05,0.000000000000000000e+00,1.000000000000000082e-05,-1.000000000000000082e-05,-1.000000000000000082e-05,1.000000000000000000e+00,1.200000000000000000e+01
3.436500000000000000e+04,0.000000000000000000e+00,2.000000000000000164e-05,5.000000000000000240e-05,2.999999999999999737e-05,0.000000000000000000e+00,1.000000000000000082e-05,-1.000000000000000082e-05,-1.000000000000000082e-05,1.000000000000000000e+00,1.200000000000000000e+01
3.436600000000000000e+04,0.000000000000000000e+00,2.000000000000000164e-05,5.000000000000000240e-05,2.999999999999999737e-05,0.000000000000000000e+00,1.000000000000000082e-05,-1.000000000000000082e-05,-1.000000000000000082e-05,1.000000000000000000e+00,1.200000000000000000e+01
3.436700000000000000e+04,0.000000000000000000e+00,2.000000000000000164e-05,5.000000000000000240e-05,2.999999999999999737e-05,0.000000000000000000e+00,1.000000000000000082e-05,-1.000000000000000082e-05,-1.000000000000000082e-05,1.000000000000000000e+00,1.200000000000000000e+01
3.436800000000000000e+04,0.000000000000000000e+00,2.000000000000000164e-05,5.000000000000000240e-05,2.999999999999999737e-05,0.000000000000000000e+00,1.000000000000000082e-05,-1.000000000000000082e-05,-1.000000000000000082e-05,1.000000000000000000e+00,1.200000000000000000e+01
3.436900000000000000e+04,0.000000000000000000e+00,2.000000000000000164e-05,5.000000000000000240e-05,2.999999999999999737e-05,0.000000000000000000e+00,1.000000000000000082e-05,-1.000000000000000082e-05,-1.000000000000000082e-05,1.000000000000000000e+00,1.200000000000000000e+01
3.437000000000000000e+04,0.000000000000000000e+00,2.000000000000000164e-05,5.000000000000000240e-05,2.999999999999999737e-05,0.000000000000000000e+00,1.000000000000000082e-05,-1.000000000000000082e-05,-1.000000000000000082e-05,1.000000000000000000e+00,1.200000000000000000e+01
3.437100000000000000e+04,0.000000000000000000e+00,2.000000000000000164e-05,5.000000000000000240e-05,2.999999999999999737e-05,0.000000000000000000e+00,1.000000000000000082e-05,-1.000000000000000082e-05,-1.000000000000000082e-05,1.000000000000000000e+00,1.200000000000000000e+01
3.437200000000000000e+04,0.000000000000000000e+00,2.000000000000000164e-05,5.000000000000000240e-05,2.999999999999999737e-05,0.000000000000000000e+00,1.000000000000000082e-05,-1.000000000000000082e-05,-1.000000000000000082e-05,1.000000000000000000e+00,1.200000000000000000e+01
3.437300000000000000e+04,0.000000000000000000e+00,2.000000000000000164e-05,5.000000000000000240e-05,2.999999999999999737e-05,0.000000000000000000e+00,1.000000000000000082e-05,-1.000000000000000082e-05,-1.000000000000000082e-05,1.000000000000000000e+00,1.200000000000000000e+01
3.437400000000000000e+04,0.000000000000000000e+00,2.000000000000000164e-05,5.000000000000000240e-05,2.999999999999999737e-05,0.000000000000000000e+00,1.000000000000000082e-05,-1.000000000000000082e-05,-1.000000000000000082e-05,1.000000000000000000e+00,1.200000000000000000e+01
3.437500000000000000e+04,0.000000000000000000e+00,2.000000000000000164e-05,5.000000000000000240e-05,2.999999999999999737e-05,0.000000000000000000e+00,1.000000000000000082e-05,-1.000000000000000082e-05,-1.000000000000000082e-05,1.000000000000000000e+00,1.200000000000000000e+01
3.437600000000000000e+04,0.000000000000000000e+00,2.000000000000000164e-05,5.000000000000000240e-05,2.999999999999999737e-05,0.000000000000000000e+00,1.000000000000000082e-05,-1.000000000000000082e-05,-1.000000000000000082e-05,1.000000000000000000e+00,1.200000000000000000e+01
3.437700000000000000e+04,0.000000000000000000e+00,2.000000000000000164e-05,5.000000000000000240e-05,2.999999999999999737e-05,0.000000000000000000e+00,1.000000000000000082e-05,-1.000000000000000082e-05,-1.000000000000000082e-05,1.000000000000000000e+00,1.200000000000000000e+01
3.437800000000000000e+04,0.000000000000000000e+00,2.000000000000000164e-05,5.000000000000000240e-05,2.999999999999999737e-05,0.000000000000000000e+00,1.000000000000000082e-05,-1.000000000000000082e-05,-1.000000000000000082e-05,1.000000000000000000e+00,1.200000000000000000e+01
3.437900000000000000e+04,0.000000000000000000e+00,2.000000000000000164e-05,5.000000000000000240e-05,2.999999999999999737e-05,0.000000000000000000e+00,1.000000000000000082e-05,-1.000000000000000082e-05,-1.000000000000000082e-05,1.000000000000000000e+00,1.200000000000000000e+01
3.438000000000000000e+04,0.000000000000000000e+00,2.000000000000000164e-05,5.000000000000000240e-05,2.999999999999999737e-05,0.000000000000000000e+00,1.000000000000000082e-05,-1.000000000000000082e-05,-1.000000000000000082e-05,1.000000000000000000e+00,1.200000000000000000e+01
3.438100000000000000e+04,-4.000000000000000327e-05,-4.000000000000000327e-05,-9.000000000000000567e-05,-6.999999999999999387e-05,-9.000000000000000567e-05,-2.999999999999999737e-05,0.000000000000000000e+00,-2.000000000000000164e-05,1.000000000000000000e+00,1.200000000000000000e+01
3.438200000000000000e+04,-4.000000000000000327e-05,-4.000000000000000327e-05,-9.000000000000000567e-05,-6.999999999999999387e-05,-9.000000000000000567e-05,-2.999999999999999737e-05,0.000000000000000000e+00,-2.000000000000000164e-05,1.000000000000000000e+00,1.200000000000000000e+01
3.438300000000000000e+04,-1.000000000000000082e-05,0.000000000000000000e+00,-1.000000000000000082e-05,-2.999999999999999737e-05,-4.000000000000000327e-05,-1.000000000000000082e-05,-1.000000000000000082e-05,1.000000000000000082e-05,1.000000000000000000e+00,1.200000000000000000e+01
3.438400000000000000e+04,-1.000000000000000082e-05,0.000000000000000000e+00,-1.000000000000000082e-05,-2.999999999999999737e-05,-4.000000000000000327e-05,-1.000000000000000082e-05,-1.000000000000000082e-05,1.000000000000000082e-05,1.000000000000000000e+00,1.200000000000000000e+01
3.438500000000000000e+04,-1.000000000000000082e-05,0.000000000000000000e+00,-1.000000000000000082e-05,-2.999999999999999737e-05,-4.000000000000000327e-05,-1.000000000000000082e-05,-1.000000000000000082e-05,1.000000000000000082e-05,1.000000000000000000e+00,1.200000000000000000e+01
3.438600000000000000e+04,-1.000000000000000082e-05,0.000000000000000000e+00,-1.000000000000000082e-05,-2.999999999999999737e-05,-4.000000000000000327e-05,-1.000000000000000082e-05,-1.000000000000000082e-05,1.000000000000000082e-05,1.000000000000000000e+00,1.200000000000000000e+01
3.438900000000000000e+04,-1.000000000000000082e-05,0.000000000000000000e+00,-1.000000000000000082e-05,-2.999999999999999737e-05,-4.000000000000000327e-05,-1.000000000000000082e-05,-1.000000000000000082e-05,1.000000000000000082e-05,1.000000000000000000e+00,1.200000000000000000e+01
3.439000000000000000e+04,-1.000000000000000082e-05,0.000000000000000000e+00,-1.000000000000000082e-05,-2.999999999999999737e-05,-4.000000000000000327e-05,-1.000000000000000082e-05,-1.000000000000000082e-05,1.000000000000000082e-05,1.000000000000000000e+00,1.200000000000000000e+01
3.439100000000000000e+04,-1.000000000000000082e-05,0.000000000000000000e+00,-1.000000000000000082e-05,-2.999999999999999737e-05,-4.000000000000000327e-05,-1.000000000000000082e-05,-1.000000000000000082e-05,1.000000000000000082e-05,1.000000000000000000e+00,1.200000000000000000e+01
3.439200000000000000e+04,-1.000000000000000082e-05,0.000000000000000000e+00,-1.000000000000000082e-05,-2.999999999999999737e-05,-4.000000000000000327e-05,-1.000000000000000082e-05,-1.000000000000000082e-05,1.000000000000000082e-05,1.000000000000000000e+00,1.200000000000000000e+01
3.439300000000000000e+04,-1.000000000000000082e-05,0.000000000000000000e+00,-1.000000000000000082e-05,-2.999999999999999737e-05,-4.000000000000000327e-05,-1.000000000000000082e-05,-1.000000000000000082e-05,1.000000000000000082e-05,1.000000000000000000e+00,1.200000000000000000e+01
3.439400000000000000e+04,-1.000000000000000082e-05,0.000000000000000000e+00,-1.000000000000000082e-05,-2.999999999999999737e-05,-4.000000000000000327e-05,-1.000000000000000082e-05,-1.000000000000000082e-05,1.000000000000000082e-05,1.000000000000000000e+00,1.200000000000000000e+01
3.439500000000000000e+04,-1.000000000000000082e-05,1.000000000000000082e-05,1.000000000000000082e-05,6.999999999999999387e-05,2.000000000000000164e-05,1.000000000000000082e-05,0.000000000000000000e+00,-2.000000000000000164e-05,1.000000000000000000e+00,1.200000000000000000e+01
3.439600000000000000e+04,-1.000000000000000082e-05,1.000000000000000082e-05,1.000000000000000082e-05,6.999999999999999387e-05,2.000000000000000164e-05,1.000000000000000082e-05,0.000000000000000000e+00,-2.000000000000000164e-05,1.000000000000000000e+00,1.200000000000000000e+01
3.439700000000000000e+04,-1.000000000000000082e-05,1.000000000000000082e-05,1.000000000000000082e-05,6.999999999999999387e-05,2.000000000000000164e-05,1.000000000000000082e-05,0.000000000000000000e+00,-2.000000000000000164e-05,1.000000000000000000e+00,1.200000000000000000e+01
3.439800000000000000e+04,-1.000000000000000082e-05,1.000000000000000082e-05,1.000000000000000082e-05,6.999999999999999387e-05,2.000000000000000164e-05,1.000000000000000082e-05,0.000000000000000000e+00,-2.000000000000000164e-05,1.000000000000000000e+00,1.200000000000000000e+01
3.439900000000000000e+04,-1.000000000000000082e-05,1.000000000000000082e-05,1.000000000000000082e-05,6.999999999999999387e-05,2.000000000000000164e-05,1.000000000000000082e-05,0.000000000000000000e+00,-2.000000000000000164e-05,1.000000000000000000e+00,1.200000000000000000e+01
3.440000000000000000e+04,-1.000000000000000082e-05,1.000000000000000082e-05,1.000000000000000082e-05,6.999999999999999387e-05,2.000000000000000164e-05,1.000000000000000082e-05,0.000000000000000000e+00,-2.000000000000000164e-05,1.000000000000000000e+00,1.200000000000000000e+01
3.440100000000000000e+04,-1.000000000000000082e-05,1.000000000000000082e-05,1.000000000000000082e-05,6.999999999999999387e-05,2.000000000000000164e-05,1.000000000000000082e-05,0.000000000000000000e+00,-2.000000000000000164e-05,1.000000000000000000e+00,1.200000000000000000e+01
3.440200000000000000e+04,-1.000000000000000082e-05,1.000000000000000082e-05,1.000000000000000082e-05,6.999999999999999387e-05,2.000000000000000164e-05,1.000000000000000082e-05,0.000000000000000000e+00,-2.000000000000000164e-05,1.000000000000000000e+00,1.200000000000000000e+01
3.440400000000000000e+04,2.000000000000000164e-05,1.000000000000000082e-05,-5.000000000000000240e-05,-1.600000000000000131e-04,-1.100000000000000039e-04,-1.000000000000000082e-05,1.000000000000000082e-05,-2.999999999999999737e-05,1.000000000000000000e+00,1.200000000000000000e+01
3.440500000000000000e+04,2.000000000000000164e-05,1.000000000000000082e-05,-5.000000000000000240e-05,-1.600000000000000131e-04,-1.100000000000000039e-04,-1.000000000000000082e-05,1.000000000000000082e-05,-2.999999999999999737e-05,1.000000000000000000e+00,1.200000000000000000e+01
3.440600000000000000e+04,2.000000000000000164e-05,1.000000000000000082e-05,-5.000000000000000240e-05,-1.600000000000000131e-04,-1.100000000000000039e-04,-1.000000000000000082e-05,1.000000000000000082e-05,-2.999999999999999737e-05,1.000000000000000000e+00,1.200000000000000000e+01
3.440700000000000000e+04,2.000000000000000164e-05,1.000000000000000082e-05,-5.000000000000000240e-05,-1.600000000000000131e-04,-1.100000000000000039e-04,-1.000000000000000082e-05,1.000000000000000082e-05,-2.999999999999999737e-05,1.000000000000000000e+00,1.200000000000000000e+01
3.440800000000000000e+04,2.000000000000000164e-05,1.000000000000000082e-05,-5.000000000000000240e-05,-1.600000000000000131e-04,-1.100000000000000039e-04,-1.000000000000000082e-05,1.000000000000000082e-05,-2.999999999999999737e-05,1.000000000000000000e+00,1.200000000000000000e+01
3.440900000000000000e+04,2.000000000000000164e-05,1.000000000000000082e-05,-5.000000000000000240e-05,-1.600000000000000131e-04,-1.100000000000000039e-04,-1.000000000000000082e-05,1.000000000000000082e-05,-2.999999999999999737e-05,1.000000000000000000e+00,1.200000000000000000e+01
3.441000000000000000e+04,2.000000000000000164e-05,1.000000000000000082e-05,-5.000000000000000240e-05,-1.600000000000000131e-04,-1.100000000000000039e-04,-1.000000000000000082e-05,1.000000000000000082e-05,-2.999999999999999737e-05,1.000000000000000000e+00,1.200000000000000000e+01
3.441100000000000000e+04,2.000000000000000164e-05,1.000000000000000082e-05,-5.000000000000000240e-05,-1.600000000000000131e-04,-1.100000000000000039e-04,-1.000000000000000082e-05,1.000000000000000082e-05,-2.999999999999999737e-05,1.000000000000000000e+00,1.200000000000000000e+01
3.441200000000000000e+04,2.000000000000000164e-05,1.000000000000000082e-05,-5.000000000000000240e-05,-1.600000000000000131e-04,-1.100000000000000039e-04,-1.000000000000000082e-05,1.000000000000000082e-05,-2.999999999999999737e-05,1.000000000000000000e+00,1.200000000000000000e+01
3.441300000000000000e+04,2.000000000000000164e-05,1.000000000000000082e-05,-5.000000000000000240e-05,-1.600000000000000131e-04,-1.100000000000000039e-04,-1.000000000000000082e-05,1.000000000000000082e-05,-2.999999999999999737e-05,1.000000000000000000e+00,1.200000000000000000e+01
3.441400000000000000e+04,2.000000000000000164e-05,1.000000000000000082e-05,-5.000000000000000240e-05,-1.600000000000000131e-04,-1.100000000000000039e-04,-1.000000000000000082e-05,1.000000000000000082e-05,-2.999999999999999737e-05,1.000000000000000000e+00,1.200000000000000000e+01
3.441500000000000000e+04,2.000000000000000164e-05,1.000000000000000082e-05,-5.000000000000000240e-05,-1.600000000000000131e-04,-1.100000000000000039e-04,-1.000000000000000082e-05,1.000000000000000082e-05,-2.999999999999999737e-05,1.000000000000000000e+00,1.200000000000000000e+01
3.441600000000000000e+04,2.000000000000000164e-05,1.000000000000000082e-05,-5.000000000000000240e-05,-1.600000000000000131e-04,-1.100000000000000039e-04,-1.000000000000000082e-05,1.000000000000000082e-05,-2.999999999999999737e-05,1.000000000000000000e+00,1.200000000000000000e+01
3.441700000000000000e+04,2.000000000000000164e-05,1.000000000000000082e-05,-5.000000000000000240e-05,-1.600000000000000131e-04,-1.100000000000000039e-04,-1.000000000000000082e-05,1.000000000000000082e-05,-2.999999999999999737e-05,1.000000000000000000e+00,1.200000000000000000e+01
3.441800000000000000e+04,2.000000000000000164e-05,1.000000000000000082e-05,-5.000000000000000240e-05,-1.600000000000000131e-04,-1.100000000000000039e-04,-1.000000000000000082e-05,1.000000000000000082e-05,-2.999999999999999737e-05,1.000000000000000000e+00,1.200000000000000000e+01
3.441900000000000000e+04,0.000000000000000000e+00,0.000000000000000000e+00,-1.000000000000000082e-05,-1.600000000000000131e-04,-4.000000000000000327e-05,8.000000000000000654e-05,0.000000000000000000e+00,0.000000000000000000e+00,1.000000000000000000e+00,1.200000000000000000e+01
3.442000000000000000e+04,-5.000000000000000240e-05,-4.000000000000000327e-05,-5.000000000000000240e-05,2.000000000000000164e-05,9.000000000000000567e-05,2.000000000000000164e-05,-2.999999999999999737e-05,-2.000000000000000164e-05,1.000000000000000000e+00,1.200000000000000000e+01
3.442100000000000000e+04,-5.000000000000000240e-05,-4.000000000000000327e-05,-5.000000000000000240e-05,2.000000000000000164e-05,9.000000000000000567e-05,2.000000000000000164e-05,-2.999999999999999737e-05,-2.000000000000000164e-05,1.000000000000000000e+00,1.200000000000000000e+01
3.442200000000000000e+04,-5.000000000000000240e-05,-4.000000000000000327e-05,-5.000000000000000240e-05,2.000000000000000164e-05,9.000000000000000567e-05,2.000000000000000164e-05,-2.999999999999999737e-05,-2.000000000000000164e-05,1.000000000000000000e+00,1.200000000000000000e+01
3.442300000000000000e+04,-5.000000000000000240e-05,-4.000000000000000327e-05,-5.000000000000000240e-05,2.000000000000000164e-05,9.000000000000000567e-05,2.000000000000000164e-05,-2.999999999999999737e-05,-2.000000000000000164e-05,1.000000000000000000e+00,1.200000000000000000e+01
3.442400000000000000e+04,-5.000000000000000240e-05,-4.000000000000000327e-05,-5.000000000000000240e-05,2.000000000000000164e-05,9.000000000000000567e-05,2.000000000000000164e-05,-2.999999999999999737e-05,-2.000000000000000164e-05,1.000000000000000000e+00,1.200000000000000000e+01
3.442500000000000000e+04,-5.000000000000000240e-05,-4.000000000000000327e-05,-5.000000000000000240e-05,2.000000000000000164e-05,9.000000000000000567e-05,2.000000000000000164e-05,-2.999999999999999737e-05,-2.000000000000000164e-05,1.000000000000000000e+00,1.200000000000000000e+01
3.442600000000000000e+04,-5.000000000000000240e-05,-4.000000000000000327e-05,-5.000000000000000240e-05,2.000000000000000164e-05,9.000000000000000567e-05,2.000000000000000164e-05,-2.999999999999999737e-05,-2.000000000000000164e-05,1.000000000000000000e+00,1.200000000000000000e+01
3.442700000000000000e+04,-5.000000000000000240e-05,-4.000000000000000327e-05,-5.000000000000000240e-05,2.000000000000000164e-05,9.000000000000000567e-05,2.000000000000000164e-05,-2.999999999999999737e-05,-2.000000000000000164e-05,1.000000000000000000e+00,1.200000000000000000e+01
3.442800000000000000e+04,-5.000000000000000240e-05,-4.000000000000000327e-05,-5.000000000000000240e-05,2.000000000000000164e-05,9.000000000000000567e-05,2.000000000000000164e-05,-2.999999999999999737e-05,-2.000000000000000164e-05,1.000000000000000000e+00,1.200000000000000000e+01
3.442900000000000000e+04,-5.000000000000000240e-05,-4.000000000000000327e-05,-5.000000000000000240e-05,2.000000000000000164e-05,9.000000000000000567e-05,2.000000000000000164e-05,-2.999999999999999737e-05,-2.000000000000000164e-05,1.000000000000000000e+00,1.200000000000000000e+01
3.443000000000000000e+04,-5.000000000000000240e-05,-4.000000000000000327e-05,-5.000000000000000240e-05,2.000000000000000164e-05,9.000000000000000567e-05,2.000000000000000164e-05,-2.999999999999999737e-05,-2.000000000000000164e-05,1.000000000000000000e+00,1.200000000000000000e+01
3.443100000000000000e+04,-5.000000000000000240e-05,-4.000000000000000327e-05,-5.000000000000000240e-05,2.000000000000000164e-05,9.000000000000000567e-05,2.000000000000000164e-05,-2.999999999999999737e-05,-2.000000000000000164e-05,1.000000000000000000e+00,1.200000000000000000e+01
3.443300000000000000e+04,-5.000000000000000240e-05,-4.000000000000000327e-05,-5.000000000000000240e-05,2.000000000000000164e-05,9.000000000000000567e-05,2.000000000000000164e-05,-2.999999999999999737e-05,-2.000000000000000164e-05,1.000000000000000000e+00,1.200000000000000000e+01
3.443400000000000000e+04,-5.000000000000000240e-05,-4.000000000000000327e-05,-5.000000000000000240e-05,2.000000000000000164e-05,9.000000000000000567e-05,2.000000000000000164e-05,-2.999999999999999737e-05,-2.000000000000000164e-05,1.000000000000000000e+00,1.200000000000000000e+01
3.443500000000000000e+04,-5.000000000000000240e-05,-4.000000000000000327e-05,-5.000000000000000240e-05,2.000000000000000164e-05,9.000000000000000567e-05,2.000000000000000164e-05,-2.999999999999999737e-05,-2.000000000000000164e-05,1.000000000000000000e+00,1.200000000000000000e+01
3.443600000000000000e+04,-5.000000000000000240e-05,-4.000000000000000327e-05,-5.000000000000000240e-05,2.000000000000000164e-05,9.000000000000000567e-05,2.000000000000000164e-05,-2.999999999999999737e-05,-2.000000000000000164e-05,1.000000000000000000e+00,1.200000000000000000e+01
3.443900000000000000e+04,-5.000000000000000240e-05,-4.000000000000000327e-05,-5.000000000000000240e-05,2.000000000000000164e-05,9.000000000000000567e-05,2.000000000000000164e-05,-2.999999999999999737e-05,-2.000000000000000164e-05,1.000000000000000000e+00,1.200000000000000000e+01
3.444000000000000000e+04,-2.000000000000000164e-05,1.000000000000000082e-05,2.000000000000000164e-05,2.000000000000000164e-05,0.000000000000000000e+00,-2.000000000000000164e-05,-1.000000000000000082e-05,0.000000000000000000e+00,1.000000000000000000e+00,1.200000000000000000e+01
3.444100000000000000e+04,-2.000000000000000164e-05,1.000000000000000082e-05,2.000000000000000164e-05,2.000000000000000164e-05,0.000000000000000000e+00,-2.000000000000000164e-05,-1.000000000000000082e-05,0.000000000000000000e+00,1.000000000000000000e+00,1.200000000000000000e+01
3.444200000000000000e+04,-2.000000000000000164e-05,1.000000000000000082e-05,2.000000000000000164e-05,2.000000000000000164e-05,0.000000000000000000e+00,-2.000000000000000164e-05,-1.000000000000000082e-05,0.000000000000000000e+00,1.000000000000000000e+00,1.200000000000000000e+01
3.444300000000000000e+04,-2.000000000000000164e-05,1.000000000000000082e-05,2.000000000000000164e-05,2.000000000000000164e-05,0.000000000000000000e+00,-2.000000000000000164e-05,-1.000000000000000082e-05,0.000000000000000000e+00,1.000000000000000000e+00,1.200000000000000000e+01
3.444400000000000000e+04,-2.000000000000000164e-05,1.000000000000000082e-05,2.000000000000000164e-05,2.000000000000000164e-05,0.000000000000000000e+00,-2.000000000000000164e-05,-1.000000000000000082e-05,0.000000000000000000e+00,1.000000000000000000e+00,1.200000000000000000e+01
3.444500000000000000e+04,-2.000000000000000164e-05,1.000000000000000082e-05,2.000000000000000164e-05,2.000000000000000164e-05,0.000000000000000000e+00,-2.000000000000000164e-05,-1.000000000000000082e-05,0.000000000000000000e+00,1.000000000000000000e+00,1.200000000000000000e+01
3.444600000000000000e+04,-2.000000000000000164e-05,1.000000000000000082e-05,2.000000000000000164e-05,2.000000000000000164e-05,0.000000000000000000e+00,-2.000000000000000164e-05,-1.000000000000000082e-05,0.000000000000000000e+00,1.000000000000000000e+00,1.200000000000000000e+01
3.444700000000000000e+04,-2.000000000000000164e-05,1.000000000000000082e-05,2.000000000000000164e-05,2.000000000000000164e-05,0.000000000000000000e+00,-2.000000000000000164e-05,-1.000000000000000082e-05,0.000000000000000000e+00,1.000000000000000000e+00,1.200000000000000000e+01
3.444800000000000000e+04,2.000000000000000164e-05,1.000000000000000082e-05,1.000000000000000082e-05,6.999999999999999387e-05,2.999999999999999737e-05,2.999999999999999737e-05,0.000000000000000000e+00,-2.000000000000000164e-05,1.000000000000000000e+00,1.200000000000000000e+01
3.444900000000000000e+04,-2.000000000000000164e-05,-4.000000000000000327e-05,-6.999999999999999387e-05,-5.000000000000000240e-05,0.000000000000000000e+00,-4.000000000000000327e-05,0.000000000000000000e+00,-2.000000000000000164e-05,1.000000000000000000e+00,1.200000000000000000e+01
3.445000000000000000e+04,-2.000000000000000164e-05,-4.000000000000000327e-05,-6.999999999999999387e-05,-5.000000000000000240e-05,0.000000000000000000e+00,-4.000000000000000327e-05,0.000000000000000000e+00,-2.000000000000000164e-05,1.000000000000000000e+00,1.200000000000000000e+01
3.445100000000000000e+04,-2.000000000000000164e-05,-4.000000000000000327e-05,-6.999999999999999387e-05,-5.000000000000000240e-05,0.000000000000000000e+00,-4.000000000000000327e-05,0.000000000000000000e+00,-2.000000000000000164e-05,1.000000000000000000e+00,1.200000000000000000e+01
3.445200000000000000e+04,-2.000000000000000164e-05,-4.000000000000000327e-05,-6.999999999999999387e-05,-5.000000000000000240e-05,0.000000000000000000e+00,-4.000000000000000327e-05,0.000000000000000000e+00,-2.000000000000000164e-05,1.000000000000000000e+00,1.200000000000000000e+01
3.445500000000000000e+04,-1.000000000000000082e-05,-1.000000000000000082e-05,1.000000000000000082e-05,-2.999999999999999737e-05,-8.000000000000000654e-05,-2.999999999999999737e-05,0.000000000000000000e+00,-1.000000000000000082e-05,1.000000000000000000e+00,1.200000000000000000e+01
3.445600000000000000e+04,-1.000000000000000082e-05,-1.000000000000000082e-05,1.000000000000000082e-05,-2.999999999999999737e-05,-8.000000000000000654e-05,-2.999999999999999737e-05,0.000000000000000000e+00,-1.000000000000000082e-05,1.000000000000000000e+00,1.200000000000000000e+01
3.445700000000000000e+04,-1.000000000000000082e-05,-1.000000000000000082e-05,1.000000000000000082e-05,-2.999999999999999737e-05,-8.000000000000000654e-05,-2.999999999999999737e-05,0.000000000000000000e+00,-1.000000000000000082e-05,1.000000000000000000e+00,1.200000000000000000e+01
3.445800000000000000e+04,-1.000000000000000082e-05,-1.000000000000000082e-05,1.000000000000000082e-05,-2.999999999999999737e-05,-8.000000000000000654e-05,-2.999999999999999737e-05,0.000000000000000000e+00,-1.000000000000000082e-05,1.000000000000000000e+00,1.200000000000000000e+01
3.445900000000000000e+04,-1.000000000000000082e-05,-1.000000000000000082e-05,1.000000000000000082e-05,-2.999999999999999737e-05,-8.000000000000000654e-05,-2.999999999999999737e-05,0.000000000000000000e+00,-1.000000000000000082e-05,1.000000000000000000e+00,1.200000000000000000e+01
3.446000000000000000e+04,-1.000000000000000082e-05,-1.000000000000000082e-05,1.000000000000000082e-05,-2.999999999999999737e-05,-8.000000000000000654e-05,-2.999999999999999737e-05,0.000000000000000000e+00,-1.000000000000000082e-05,1.000000000000000000e+00,1.200000000000000000e+01
3.446100000000000000e+04,-1.000000000000000082e-05,-1.000000000000000082e-05,1.000000000000000082e-05,-2.999999999999999737e-05,-8.000000000000000654e-05,-2.999999999999999737e-05,0.000000000000000000e+00,-1.000000000000000082e-05,1.000000000000000000e+00,1.200000000000000000e+01
3.446200000000000000e+04,-1.000000000000000082e-05,-1.000000000000000082e-05,1.000000000000000082e-05,-2.999999999999999737e-05,-8.000000000000000654e-05,-2.999999999999999737e-05,0.000000000000000000e+00,-1.000000000000000082e-05,1.000000000000000000e+00,1.200000000000000000e+01
3.446300000000000000e+04,-1.000000000000000082e-05,-1.000000000000000082e-05,1.000000000000000082e-05,-2.999999999999999737e-05,-8.000000000000000654e-05,-2.999999999999999737e-05,0.000000000000000000e+00,-1.000000000000000082e-05,1.000000000000000000e+00,1.200000000000000000e+01
3.446400000000000000e+04,-1.000000000000000082e-05,-1.000000000000000082e-05,1.000000000000000082e-05,-2.999999999999999737e-05,-8.000000000000000654e-05,-2.999999999999999737e-05,0.000000000000000000e+00,-1.000000000000000082e-05,1.000000000000000000e+00,1.200000000000000000e+01
3.446500000000000000e+04,-1.000000000000000082e-05,-1.000000000000000082e-05,1.000000000000000082e-05,-2.999999999999999737e-05,-8.000000000000000654e-05,-2.999999999999999737e-05,0.000000000000000000e+00,-1.000000000000000082e-05,1.000000000000000000e+00,1.200000000000000000e+01
3.446600000000000000e+04,-1.000000000000000082e-05,-1.000000000000000082e-05,1.000000000000000082e-05,-2.999999999999999737e-05,-8.000000000000000654e-05,-2.999999999999999737e-05,0.000000000000000000e+00,-1.000000000000000082e-05,1.000000000000000000e+00,1.200000000000000000e+01
3.446700000000000000e+04,-1.000000000000000082e-05,1.000000000000000082e-05,1.000000000000000082e-05,5.000000000000000240e-05,0.000000000000000000e+00,-2.999999999999999737e-05,-1.000000000000000082e-05,-1.000000000000000082e-05,1.000000000000000000e+00,1.200000000000000000e+01
3.446800000000000000e+04,-1.000000000000000082e-05,1.000000000000000082e-05,1.000000000000000082e-05,5.000000000000000240e-05,0.000000000000000000e+00,-2.999999999999999737e-05,-1.000000000000000082e-05,-1.000000000000000082e-05,1.000000000000000000e+00,1.200000000000000000e+01
3.446900000000000000e+04,-1.000000000000000082e-05,1.000000000000000082e-05,1.000000000000000082e-05,5.000000000000000240e-05,0.000000000000000000e+00,-2.999999999999999737e-05,-1.000000000000000082e-05,-1.000000000000000082e-05,1.000000000000000000e+00,1.200000000000000000e+01
3.447000000000000000e+04,-1.000000000000000082e-05,1.000000000000000082e-05,1.000000000000000082e-05,5.000000000000000240e-05,0.000000000000000000e+00,-2.999999999999999737e-05,-1.000000000000000082e-05,-1.000000000000000082e-05,1.000000000000000000e+00,1.200000000000000000e+01
3.447100000000000000e+04,-1.000000000000000082e-05,1.000000000000000082e-05,1.000000000000000082e-05,5.000000000000000240e-05,0.000000000000000000e+00,-2.999999999999999737e-05,-1.000000000000000082e-05,-1.000000000000000082e-05,1.000000000000000000e+00,1.200000000000000000e+01
3.447200000000000000e+04,-1.000000000000000082e-05,1.000000000000000082e-05,1.000000000000000082e-05,5.000000000000000240e-05,0.000000000000000000e+00,-2.999999999999999737e-05,-1.000000000000000082e-05,-1.000000000000000082e-05,1.000000000000000000e+00,1.200000000000000000e+01
3.447300000000000000e+04,-1.000000000000000082e-05,1.000000000000000082e-05,1.000000000000000082e-05,5.000000000000000240e-05,0.000000000000000000e+00,-2.999999999999999737e-05,-1.000000000000000082e-05,-1.000000000000000082e-05,1.000000000000000000e+00,1.200000000000000000e+01
3.447400000000000000e+04,-1.000000000000000082e-05,1.000000000000000082e-05,1.000000000000000082e-05,5.000000000000000240e-05,0.000000000000000000e+00,-2.999999999999999737e-05,-1.000000000000000082e-05,-1.000000000000000082e-05,1.000000000000000000e+00,1.200000000000000000e+01
3.447500000000000000e+04,-1.000000000000000082e-05,1.000000000000000082e-05,1.000000000000000082e-05,5.000000000000000240e-05,0.000000000000000000e+00,-2.999999999999999737e-05,-1.000000000000000082e-05,-1.000000000000000082e-05,1.000000000000000000e+00,1.200000000000000000e+01
3.447600000000000000e+04,-1.000000000000000082e-05,1.000000000000000082e-05,1.000000000000000082e-05,5.000000000000000240e-05,0.000000000000000000e+00,-2.999999999999999737e-05,-1.000000000000000082e-05,-1.000000000000000082e-05,1.000000000000000000e+00,1.200000000000000000e+01
3.447700000000000000e+04,-1.000000000000000082e-05,1.000000000000000082e-05,1.000000000000000082e-05,5.000000000000000240e-05,0.000000000000000000e+00,-2.999999999999999737e-05,-1.000000000000000082e-05,-1.000000000000000082e-05,1.000000000000000000e+00,1.200000000000000000e+01
3.447800000000000000e+04,0.000000000000000000e+00,2.000000000000000164e-05,1.000000000000000082e-05,1.000000000000000082e-05,2.000000000000000164e-05,0.000000000000000000e+00,0.000000000000000000e+00,1.000000000000000082e-05,1.000000000000000000e+00,1.200000000000000000e+01
3.447900000000000000e+04,0.000000000000000000e+00,2.000000000000000164e-05,1.000000000000000082e-05,1.000000000000000082e-05,2.000000000000000164e-05,0.000000000000000000e+00,0.000000000000000000e+00,1.000000000000000082e-05,1.000000000000000000e+00,1.200000000000000000e+01
3.448000000000000000e+04,0.000000000000000000e+00,2.000000000000000164e-05,1.000000000000000082e-05,1.000000000000000082e-05,2.000000000000000164e-05,0.000000000000000000e+00,0.000000000000000000e+00,1.000000000000000082e-05,1.000000000000000000e+00,1.200000000000000000e+01
3.448100000000000000e+04,0.000000000000000000e+00,2.000000000000000164e-05,1.000000000000000082e-05,1.000000000000000082e-05,2.000000000000000164e-05,0.000000000000000000e+00,0.000000000000000000e+00,1.000000000000000082e-05,1.000000000000000000e+00,1.200000000000000000e+01
3.448300000000000000e+04,0.000000000000000000e+00,2.000000000000000164e-05,1.000000000000000082e-05,1.000000000000000082e-05,2.000000000000000164e-05,0.000000000000000000e+00,0.000000000000000000e+00,1.000000000000000082e-05,1.000000000000000000e+00,1.200000000000000000e+01
3.448400000000000000e+04,0.000000000000000000e+00,2.000000000000000164e-05,1.000000000000000082e-05,1.000000000000000082e-05,2.000000000000000164e-05,0.000000000000000000e+00,0.000000000000000000e+00,1.000000000000000082e-05,1.000000000000000000e+00,1.200000000000000000e+01
3.448500000000000000e+04,-1.000000000000000082e-05,0.000000000000000000e+00,-4.000000000000000327e-05,1.000000000000000082e-05,-1.000000000000000082e-05,0.000000000000000000e+00,-2.000000000000000164e-05,-1.000000000000000082e-05,1.000000000000000000e+00,1.200000000000000000e+01
3.448600000000000000e+04,-1.000000000000000082e-05,0.000000000000000000e+00,-4.000000000000000327e-05,1.000000000000000082e-05,-1.000000000000000082e-05,0.000000000000000000e+00,-2.000000000000000164e-05,-1.000000000000000082e-05,1.000000000000000000e+00,1.200000000000000000e+01
3.448800000000000000e+04,-1.000000000000000082e-05,0.000000000000000000e+00,-4.000000000000000327e-05,1.000000000000000082e-05,-1.000000000000000082e-05,0.000000000000000000e+00,-2.000000000000000164e-05,-1.000000000000000082e-05,1.000000000000000000e+00,1.200000000000000000e+01
3.448900000000000000e+04,-1.000000000000000082e-05,0.000000000000000000e+00,-4.000000000000000327e-05,1.000000000000000082e-05,-1.000000000000000082e-05,0.000000000000000000e+00,-2.000000000000000164e-05,-1.000000000000000082e-05,1.000000000000000000e+00,1.200000000000000000e+01
3.449000000000000000e+04,-1.000000000000000082e-05,0.000000000000000000e+00,-4.000000000000000327e-05,1.000000000000000082e-05,-1.000000000000000082e-05,0.000000000000000000e+00,-2.000000000000000164e-05,-1.000000000000000082e-05,1.000000000000000000e+00,1.200000000000000000e+01
3.449100000000000000e+04,-1.000000000000000082e-05,0.000000000000000000e+00,-4.000000000000000327e-05,1.000000000000000082e-05,-1.000000000000000082e-05,0.000000000000000000e+00,-2.000000000000000164e-05,-1.000000000000000082e-05,1.000000000000000000e+00,1.200000000000000000e+01
3.449300000000000000e+04,-1.000000000000000082e-05,0.000000000000000000e+00,-4.000000000000000327e-05,1.000000000000000082e-05,-1.000000000000000082e-05,0.000000000000000000e+00,-2.000000000000000164e-05,-1.000000000000000082e-05,1.000000000000000000e+00,1.200000000000000000e+01
3.449400000000000000e+04,-1.000000000000000082e-05,0.000000000000000000e+00,-4.000000000000000327e-05,1.000000000000000082e-05,-1.000000000000000082e-05,0.000000000000000000e+00,-2.000000000000000164e-05,-1.000000000000000082e-05,1.000000000000000000e+00,1.200000000000000000e+01
3.449500000000000000e+04,-1.000000000000000082e-05,0.000000000000000000e+00,-4.000000000000000327e-05,1.000000000000000082e-05,-1.000000000000000082e-05,0.000000000000000000e+00,-2.000000000000000164e-05,-1.000000000000000082e-05,1.000000000000000000e+00,1.200000000000000000e+01
3.449600000000000000e+04,-1.000000000000000082e-05,0.000000000000000000e+00,-4.000000000000000327e-05,1.000000000000000082e-05,-1.000000000000000082e-05,0.000000000000000000e+00,-2.000000000000000164e-05,-1.000000000000000082e-05,1.000000000000000000e+00,1.200000000000000000e+01
3.449700000000000000e+04,-1.000000000000000082e-05,0.000000000000000000e+00,-4.000000000000000327e-05,1.000000000000000082e-05,-1.000000000000000082e-05,0.000000000000000000e+00,-2.000000000000000164e-05,-1.000000000000000082e-05,1.000000000000000000e+00,1.200000000000000000e+01
3.449800000000000000e+04,-1.000000000000000082e-05,0.000000000000000000e+00,-4.000000000000000327e-05,1.000000000000000082e-05,-1.000000000000000082e-05,0.000000000000000000e+00,-2.000000000000000164e-05,-1.000000000000000082e-05,1.000000000000000000e+00,1.200000000000000000e+01
3.449900000000000000e+04,-1.000000000000000082e-05,0.000000000000000000e+00,-4.000000000000000327e-05,1.000000000000000082e-05,-1.000000000000000082e-05,0.000000000000000000e+00,-2.000000000000000164e-05,-1.000000000000000082e-05,1.000000000000000000e+00,1.200000000000000000e+01
3.450000000000000000e+04,-1.000000000000000082e-05,0.000000000000000000e+00,-4.000000000000000327e-05,1.000000000000000082e-05,-1.000000000000000082e-05,0.000000000000000000e+00,-2.000000000000000164e-05,-1.000000000000000082e-05,1.000000000000000000e+00,1.200000000000000000e+01
3.450100000000000000e+04,-1.000000000000000082e-05,-5.999999999999999474e-05,-4.000000000000000327e-05,0.000000000000000000e+00,-1.000000000000000082e-05,-2.000000000000000164e-05,0.000000000000000000e+00,-2.000000000000000164e-05,1.000000000000000000e+00,1.200000000000000000e+01
3.450200000000000000e+04,-1.000000000000000082e-05,-5.999999999999999474e-05,-4.000000000000000327e-05,0.000000000000000000e+00,-1.000000000000000082e-05,-2.000000000000000164e-05,0.000000000000000000e+00,-2.000000000000000164e-05,1.000000000000000000e+00,1.200000000000000000e+01
3.450400000000000000e+04,-2.000000000000000164e-05,-5.000000000000000240e-05,-4.000000000000000327e-05,-9.000000000000000567e-05,0.000000000000000000e+00,-2.000000000000000164e-05,1.000000000000000082e-05,-1.000000000000000082e-05,1.000000000000000000e+00,1.200000000000000000e+01
3.450500000000000000e+04,-2.000000000000000164e-05,-5.000000000000000240e-05,-4.000000000000000327e-05,-9.000000000000000567e-05,0.000000000000000000e+00,-2.000000000000000164e-05,1.000000000000000082e-05,-1.000000000000000082e-05,1.000000000000000000e+00,1.200000000000000000e+01
3.450600000000000000e+04,-2.000000000000000164e-05,-5.000000000000000240e-05,-4.000000000000000327e-05,-9.000000000000000567e-05,0.000000000000000000e+00,-2.000000000000000164e-05,1.000000000000000082e-05,-1.000000000000000082e-05,1.000000000000000000e+00,1.200000000000000000e+01
3.450700000000000000e+04,-2.000000000000000164e-05,-5.000000000000000240e-05,-4.000000000000000327e-05,-9.000000000000000567e-05,0.000000000000000000e+00,-2.000000000000000164e-05,1.000000000000000082e-05,-1.000000000000000082e-05,1.000000000000000000e+00,1.200000000000000000e+01
3.450800000000000000e+04,-2.000000000000000164e-05,-5.000000000000000240e-05,-4.000000000000000327e-05,-9.000000000000000567e-05,0.000000000000000000e+00,-2.000000000000000164e-05,1.000000000000000082e-05,-1.000000000000000082e-05,1.000000000000000000e+00,1.200000000000000000e+01
3.450900000000000000e+04,-2.000000000000000164e-05,-5.000000000000000240e-05,-4.000000000000000327e-05,-9.000000000000000567e-05,0.000000000000000000e+00,-2.000000000000000164e-05,1.000000000000000082e-05,-1.000000000000000082e-05,1.000000000000000000e+00,1.200000000000000000e+01
3.451000000000000000e+04,-2.000000000000000164e-05,-5.000000000000000240e-05,-4.000000000000000327e-05,-9.000000000000000567e-05,0.000000000000000000e+00,-2.000000000000000164e-05,1.000000000000000082e-05,-1.000000000000000082e-05,1.000000000000000000e+00,1.200000000000000000e+01
3.451100000000000000e+04,-2.000000000000000164e-05,-5.000000000000000240e-05,-4.000000000000000327e-05,-9.000000000000000567e-05,0.000000000000000000e+00,-2.000000000000000164e-05,1.000000000000000082e-05,-1.000000000000000082e-05,1.000000000000000000e+00,1.200000000000000000e+01
3.451200000000000000e+04,-2.000000000000000164e-05,-5.000000000000000240e-05,-4.000000000000000327e-05,-9.000000000000000567e-05,0.000000000000000000e+00,-2.000000000000000164e-05,1.000000000000000082e-05,-1.000000000000000082e-05,1.000000000000000000e+00,1.200000000000000000e+01
3.451300000000000000e+04,-2.000000000000000164e-05,-5.000000000000000240e-05,-4.000000000000000327e-05,-9.000000000000000567e-05,0.000000000000000000e+00,-2.000000000000000164e-05,1.000000000000000082e-05,-1.000000000000000082e-05,1.000000000000000000e+00,1.200000000000000000e+01
3.451400000000000000e+04,-2.000000000000000164e-05,-5.000000000000000240e-05,-4.000000000000000327e-05,-9.000000000000000567e-05,0.000000000000000000e+00,-2.000000000000000164e-05,1.000000000000000082e-05,-1.000000000000000082e-05,1.000000000000000000e+00,1.200000000000000000e+01
3.451500000000000000e+04,-2.000000000000000164e-05,-5.000000000000000240e-05,-4.000000000000000327e-05,-9.000000000000000567e-05,0.000000000000000000e+00,-2.000000000000000164e-05,1.000000000000000082e-05,-1.000000000000000082e-05,1.000000000000000000e+00,1.200000000000000000e+01
3.451600000000000000e+04,-2.000000000000000164e-05,-5.000000000000000240e-05,-4.000000000000000327e-05,-9.000000000000000567e-05,0.000000000000000000e+00,-2.000000000000000164e-05,1.000000000000000082e-05,-1.000000000000000082e-05,1.000000000000000000e+00,1.200000000000000000e+01
3.451700000000000000e+04,-2.000000000000000164e-05,-5.000000000000000240e-05,-4.000000000000000327e-05,-9.000000000000000567e-05,0.000000000000000000e+00,-2.000000000000000164e-05,1.000000000000000082e-05,-1.000000000000000082e-05,1.000000000000000000e+00,1.200000000000000000e+01
3.451800000000000000e+04,-2.000000000000000164e-05,-5.000000000000000240e-05,-4.000000000000000327e-05,-9.000000000000000567e-05,0.000000000000000000e+00,-2.000000000000000164e-05,1.000000000000000082e-05,-1.000000000000000082e-05,1.000000000000000000e+00,1.200000000000000000e+01
3.451900000000000000e+04,-2.000000000000000164e-05,-5.000000000000000240e-05,-4.000000000000000327e-05,-9.000000000000000567e-05,0.000000000000000000e+00,-2.000000000000000164e-05,1.000000000000000082e-05,-1.000000000000000082e-05,1.000000000000000000e+00,1.200000000000000000e+01
3.452000000000000000e+04,-2.000000000000000164e-05,-5.000000000000000240e-05,-4.000000000000000327e-05,-9.000000000000000567e-05,0.000000000000000000e+00,-2.000000000000000164e-05,1.000000000000000082e-05,-1.000000000000000082e-05,1.000000000000000000e+00,1.200000000000000000e+01
3.452100000000000000e+04,-2.000000000000000164e-05,-5.000000000000000240e-05,-4.000000000000000327e-05,-9.000000000000000567e-05,0.000000000000000000e+00,-2.000000000000000164e-05,1.000000000000000082e-05,-1.000000000000000082e-05,1.000000000000000000e+00,1.200000000000000000e+01
3.452200000000000000e+04,-2.000000000000000164e-05,-5.000000000000000240e-05,-4.000000000000000327e-05,-9.000000000000000567e-05,0.000000000000000000e+00,-2.000000000000000164e-05,1.000000000000000082e-05,-1.000000000000000082e-05,1.000000000000000000e+00,1.200000000000000000e+01
3.452300000000000000e+04,-2.000000000000000164e-05,-5.000000000000000240e-05,-4.000000000000000327e-05,-9.000000000000000567e-05,0.000000000000000000e+00,-2.000000000000000164e-05,1.000000000000000082e-05,-1.000000000000000082e-05,1.000000000000000000e+00,1.200000000000000000e+01
3.452400000000000000e+04,1.000000000000000082e-05,1.000000000000000082e-05,2.999999999999999737e-05,2.000000000000000164e-05,-1.100000000000000039e-04,-9.000000000000000567e-05,-4.000000000000000327e-05,-2.999999999999999737e-05,1.000000000000000000e+00,1.200000000000000000e+01
3.452500000000000000e+04,0.000000000000000000e+00,0.000000000000000000e+00,2.000000000000000164e-05,0.000000000000000000e+00,-2.999999999999999737e-05,-1.000000000000000082e-05,-2.000000000000000164e-05,0.000000000000000000e+00,1.000000000000000000e+00,1.200000000000000000e+01
3.452600000000000000e+04,0.000000000000000000e+00,0.000000000000000000e+00,2.000000000000000164e-05,0.000000000000000000e+00,-2.999999999999999737e-05,-1.000000000000000082e-05,-2.000000000000000164e-05,0.000000000000000000e+00,1.000000000000000000e+00,1.200000000000000000e+01
3.452700000000000000e+04,0.000000000000000000e+00,0.000000000000000000e+00,2.000000000000000164e-05,0.000000000000000000e+00,-2.999999999999999737e-05,-1.000000000000000082e-05,-2.000000000000000164e-05,0.000000000000000000e+00,1.000000000000000000e+00,1.200000000000000000e+01
3.452800000000000000e+04,0.000000000000000000e+00,0.000000000000000000e+00,2.000000000000000164e-05,0.000000000000000000e+00,-2.999999999999999737e-05,-1.000000000000000082e-05,-2.000000000000000164e-05,0.000000000000000000e+00,1.000000000000000000e+00,1.200000000000000000e+01
3.452900000000000000e+04,0.000000000000000000e+00,0.000000000000000000e+00,2.000000000000000164e-05,0.000000000000000000e+00,-2.999999999999999737e-05,-1.000000000000000082e-05,-2.000000000000000164e-05,0.000000000000000000e+00,1.000000000000000000e+00,1.200000000000000000e+01
3.453000000000000000e+04,0.000000000000000000e+00,0.000000000000000000e+00,2.000000000000000164e-05,0.000000000000000000e+00,-2.999999999999999737e-05,-1.000000000000000082e-05,-2.000000000000000164e-05,0.000000000000000000e+00,1.000000000000000000e+00,1.200000000000000000e+01
3.453100000000000000e+04,0.000000000000000000e+00,0.000000000000000000e+00,2.000000000000000164e-05,0.000000000000000000e+00,-2.999999999999999737e-05,-1.000000000000000082e-05,-2.000000000000000164e-05,0.000000000000000000e+00,1.000000000000000000e+00,1.200000000000000000e+01
3.453200000000000000e+04,0.000000000000000000e+00,0.000000000000000000e+00,2.000000000000000164e-05,0.000000000000000000e+00,-2.999999999999999737e-05,-1.000000000000000082e-05,-2.000000000000000164e-05,0.000000000000000000e+00,1.000000000000000000e+00,1.200000000000000000e+01
3.453300000000000000e+04,0.000000000000000000e+00,0.000000000000000000e+00,2.000000000000000164e-05,0.000000000000000000e+00,-2.999999999999999737e-05,-1.000000000000000082e-05,-2.000000000000000164e-05,0.000000000000000000e+00,1.000000000000000000e+00,1.200000000000000000e+01
3.453400000000000000e+04,0.000000000000000000e+00,0.000000000000000000e+00,2.000000000000000164e-05,0.000000000000000000e+00,-2.999999999999999737e-05,-1.000000000000000082e-05,-2.000000000000000164e-05,0.000000000000000000e+00,1.000000000000000000e+00,1.200000000000000000e+01
3.453500000000000000e+04,0.000000000000000000e+00,0.000000000000000000e+00,2.000000000000000164e-05,0.000000000000000000e+00,-2.999999999999999737e-05,-1.000000000000000082e-05,-2.000000000000000164e-05,0.000000000000000000e+00,1.000000000000000000e+00,1.200000000000000000e+01
3.453600000000000000e+04,0.000000000000000000e+00,0.000000000000000000e+00,2.000000000000000164e-05,0.000000000000000000e+00,-2.999999999999999737e-05,-1.000000000000000082e-05,-2.000000000000000164e-05,0.000000000000000000e+00,1.000000000000000000e+00,1.200000000000000000e+01
3.453900000000000000e+04,-1.000000000000000082e-05,0.000000000000000000e+00,-2.999999999999999737e-05,-9.000000000000000567e-05,-2.999999999999999737e-05,-2.000000000000000164e-05,-2.000000000000000164e-05,-2.000000000000000164e-05,1.000000000000000000e+00,1.200000000000000000e+01
3.454000000000000000e+04,-5.000000000000000240e-05,-2.000000000000000164e-05,-2.000000000000000164e-05,-2.999999999999999737e-05,-5.000000000000000240e-05,-2.000000000000000164e-05,-1.000000000000000082e-05,-2.999999999999999737e-05,1.000000000000000000e+00,1.200000000000000000e+01
3.454100000000000000e+04,0.000000000000000000e+00,0.000000000000000000e+00,2.000000000000000164e-05,-5.000000000000000240e-05,-9.000000000000000567e-05,-2.000000000000000164e-05,1.000000000000000082e-05,1.000000000000000082e-05,1.000000000000000000e+00,1.200000000000000000e+01
3.454200000000000000e+04,0.000000000000000000e+00,0.000000000000000000e+00,2.000000000000000164e-05,-5.000000000000000240e-05,-9.000000000000000567e-05,-2.000000000000000164e-05,1.000000000000000082e-05,1.000000000000000082e-05,1.000000000000000000e+00,1.200000000000000000e+01
3.454300000000000000e+04,0.000000000000000000e+00,0.000000000000000000e+00,2.000000000000000164e-05,-5.000000000000000240e-05,-9.000000000000000567e-05,-2.000000000000000164e-05,1.000000000000000082e-05,1.000000000000000082e-05,1.000000000000000000e+00,1.200000000000000000e+01
3.454400000000000000e+04,0.000000000000000000e+00,0.000000000000000000e+00,2.000000000000000164e-05,-5.000000000000000240e-05,-9.000000000000000567e-05,-2.000000000000000164e-05,1.000000000000000082e-05,1.000000000000000082e-05,1.000000000000000000e+00,1.200000000000000000e+01
3.454500000000000000e+04,0.000000000000000000e+00,0.000000000000000000e+00,2.000000000000000164e-05,-5.000000000000000240e-05,-9.000000000000000567e-05,-2.000000000000000164e-05,1.000000000000000082e-05,1.000000000000000082e-05,1.000000000000000000e+00,1.200000000000000000e+01
3.454600000000000000e+04,0.000000000000000000e+00,0.000000000000000000e+00,2.000000000000000164e-05,-5.000000000000000240e-05,-9.000000000000000567e-05,-2.000000000000000164e-05,1.000000000000000082e-05,1.000000000000000082e-05,1.000000000000000000e+00,1.200000000000000000e+01
3.454700000000000000e+04,0.000000000000000000e+00,0.000000000000000000e+00,2.000000000000000164e-05,-5.000000000000000240e-05,-9.000000000000000567e-05,-2.000000000000000164e-05,1.000000000000000082e-05,1.000000000000000082e-05,1.000000000000000000e+00,1.200000000000000000e+01
3.454800000000000000e+04,0.000000000000000000e+00,0.000000000000000000e+00,2.000000000000000164e-05,-5.000000000000000240e-05,-9.000000000000000567e-05,-2.000000000000000164e-05,1.000000000000000082e-05,1.000000000000000082e-05,1.000000000000000000e+00,1.200000000000000000e+01
3.454900000000000000e+04,0.000000000000000000e+00,0.000000000000000000e+00,2.000000000000000164e-05,-5.000000000000000240e-05,-9.000000000000000567e-05,-2.000000000000000164e-05,1.000000000000000082e-05,1.000000000000000082e-05,1.000000000000000000e+00,1.200000000000000000e+01
3.455000000000000000e+04,0.000000000000000000e+00,0.000000000000000000e+00,2.000000000000000164e-05,-5.000000000000000240e-05,-9.000000000000000567e-05,-2.000000000000000164e-05,1.000000000000000082e-05,1.000000000000000082e-05,1.000000000000000000e+00,1.200000000000000000e+01
3.455100000000000000e+04,0.000000000000000000e+00,0.000000000000000000e+00,2.000000000000000164e-05,-5.000000000000000240e-05,-9.000000000000000567e-05,-2.000000000000000164e-05,1.000000000000000082e-05,1.000000000000000082e-05,1.000000000000000000e+00,1.200000000000000000e+01
3.455200000000000000e+04,0.000000000000000000e+00,0.000000000000000000e+00,2.000000000000000164e-05,-5.000000000000000240e-05,-9.000000000000000567e-05,-2.000000000000000164e-05,1.000000000000000082e-05,1.000000000000000082e-05,1.000000000000000000e+00,1.200000000000000000e+01
3.455300000000000000e+04,0.000000000000000000e+00,0.000000000000000000e+00,2.000000000000000164e-05,-5.000000000000000240e-05,-9.000000000000000567e-05,-2.000000000000000164e-05,1.000000000000000082e-05,1.000000000000000082e-05,1.000000000000000000e+00,1.200000000000000000e+01
3.455400000000000000e+04,0.000000000000000000e+00,0.000000000000000000e+00,2.000000000000000164e-05,-5.000000000000000240e-05,-9.000000000000000567e-05,-2.000000000000000164e-05,1.000000000000000082e-05,1.000000000000000082e-05,1.000000000000000000e+00,1.200000000000000000e+01
3.455500000000000000e+04,0.000000000000000000e+00,0.000000000000000000e+00,2.000000000000000164e-05,-5.000000000000000240e-05,-9.000000000000000567e-05,-2.000000000000000164e-05,1.000000000000000082e-05,1.000000000000000082e-05,1.000000000000000000e+00,1.200000000000000000e+01
3.455600000000000000e+04,0.000000000000000000e+00,0.000000000000000000e+00,2.000000000000000164e-05,-5.000000000000000240e-05,-9.000000000000000567e-05,-2.000000000000000164e-05,1.000000000000000082e-05,1.000000000000000082e-05,1.000000000000000000e+00,1.200000000000000000e+01
3.455700000000000000e+04,0.000000000000000000e+00,0.000000000000000000e+00,2.000000000000000164e-05,-5.000000000000000240e-05,-9.000000000000000567e-05,-2.000000000000000164e-05,1.000000000000000082e-05,1.000000000000000082e-05,1.000000000000000000e+00,1.200000000000000000e+01
3.455800000000000000e+04,0.000000000000000000e+00,0.000000000000000000e+00,2.000000000000000164e-05,-5.000000000000000240e-05,-9.000000000000000567e-05,-2.000000000000000164e-05,1.000000000000000082e-05,1.000000000000000082e-05,1.000000000000000000e+00,1.200000000000000000e+01
3.455900000000000000e+04,0.000000000000000000e+00,0.000000000000000000e+00,2.000000000000000164e-05,-5.000000000000000240e-05,-9.000000000000000567e-05,-2.000000000000000164e-05,1.000000000000000082e-05,1.000000000000000082e-05,1.000000000000000000e+00,1.200000000000000000e+01
3.456000000000000000e+04,0.000000000000000000e+00,0.000000000000000000e+00,2.000000000000000164e-05,-5.000000000000000240e-05,-9.000000000000000567e-05,-2.000000000000000164e-05,1.000000000000000082e-05,1.000000000000000082e-05,1.000000000000000000e+00,1.200000000000000000e+01
3.456100000000000000e+04,0.000000000000000000e+00,0.000000000000000000e+00,2.000000000000000164e-05,-5.000000000000000240e-05,-9.000000000000000567e-05,-2.000000000000000164e-05,1.000000000000000082e-05,1.000000000000000082e-05,1.000000000000000000e+00,1.200000000000000000e+01
3.456200000000000000e+04,-1.000000000000000082e-05,0.000000000000000000e+00,1.000000000000000082e-05,2.000000000000000164e-05,5.000000000000000240e-05,1.000000000000000082e-05,-1.000000000000000082e-05,2.000000000000000164e-05,1.000000000000000000e+00,1.200000000000000000e+01
3.456300000000000000e+04,-2.000000000000000164e-05,-4.000000000000000327e-05,-4.000000000000000327e-05,0.000000000000000000e+00,2.000000000000000164e-05,1.000000000000000082e-05,1.000000000000000082e-05,0.000000000000000000e+00,1.000000000000000000e+00,1.200000000000000000e+01
3.456400000000000000e+04,-2.000000000000000164e-05,-4.000000000000000327e-05,-4.000000000000000327e-05,0.000000000000000000e+00,2.000000000000000164e-05,1.000000000000000082e-05,1.000000000000000082e-05,0.000000000000000000e+00,1.000000000000000000e+00,1.200000000000000000e+01
3.456500000000000000e+04,-2.000000000000000164e-05,-4.000000000000000327e-05,-4.000000000000000327e-05,0.000000000000000000e+00,2.000000000000000164e-05,1.000000000000000082e-05,1.000000000000000082e-05,0.000000000000000000e+00,1.000000000000000000e+00,1.200000000000000000e+01
3.456600000000000000e+04,-2.000000000000000164e-05,-4.000000000000000327e-05,-4.000000000000000327e-05,0.000000000000000000e+00,2.000000000000000164e-05,1.000000000000000082e-05,1.000000000000000082e-05,0.000000000000000000e+00,1.000000000000000000e+00,1.200000000000000000e+01
3.456700000000000000e+04,-2.000000000000000164e-05,-4.000000000000000327e-05,-4.000000000000000327e-05,0.000000000000000000e+00,2.000000000000000164e-05,1.000000000000000082e-05,1.000000000000000082e-05,0.000000000000000000e+00,1.000000000000000000e+00,1.200000000000000000e+01
3.456800000000000000e+04,-2.000000000000000164e-05,-4.000000000000000327e-05,-4.000000000000000327e-05,0.000000000000000000e+00,2.000000000000000164e-05,1.000000000000000082e-05,1.000000000000000082e-05,0.000000000000000000e+00,1.000000000000000000e+00,1.200000000000000000e+01
3.456900000000000000e+04,-2.000000000000000164e-05,-4.000000000000000327e-05,-4.000000000000000327e-05,0.000000000000000000e+00,2.000000000000000164e-05,1.000000000000000082e-05,1.000000000000000082e-05,0.000000000000000000e+00,1.000000000000000000e+00,1.200000000000000000e+01
3.457000000000000000e+04,-2.000000000000000164e-05,-4.000000000000000327e-05,-4.000000000000000327e-05,0.000000000000000000e+00,2.000000000000000164e-05,1.000000000000000082e-05,1.000000000000000082e-05,0.000000000000000000e+00,1.000000000000000000e+00,1.200000000000000000e+01
3.457100000000000000e+04,-2.000000000000000164e-05,-4.000000000000000327e-05,-4.000000000000000327e-05,0.000000000000000000e+00,2.000000000000000164e-05,1.000000000000000082e-05,1.000000000000000082e-05,0.000000000000000000e+00,1.000000000000000000e+00,1.200000000000000000e+01
3.457200000000000000e+04,-2.000000000000000164e-05,-4.000000000000000327e-05,-4.000000000000000327e-05,0.000000000000000000e+00,2.000000000000000164e-05,1.000000000000000082e-05,1.000000000000000082e-05,0.000000000000000000e+00,1.000000000000000000e+00,1.200000000000000000e+01
3.457400000000000000e+04,-2.000000000000000164e-05,-4.000000000000000327e-05,-4.000000000000000327e-05,0.000000000000000000e+00,2.000000000000000164e-05,1.000000000000000082e-05,1.000000000000000082e-05,0.000000000000000000e+00,1.000000000000000000e+00,1.200000000000000000e+01
3.457500000000000000e+04,-2.000000000000000164e-05,-4.000000000000000327e-05,-4.000000000000000327e-05,0.000000000000000000e+00,2.000000000000000164e-05,1.000000000000000082e-05,1.000000000000000082e-05,0.000000000000000000e+00,1.000000000000000000e+00,1.200000000000000000e+01
3.457600000000000000e+04,-2.000000000000000164e-05,-4.000000000000000327e-05,-4.000000000000000327e-05,0.000000000000000000e+00,2.000000000000000164e-05,1.000000000000000082e-05,1.000000000000000082e-05,0.000000000000000000e+00,1.000000000000000000e+00,1.200000000000000000e+01
3.457700000000000000e+04,-2.000000000000000164e-05,-4.000000000000000327e-05,-4.000000000000000327e-05,0.000000000000000000e+00,2.000000000000000164e-05,1.000000000000000082e-05,1.000000000000000082e-05,0.000000000000000000e+00,1.000000000000000000e+00,1.200000000000000000e+01
3.457800000000000000e+04,-2.000000000000000164e-05,-4.000000000000000327e-05,-4.000000000000000327e-05,0.000000000000000000e+00,2.000000000000000164e-05,1.000000000000000082e-05,1.000000000000000082e-05,0.000000000000000000e+00,1.000000000000000000e+00,1.200000000000000000e+01
3.457900000000000000e+04,-2.000000000000000164e-05,-4.000000000000000327e-05,-4.000000000000000327e-05,0.000000000000000000e+00,2.000000000000000164e-05,1.000000000000000082e-05,1.000000000000000082e-05,0.000000000000000000e+00,1.000000000000000000e+00,1.200000000000000000e+01
3.458000000000000000e+04,-2.000000000000000164e-05,-4.000000000000000327e-05,-4.000000000000000327e-05,0.000000000000000000e+00,2.000000000000000164e-05,1.000000000000000082e-05,1.000000000000000082e-05,0.000000000000000000e+00,1.000000000000000000e+00,1.200000000000000000e+01
3.458100000000000000e+04,-2.000000000000000164e-05,-4.000000000000000327e-05,-4.000000000000000327e-05,0.000000000000000000e+00,2.000000000000000164e-05,1.000000000000000082e-05,1.000000000000000082e-05,0.000000000000000000e+00,1.000000000000000000e+00,1.200000000000000000e+01
3.458200000000000000e+04,-2.000000000000000164e-05,-4.000000000000000327e-05,-4.000000000000000327e-05,0.000000000000000000e+00,2.000000000000000164e-05,1.000000000000000082e-05,1.000000000000000082e-05,0.000000000000000000e+00,1.000000000000000000e+00,1.200000000000000000e+01
3.458300000000000000e+04,-2.000000000000000164e-05,-4.000000000000000327e-05,-4.000000000000000327e-05,0.000000000000000000e+00,2.000000000000000164e-05,1.000000000000000082e-05,1.000000000000000082e-05,0.000000000000000000e+00,1.000000000000000000e+00,1.200000000000000000e+01
3.458400000000000000e+04,-2.000000000000000164e-05,-4.000000000000000327e-05,-4.000000000000000327e-05,-2.000000000000000164e-05,2.000000000000000164e-05,-1.000000000000000082e-05,-1.000000000000000082e-05,-1.000000000000000082e-05,1.000000000000000000e+00,1.200000000000000000e+01
3.458500000000000000e+04,-1.000000000000000082e-05,-1.000000000000000082e-05,1.000000000000000082e-05,6.999999999999999387e-05,-2.000000000000000164e-05,2.000000000000000164e-05,-1.000000000000000082e-05,-1.000000000000000082e-05,1.000000000000000000e+00,1.200000000000000000e+01
3.458600000000000000e+04,-1.000000000000000082e-05,-1.000000000000000082e-05,1.000000000000000082e-05,6.999999999999999387e-05,-2.000000000000000164e-05,2.000000000000000164e-05,-1.000000000000000082e-05,-1.000000000000000082e-05,1.000000000000000000e+00,1.200000000000000000e+01
3.458800000000000000e+04,-1.000000000000000082e-05,-1.000000000000000082e-05,1.000000000000000082e-05,6.999999999999999387e-05,-2.000000000000000164e-05,2.000000000000000164e-05,-1.000000000000000082e-05,-1.000000000000000082e-05,1.000000000000000000e+00,1.200000000000000000e+01
3.458900000000000000e+04,-1.000000000000000082e-05,-1.000000000000000082e-05,1.000000000000000082e-05,6.999999999999999387e-05,-2.000000000000000164e-05,2.000000000000000164e-05,-1.000000000000000082e-05,-1.000000000000000082e-05,1.000000000000000000e+00,1.200000000000000000e+01
3.459000000000000000e+04,-1.000000000000000082e-05,-1.000000000000000082e-05,1.000000000000000082e-05,6.999999999999999387e-05,-2.000000000000000164e-05,2.000000000000000164e-05,-1.000000000000000082e-05,-1.000000000000000082e-05,1.000000000000000000e+00,1.200000000000000000e+01
3.459100000000000000e+04,-1.000000000000000082e-05,-1.000000000000000082e-05,1.000000000000000082e-05,6.999999999999999387e-05,-2.000000000000000164e-05,2.000000000000000164e-05,-1.000000000000000082e-05,-1.000000000000000082e-05,1.000000000000000000e+00,1.200000000000000000e+01
3.459200000000000000e+04,-1.000000000000000082e-05,-1.000000000000000082e-05,1.000000000000000082e-05,6.999999999999999387e-05,-2.000000000000000164e-05,2.000000000000000164e-05,-1.000000000000000082e-05,-1.000000000000000082e-05,1.000000000000000000e+00,1.200000000000000000e+01
3.459300000000000000e+04,-1.000000000000000082e-05,-1.000000000000000082e-05,1.000000000000000082e-05,6.999999999999999387e-05,-2.000000000000000164e-05,2.000000000000000164e-05,-1.000000000000000082e-05,-1.000000000000000082e-05,1.000000000000000000e+00,1.200000000000000000e+01
3.459400000000000000e+04,-1.000000000000000082e-05,-1.000000000000000082e-05,1.000000000000000082e-05,6.999999999999999387e-05,-2.000000000000000164e-05,2.000000000000000164e-05,-1.000000000000000082e-05,-1.000000000000000082e-05,1.000000000000000000e+00,1.200000000000000000e+01
3.459500000000000000e+04,-1.000000000000000082e-05,-1.000000000000000082e-05,1.000000000000000082e-05,6.999999999999999387e-05,-2.000000000000000164e-05,2.000000000000000164e-05,-1.000000000000000082e-05,-1.000000000000000082e-05,1.000000000000000000e+00,1.200000000000000000e+01
3.459600000000000000e+04,-1.000000000000000082e-05,-1.000000000000000082e-05,1.000000000000000082e-05,6.999999999999999387e-05,-2.000000000000000164e-05,2.000000000000000164e-05,-1.000000000000000082e-05,-1.000000000000000082e-05,1.000000000000000000e+00,1.200000000000000000e+01
3.459700000000000000e+04,-1.000000000000000082e-05,-1.000000000000000082e-05,1.000000000000000082e-05,6.999999999999999387e-05,-2.000000000000000164e-05,2.000000000000000164e-05,-1.000000000000000082e-05,-1.000000000000000082e-05,1.000000000000000000e+00,1.200000000000000000e+01
3.459800000000000000e+04,-1.000000000000000082e-05,-1.000000000000000082e-05,1.000000000000000082e-05,6.999999999999999387e-05,-2.000000000000000164e-05,2.000000000000000164e-05,-1.000000000000000082e-05,-1.000000000000000082e-05,1.000000000000000000e+00,1.200000000000000000e+01
3.459900000000000000e+04,1.000000000000000082e-05,0.000000000000000000e+00,-2.999999999999999737e-05,-1.000000000000000082e-05,-2.999999999999999737e-05,-4.000000000000000327e-05,0.000000000000000000e+00,-2.000000000000000164e-05,1.000000000000000000e+00,1.200000000000000000e+01
3.460000000000000000e+04,-2.000000000000000164e-05,1.000000000000000082e-05,-1.000000000000000082e-05,-6.999999999999999387e-05,-2.000000000000000164e-05,-2.999999999999999737e-05,-1.000000000000000082e-05,1.000000000000000082e-05,1.000000000000000000e+00,1.200000000000000000e+01
3.460100000000000000e+04,0.000000000000000000e+00,0.000000000000000000e+00,-1.000000000000000082e-05,5.000000000000000240e-05,2.000000000000000164e-05,-1.000000000000000082e-05,-2.000000000000000164e-05,-1.000000000000000082e-05,1.000000000000000000e+00,1.200000000000000000e+01
3.460200000000000000e+04,0.000000000000000000e+00,0.000000000000000000e+00,-1.000000000000000082e-05,5.000000000000000240e-05,2.000000000000000164e-05,-1.000000000000000082e-05,-2.000000000000000164e-05,-1.000000000000000082e-05,1.000000000000000000e+00,1.200000000000000000e+01
3.460400000000000000e+04,0.000000000000000000e+00,0.000000000000000000e+00,-1.000000000000000082e-05,5.000000000000000240e-05,2.000000000000000164e-05,-1.000000000000000082e-05,-2.000000000000000164e-05,-1.000000000000000082e-05,1.000000000000000000e+00,1.200000000000000000e+01
3.460500000000000000e+04,0.000000000000000000e+00,0.000000000000000000e+00,-1.000000000000000082e-05,5.000000000000000240e-05,2.000000000000000164e-05,-1.000000000000000082e-05,-2.000000000000000164e-05,-1.000000000000000082e-05,1.000000000000000000e+00,1.200000000000000000e+01
3.460600000000000000e+04,0.000000000000000000e+00,0.000000000000000000e+00,-1.000000000000000082e-05,5.000000000000000240e-05,2.000000000000000164e-05,-1.000000000000000082e-05,-2.000000000000000164e-05,-1.000000000000000082e-05,1.000000000000000000e+00,1.200000000000000000e+01
3.460700000000000000e+04,0.000000000000000000e+00,0.000000000000000000e+00,-1.000000000000000082e-05,5.000000000000000240e-05,2.000000000000000164e-05,-1.000000000000000082e-05,-2.000000000000000164e-05,-1.000000000000000082e-05,1.000000000000000000e+00,1.200000000000000000e+01
3.460800000000000000e+04,0.000000000000000000e+00,0.000000000000000000e+00,-1.000000000000000082e-05,5.000000000000000240e-05,2.000000000000000164e-05,-1.000000000000000082e-05,-2.000000000000000164e-05,-1.000000000000000082e-05,1.000000000000000000e+00,1.200000000000000000e+01
3.460900000000000000e+04,0.000000000000000000e+00,0.000000000000000000e+00,-1.000000000000000082e-05,5.000000000000000240e-05,2.000000000000000164e-05,-1.000000000000000082e-05,-2.000000000000000164e-05,-1.000000000000000082e-05,1.000000000000000000e+00,1.200000000000000000e+01
3.461000000000000000e+04,0.000000000000000000e+00,0.000000000000000000e+00,-1.000000000000000082e-05,5.000000000000000240e-05,2.000000000000000164e-05,-1.000000000000000082e-05,-2.000000000000000164e-05,-1.000000000000000082e-05,1.000000000000000000e+00,1.200000000000000000e+01
3.461100000000000000e+04,0.000000000000000000e+00,0.000000000000000000e+00,-1.000000000000000082e-05,5.000000000000000240e-05,2.000000000000000164e-05,-1.000000000000000082e-05,-2.000000000000000164e-05,-1.000000000000000082e-05,1.000000000000000000e+00,1.200000000000000000e+01
3.461200000000000000e+04,0.000000000000000000e+00,0.000000000000000000e+00,-1.000000000000000082e-05,5.000000000000000240e-05,2.000000000000000164e-05,-1.000000000000000082e-05,-2.000000000000000164e-05,-1.000000000000000082e-05,1.000000000000000000e+00,1.200000000000000000e+01
3.461300000000000000e+04,0.000000000000000000e+00,0.000000000000000000e+00,-1.000000000000000082e-05,5.000000000000000240e-05,2.000000000000000164e-05,-1.000000000000000082e-05,-2.000000000000000164e-05,-1.000000000000000082e-05,1.000000000000000000e+00,1.200000000000000000e+01
3.461400000000000000e+04,0.000000000000000000e+00,0.000000000000000000e+00,-1.000000000000000082e-05,5.000000000000000240e-05,2.000000000000000164e-05,-1.000000000000000082e-05,-2.000000000000000164e-05,-1.000000000000000082e-05,1.000000000000000000e+00,1.200000000000000000e+01
3.461500000000000000e+04,0.000000000000000000e+00,0.000000000000000000e+00,-1.000000000000000082e-05,5.000000000000000240e-05,2.000000000000000164e-05,-1.000000000000000082e-05,-2.000000000000000164e-05,-1.000000000000000082e-05,1.000000000000000000e+00,1.200000000000000000e+01
3.461600000000000000e+04,0.000000000000000000e+00,0.000000000000000000e+00,-1.000000000000000082e-05,5.000000000000000240e-05,2.000000000000000164e-05,-1.000000000000000082e-05,-2.000000000000000164e-05,-1.000000000000000082e-05,1.000000000000000000e+00,1.200000000000000000e+01
3.461700000000000000e+04,0.000000000000000000e+00,0.000000000000000000e+00,-1.000000000000000082e-05,5.000000000000000240e-05,2.000000000000000164e-05,-1.000000000000000082e-05,-2.000000000000000164e-05,-1.000000000000000082e-05,1.000000000000000000e+00,1.200000000000000000e+01
3.461800000000000000e+04,0.000000000000000000e+00,0.000000000000000000e+00,-1.000000000000000082e-05,5.000000000000000240e-05,2.000000000000000164e-05,-1.000000000000000082e-05,-2.000000000000000164e-05,-1.000000000000000082e-05,1.000000000000000000e+00,1.200000000000000000e+01
3.461900000000000000e+04,0.000000000000000000e+00,0.000000000000000000e+00,-1.000000000000000082e-05,5.000000000000000240e-05,2.000000000000000164e-05,-1.000000000000000082e-05,-2.000000000000000164e-05,-1.000000000000000082e-05,1.000000000000000000e+00,1.200000000000000000e+01
3.462000000000000000e+04,0.000000000000000000e+00,0.000000000000000000e+00,-1.000000000000000082e-05,5.000000000000000240e-05,2.000000000000000164e-05,-1.000000000000000082e-05,-2.000000000000000164e-05,-1.000000000000000082e-05,1.000000000000000000e+00,1.200000000000000000e+01
3.462100000000000000e+04,1.000000000000000082e-05,0.000000000000000000e+00,5.000000000000000240e-05,1.000000000000000082e-05,-1.000000000000000082e-05,-2.000000000000000164e-05,0.000000000000000000e+00,-1.000000000000000082e-05,1.000000000000000000e+00,1.200000000000000000e+01
3.462200000000000000e+04,1.000000000000000082e-05,0.000000000000000000e+00,5.000000000000000240e-05,1.000000000000000082e-05,-1.000000000000000082e-05,-2.000000000000000164e-05,0.000000000000000000e+00,-1.000000000000000082e-05,1.000000000000000000e+00,1.200000000000000000e+01
3.462300000000000000e+04,-1.000000000000000082e-05,0.000000000000000000e+00,4.000000000000000327e-05,-5.000000000000000240e-05,-4.000000000000000327e-05,0.000000000000000000e+00,0.000000000000000000e+00,0.000000000000000000e+00,1.000000000000000000e+00,1.200000000000000000e+01
3.462400000000000000e+04,-1.000000000000000082e-05,0.000000000000000000e+00,4.000000000000000327e-05,-5.000000000000000240e-05,-4.000000000000000327e-05,0.000000000000000000e+00,0.000000000000000000e+00,0.000000000000000000e+00,1.000000000000000000e+00,1.200000000000000000e+01
3.462500000000000000e+04,-1.000000000000000082e-05,0.000000000000000000e+00,4.000000000000000327e-05,-5.000000000000000240e-05,-4.000000000000000327e-05,0.000000000000000000e+00,0.000000000000000000e+00,0.000000000000000000e+00,1.000000000000000000e+00,1.200000000000000000e+01
3.462600000000000000e+04,-1.000000000000000082e-05,0.000000000000000000e+00,4.000000000000000327e-05,-5.000000000000000240e-05,-4.000000000000000327e-05,0.000000000000000000e+00,0.000000000000000000e+00,0.000000000000000000e+00,1.000000000000000000e+00,1.200000000000000000e+01
3.462700000000000000e+04,-1.000000000000000082e-05,0.000000000000000000e+00,4.000000000000000327e-05,-5.000000000000000240e-05,-4.000000000000000327e-05,0.000000000000000000e+00,0.000000000000000000e+00,0.000000000000000000e+00,1.000000000000000000e+00,1.200000000000000000e+01
3.462800000000000000e+04,-1.000000000000000082e-05,0.000000000000000000e+00,4.000000000000000327e-05,-5.000000000000000240e-05,-4.000000000000000327e-05,0.000000000000000000e+00,0.000000000000000000e+00,0.000000000000000000e+00,1.000000000000000000e+00,1.200000000000000000e+01
3.462900000000000000e+04,-1.000000000000000082e-05,0.000000000000000000e+00,4.000000000000000327e-05,-5.000000000000000240e-05,-4.000000000000000327e-05,0.000000000000000000e+00,0.000000000000000000e+00,0.000000000000000000e+00,1.000000000000000000e+00,1.200000000000000000e+01
3.463000000000000000e+04,-1.000000000000000082e-05,0.000000000000000000e+00,4.000000000000000327e-05,-5.000000000000000240e-05,-4.000000000000000327e-05,0.000000000000000000e+00,0.000000000000000000e+00,0.000000000000000000e+00,1.000000000000000000e+00,1.200000000000000000e+01
3.463100000000000000e+04,-1.000000000000000082e-05,0.000000000000000000e+00,4.000000000000000327e-05,-5.000000000000000240e-05,-4.000000000000000327e-05,0.000000000000000000e+00,0.000000000000000000e+00,0.000000000000000000e+00,1.000000000000000000e+00,1.200000000000000000e+01
3.463200000000000000e+04,-1.000000000000000082e-05,0.000000000000000000e+00,4.000000000000000327e-05,-5.000000000000000240e-05,-4.000000000000000327e-05,0.000000000000000000e+00,0.000000000000000000e+00,0.000000000000000000e+00,1.000000000000000000e+00,1.200000000000000000e+01
3.463300000000000000e+04,-1.000000000000000082e-05,0.000000000000000000e+00,4.000000000000000327e-05,-5.000000000000000240e-05,-4.000000000000000327e-05,0.000000000000000000e+00,0.000000000000000000e+00,0.000000000000000000e+00,1.000000000000000000e+00,1.200000000000000000e+01
3.463400000000000000e+04,-1.000000000000000082e-05,0.000000000000000000e+00,4.000000000000000327e-05,-5.000000000000000240e-05,-4.000000000000000327e-05,0.000000000000000000e+00,0.000000000000000000e+00,0.000000000000000000e+00,1.000000000000000000e+00,1.200000000000000000e+01
3.463500000000000000e+04,-1.000000000000000082e-05,0.000000000000000000e+00,4.000000000000000327e-05,-5.000000000000000240e-05,-4.000000000000000327e-05,0.000000000000000000e+00,0.000000000000000000e+00,0.000000000000000000e+00,1.000000000000000000e+00,1.200000000000000000e+01
3.463600000000000000e+04,-1.000000000000000082e-05,0.000000000000000000e+00,4.000000000000000327e-05,-5.000000000000000240e-05,-4.000000000000000327e-05,0.000000000000000000e+00,0.000000000000000000e+00,0.000000000000000000e+00,1.000000000000000000e+00,1.200000000000000000e+01
3.463800000000000000e+04,-1.000000000000000082e-05,0.000000000000000000e+00,4.000000000000000327e-05,-5.000000000000000240e-05,-4.000000000000000327e-05,0.000000000000000000e+00,0.000000000000000000e+00,0.000000000000000000e+00,1.000000000000000000e+00,1.200000000000000000e+01
3.463900000000000000e+04,-1.000000000000000082e-05,0.000000000000000000e+00,4.000000000000000327e-05,-5.000000000000000240e-05,-4.000000000000000327e-05,0.000000000000000000e+00,0.000000000000000000e+00,0.000000000000000000e+00,1.000000000000000000e+00,1.200000000000000000e+01
3.464000000000000000e+04,-1.000000000000000082e-05,0.000000000000000000e+00,4.000000000000000327e-05,-5.000000000000000240e-05,-4.000000000000000327e-05,0.000000000000000000e+00,0.000000000000000000e+00,0.000000000000000000e+00,1.000000000000000000e+00,1.200000000000000000e+01
3.464100000000000000e+04,-1.000000000000000082e-05,0.000000000000000000e+00,4.000000000000000327e-05,-5.000000000000000240e-05,-4.000000000000000327e-05,0.000000000000000000e+00,0.000000000000000000e+00,0.000000000000000000e+00,1.000000000000000000e+00,1.200000000000000000e+01
3.464200000000000000e+04,-1.000000000000000082e-05,0.000000000000000000e+00,4.000000000000000327e-05,-5.000000000000000240e-05,-4.000000000000000327e-05,0.000000000000000000e+00,0.000000000000000000e+00,0.000000000000000000e+00,1.000000000000000000e+00,1.200000000000000000e+01
3.464300000000000000e+04,-1.000000000000000082e-05,0.000000000000000000e+00,4.000000000000000327e-05,-5.000000000000000240e-05,-4.000000000000000327e-05,0.000000000000000000e+00,0.000000000000000000e+00,0.000000000000000000e+00,1.000000000000000000e+00,1.200000000000000000e+01
