1.754500000000000000e+04,5.999999999999999474e-05,1.300000000000000157e-04,3.299999999999999982e-04,3.499999999999999964e-04,4.099999999999999912e-04,2.299999999999999799e-04,1.899999999999999834e-04,1.199999999999999895e-04,4.000000000000000000e+00,6.000000000000000000e+00
1.754600000000000000e+04,5.999999999999999474e-05,1.300000000000000157e-04,3.299999999999999982e-04,3.499999999999999964e-04,4.099999999999999912e-04,2.299999999999999799e-04,1.899999999999999834e-04,1.199999999999999895e-04,4.000000000000000000e+00,6.000000000000000000e+00
1.754700000000000000e+04,5.999999999999999474e-05,1.300000000000000157e-04,3.299999999999999982e-04,3.499999999999999964e-04,4.099999999999999912e-04,2.299999999999999799e-04,1.899999999999999834e-04,1.199999999999999895e-04,4.000000000000000000e+00,6.000000000000000000e+00
1.754800000000000000e+04,5.999999999999999474e-05,1.300000000000000157e-04,3.299999999999999982e-04,3.499999999999999964e-04,4.099999999999999912e-04,2.299999999999999799e-04,1.899999999999999834e-04,1.199999999999999895e-04,4.000000000000000000e+00,6.000000000000000000e+00
1.754900000000000000e+04,5.999999999999999474e-05,1.300000000000000157e-04,3.299999999999999982e-04,3.499999999999999964e-04,4.099999999999999912e-04,2.299999999999999799e-04,1.899999999999999834e-04,1.199999999999999895e-04,4.000000000000000000e+00,6.000000000000000000e+00
1.755000000000000000e+04,2.000000000000000164e-05,1.000000000000000082e-05,2.000000000000000164e-05,-4.200000000000000174e-04,1.000000000000000048e-04,8.000000000000000654e-05,6.999999999999999387e-05,2.999999999999999737e-05,4.000000000000000000e+00,6.000000000000000000e+00
1.755100000000000000e+04,2.000000000000000164e-05,1.000000000000000082e-05,2.000000000000000164e-05,-4.200000000000000174e-04,1.000000000000000048e-04,8.000000000000000654e-05,6.999999999999999387e-05,2.999999999999999737e-05,4.000000000000000000e+00,6.000000000000000000e+00
1.755200000000000000e+04,2.000000000000000164e-05,1.000000000000000082e-05,2.000000000000000164e-05,-4.200000000000000174e-04,1.000000000000000048e-04,8.000000000000000654e-05,6.999999999999999387e-05,2.999999999999999737e-05,4.000000000000000000e+00,6.000000000000000000e+00
1.755300000000000000e+04,2.000000000000000164e-05,1.000000000000000082e-05,2.000000000000000164e-05,-4.200000000000000174e-04,1.000000000000000048e-04,8.000000000000000654e-05,6.999999999999999387e-05,2.999999999999999737e-05,4.000000000000000000e+00,6.000000000000000000e+00
1.755400000000000000e+04,2.000000000000000164e-05,1.000000000000000082e-05,2.000000000000000164e-05,-4.200000000000000174e-04,1.000000000000000048e-04,8.000000000000000654e-05,6.999999999999999387e-05,2.999999999999999737e-05,4.000000000000000000e+00,6.000000000000000000e+00
1.755500000000000000e+04,2.000000000000000164e-05,1.000000000000000082e-05,2.000000000000000164e-05,-4.200000000000000174e-04,1.000000000000000048e-04,8.000000000000000654e-05,6.999999999999999387e-05,2.999999999999999737e-05,4.000000000000000000e+00,6.000000000000000000e+00
1.755600000000000000e+04,2.000000000000000164e-05,1.000000000000000082e-05,2.000000000000000164e-05,-4.200000000000000174e-04,1.000000000000000048e-04,8.000000000000000654e-05,6.999999999999999387e-05,2.999999999999999737e-05,4.000000000000000000e+00,6.000000000000000000e+00
1.755700000000000000e+04,2.000000000000000164e-05,1.000000000000000082e-05,2.000000000000000164e-05,-4.200000000000000174e-04,1.000000000000000048e-04,8.000000000000000654e-05,6.999999999999999387e-05,2.999999999999999737e-05,4.000000000000000000e+00,6.000000000000000000e+00
1.755800000000000000e+04,2.000000000000000164e-05,1.000000000000000082e-05,2.000000000000000164e-05,-4.200000000000000174e-04,1.000000000000000048e-04,8.000000000000000654e-05,6.999999999999999387e-05,2.999999999999999737e-05,4.000000000000000000e+00,6.000000000000000000e+00
1.755900000000000000e+04,2.000000000000000164e-05,1.000000000000000082e-05,2.000000000000000164e-05,-4.200000000000000174e-04,1.000000000000000048e-04,8.000000000000000654e-05,6.999999999999999387e-05,2.999999999999999737e-05,4.000000000000000000e+00,6.000000000000000000e+00
1.756000000000000000e+04,2.000000000000000164e-05,1.000000000000000082e-05,2.000000000000000164e-05,-4.200000000000000174e-04,1.000000000000000048e-04,8.000000000000000654e-05,6.999999999999999387e-05,2.999999999999999737e-05,4.000000000000000000e+00,6.000000000000000000e+00
1.756100000000000000e+04,2.000000000000000164e-05,1.000000000000000082e-05,2.000000000000000164e-05,-4.200000000000000174e-04,1.000000000000000048e-04,8.000000000000000654e-05,6.999999999999999387e-05,2.999999999999999737e-05,4.000000000000000000e+00,6.000000000000000000e+00
1.756200000000000000e+04,2.000000000000000164e-05,1.000000000000000082e-05,2.000000000000000164e-05,-4.200000000000000174e-04,1.000000000000000048e-04,8.000000000000000654e-05,6.999999999999999387e-05,2.999999999999999737e-05,4.000000000000000000e+00,6.000000000000000000e+00
1.756300000000000000e+04,2.000000000000000164e-05,1.000000000000000082e-05,2.000000000000000164e-05,-4.200000000000000174e-04,1.000000000000000048e-04,8.000000000000000654e-05,6.999999999999999387e-05,2.999999999999999737e-05,4.000000000000000000e+00,6.000000000000000000e+00
1.756400000000000000e+04,2.000000000000000164e-05,1.000000000000000082e-05,2.000000000000000164e-05,-4.200000000000000174e-04,1.000000000000000048e-04,8.000000000000000654e-05,6.999999999999999387e-05,2.999999999999999737e-05,4.000000000000000000e+00,6.000000000000000000e+00
1.756500000000000000e+04,2.000000000000000164e-05,1.000000000000000082e-05,2.000000000000000164e-05,-4.200000000000000174e-04,1.000000000000000048e-04,8.000000000000000654e-05,6.999999999999999387e-05,2.999999999999999737e-05,4.000000000000000000e+00,6.000000000000000000e+00
1.756600000000000000e+04,2.600000000000000314e-04,3.200000000000000262e-04,3.499999999999999964e-04,-1.800000000000000113e-04,8.000000000000000654e-05,4.799999999999999580e-04,5.200000000000000629e-04,3.200000000000000262e-04,4.000000000000000000e+00,6.000000000000000000e+00
1.756700000000000000e+04,2.600000000000000314e-04,3.200000000000000262e-04,3.499999999999999964e-04,-1.800000000000000113e-04,8.000000000000000654e-05,4.799999999999999580e-04,5.200000000000000629e-04,3.200000000000000262e-04,4.000000000000000000e+00,6.000000000000000000e+00
1.756800000000000000e+04,2.600000000000000314e-04,3.200000000000000262e-04,3.499999999999999964e-04,-1.800000000000000113e-04,8.000000000000000654e-05,4.799999999999999580e-04,5.200000000000000629e-04,3.200000000000000262e-04,4.000000000000000000e+00,6.000000000000000000e+00
1.756900000000000000e+04,2.600000000000000314e-04,3.200000000000000262e-04,3.499999999999999964e-04,-1.800000000000000113e-04,8.000000000000000654e-05,4.799999999999999580e-04,5.200000000000000629e-04,3.200000000000000262e-04,4.000000000000000000e+00,6.000000000000000000e+00
1.757000000000000000e+04,2.600000000000000314e-04,3.200000000000000262e-04,3.499999999999999964e-04,-1.800000000000000113e-04,8.000000000000000654e-05,4.799999999999999580e-04,5.200000000000000629e-04,3.200000000000000262e-04,4.000000000000000000e+00,6.000000000000000000e+00
1.757100000000000000e+04,2.600000000000000314e-04,3.200000000000000262e-04,3.499999999999999964e-04,-1.800000000000000113e-04,8.000000000000000654e-05,4.799999999999999580e-04,5.200000000000000629e-04,3.200000000000000262e-04,4.000000000000000000e+00,6.000000000000000000e+00
1.757200000000000000e+04,2.600000000000000314e-04,3.200000000000000262e-04,3.499999999999999964e-04,-1.800000000000000113e-04,8.000000000000000654e-05,4.799999999999999580e-04,5.200000000000000629e-04,3.200000000000000262e-04,4.000000000000000000e+00,6.000000000000000000e+00
1.757300000000000000e+04,6.999999999999999387e-05,5.000000000000000240e-05,8.000000000000000654e-05,2.700000000000000035e-04,5.800000000000000034e-04,6.900000000000000751e-04,1.800000000000000113e-04,8.000000000000000654e-05,4.000000000000000000e+00,6.000000000000000000e+00
1.757400000000000000e+04,6.999999999999999387e-05,5.000000000000000240e-05,8.000000000000000654e-05,2.700000000000000035e-04,5.800000000000000034e-04,6.900000000000000751e-04,1.800000000000000113e-04,8.000000000000000654e-05,4.000000000000000000e+00,6.000000000000000000e+00
1.757500000000000000e+04,6.999999999999999387e-05,5.000000000000000240e-05,8.000000000000000654e-05,2.700000000000000035e-04,5.800000000000000034e-04,6.900000000000000751e-04,1.800000000000000113e-04,8.000000000000000654e-05,4.000000000000000000e+00,6.000000000000000000e+00
1.757600000000000000e+04,6.999999999999999387e-05,5.000000000000000240e-05,8.000000000000000654e-05,2.700000000000000035e-04,5.800000000000000034e-04,6.900000000000000751e-04,1.800000000000000113e-04,8.000000000000000654e-05,4.000000000000000000e+00,6.000000000000000000e+00
1.757700000000000000e+04,6.999999999999999387e-05,5.000000000000000240e-05,8.000000000000000654e-05,2.700000000000000035e-04,5.800000000000000034e-04,6.900000000000000751e-04,1.800000000000000113e-04,8.000000000000000654e-05,4.000000000000000000e+00,6.000000000000000000e+00
1.757800000000000000e+04,6.999999999999999387e-05,5.000000000000000240e-05,8.000000000000000654e-05,2.700000000000000035e-04,5.800000000000000034e-04,6.900000000000000751e-04,1.800000000000000113e-04,8.000000000000000654e-05,4.000000000000000000e+00,6.000000000000000000e+00
1.757900000000000000e+04,6.999999999999999387e-05,5.000000000000000240e-05,8.000000000000000654e-05,2.700000000000000035e-04,5.800000000000000034e-04,6.900000000000000751e-04,1.800000000000000113e-04,8.000000000000000654e-05,4.000000000000000000e+00,6.000000000000000000e+00
1.758000000000000000e+04,6.999999999999999387e-05,5.000000000000000240e-05,8.000000000000000654e-05,2.700000000000000035e-04,5.800000000000000034e-04,6.900000000000000751e-04,1.800000000000000113e-04,8.000000000000000654e-05,4.000000000000000000e+00,6.000000000000000000e+00
1.758100000000000000e+04,6.999999999999999387e-05,5.000000000000000240e-05,8.000000000000000654e-05,2.700000000000000035e-04,5.800000000000000034e-04,6.900000000000000751e-04,1.800000000000000113e-04,8.000000000000000654e-05,4.000000000000000000e+00,6.000000000000000000e+00
1.758200000000000000e+04,6.999999999999999387e-05,5.000000000000000240e-05,8.000000000000000654e-05,2.700000000000000035e-04,5.800000000000000034e-04,6.900000000000000751e-04,1.800000000000000113e-04,8.000000000000000654e-05,4.000000000000000000e+00,6.000000000000000000e+00
1.758300000000000000e+04,6.999999999999999387e-05,5.000000000000000240e-05,8.000000000000000654e-05,2.700000000000000035e-04,5.800000000000000034e-04,6.900000000000000751e-04,1.800000000000000113e-04,8.000000000000000654e-05,4.000000000000000000e+00,6.000000000000000000e+00
1.758400000000000000e+04,6.999999999999999387e-05,5.000000000000000240e-05,8.000000000000000654e-05,2.700000000000000035e-04,5.800000000000000034e-04,6.900000000000000751e-04,1.800000000000000113e-04,8.000000000000000654e-05,4.000000000000000000e+00,6.000000000000000000e+00
1.758500000000000000e+04,6.999999999999999387e-05,5.000000000000000240e-05,8.000000000000000654e-05,2.700000000000000035e-04,5.800000000000000034e-04,6.900000000000000751e-04,1.800000000000000113e-04,8.000000000000000654e-05,4.000000000000000000e+00,6.000000000000000000e+00
1.758600000000000000e+04,6.999999999999999387e-05,5.000000000000000240e-05,8.000000000000000654e-05,2.700000000000000035e-04,5.800000000000000034e-04,6.900000000000000751e-04,1.800000000000000113e-04,8.000000000000000654e-05,4.000000000000000000e+00,6.000000000000000000e+00
1.758900000000000000e+04,-2.799999999999999755e-04,-3.799999999999999667e-04,-5.200000000000000629e-04,-5.900000000000000296e-04,-7.900000000000000121e-04,-7.099999999999999107e-04,-4.799999999999999580e-04,-3.399999999999999702e-04,4.000000000000000000e+00,6.000000000000000000e+00
1.759000000000000000e+04,-2.799999999999999755e-04,-3.799999999999999667e-04,-5.200000000000000629e-04,-5.900000000000000296e-04,-7.900000000000000121e-04,-7.099999999999999107e-04,-4.799999999999999580e-04,-3.399999999999999702e-04,4.000000000000000000e+00,6.000000000000000000e+00
1.759100000000000000e+04,-2.799999999999999755e-04,-3.799999999999999667e-04,-5.200000000000000629e-04,-5.900000000000000296e-04,-7.900000000000000121e-04,-7.099999999999999107e-04,-4.799999999999999580e-04,-3.399999999999999702e-04,4.000000000000000000e+00,6.000000000000000000e+00
1.759200000000000000e+04,-2.799999999999999755e-04,-3.799999999999999667e-04,-5.200000000000000629e-04,-5.900000000000000296e-04,-7.900000000000000121e-04,-7.099999999999999107e-04,-4.799999999999999580e-04,-3.399999999999999702e-04,4.000000000000000000e+00,6.000000000000000000e+00
1.759300000000000000e+04,-2.799999999999999755e-04,-3.799999999999999667e-04,-5.200000000000000629e-04,-5.900000000000000296e-04,-7.900000000000000121e-04,-7.099999999999999107e-04,-4.799999999999999580e-04,-3.399999999999999702e-04,4.000000000000000000e+00,6.000000000000000000e+00
1.759400000000000000e+04,-2.799999999999999755e-04,-3.799999999999999667e-04,-5.200000000000000629e-04,-5.900000000000000296e-04,-7.900000000000000121e-04,-7.099999999999999107e-04,-4.799999999999999580e-04,-3.399999999999999702e-04,4.000000000000000000e+00,6.000000000000000000e+00
1.759500000000000000e+04,-2.799999999999999755e-04,-3.799999999999999667e-04,-5.200000000000000629e-04,-5.900000000000000296e-04,-7.900000000000000121e-04,-7.099999999999999107e-04,-4.799999999999999580e-04,-3.399999999999999702e-04,4.000000000000000000e+00,6.000000000000000000e+00
1.759600000000000000e+04,2.999999999999999737e-05,1.000000000000000082e-05,-1.600000000000000131e-04,-2.000000000000000096e-04,5.699999999999999772e-04,2.700000000000000035e-04,2.700000000000000035e-04,1.199999999999999895e-04,4.000000000000000000e+00,6.000000000000000000e+00
1.759700000000000000e+04,2.999999999999999737e-05,1.000000000000000082e-05,-1.600000000000000131e-04,-2.000000000000000096e-04,5.699999999999999772e-04,2.700000000000000035e-04,2.700000000000000035e-04,1.199999999999999895e-04,4.000000000000000000e+00,6.000000000000000000e+00
1.759800000000000000e+04,2.999999999999999737e-05,1.000000000000000082e-05,-1.600000000000000131e-04,-2.000000000000000096e-04,5.699999999999999772e-04,2.700000000000000035e-04,2.700000000000000035e-04,1.199999999999999895e-04,4.000000000000000000e+00,6.000000000000000000e+00
1.759900000000000000e+04,2.999999999999999737e-05,1.000000000000000082e-05,-1.600000000000000131e-04,-2.000000000000000096e-04,5.699999999999999772e-04,2.700000000000000035e-04,2.700000000000000035e-04,1.199999999999999895e-04,4.000000000000000000e+00,6.000000000000000000e+00
1.760000000000000000e+04,2.999999999999999737e-05,1.000000000000000082e-05,-1.600000000000000131e-04,-2.000000000000000096e-04,5.699999999999999772e-04,2.700000000000000035e-04,2.700000000000000035e-04,1.199999999999999895e-04,4.000000000000000000e+00,6.000000000000000000e+00
1.760100000000000000e+04,2.999999999999999737e-05,1.000000000000000082e-05,-1.600000000000000131e-04,-2.000000000000000096e-04,5.699999999999999772e-04,2.700000000000000035e-04,2.700000000000000035e-04,1.199999999999999895e-04,4.000000000000000000e+00,6.000000000000000000e+00
1.760200000000000000e+04,2.999999999999999737e-05,1.000000000000000082e-05,-1.600000000000000131e-04,-2.000000000000000096e-04,5.699999999999999772e-04,2.700000000000000035e-04,2.700000000000000035e-04,1.199999999999999895e-04,4.000000000000000000e+00,6.000000000000000000e+00
1.760300000000000000e+04,2.999999999999999737e-05,1.000000000000000082e-05,-1.600000000000000131e-04,-2.000000000000000096e-04,5.699999999999999772e-04,2.700000000000000035e-04,2.700000000000000035e-04,1.199999999999999895e-04,4.000000000000000000e+00,6.000000000000000000e+00
1.760400000000000000e+04,-1.100000000000000039e-04,-1.300000000000000157e-04,-1.600000000000000131e-04,-6.900000000000000751e-04,-7.599999999999999334e-04,-2.299999999999999799e-04,-1.699999999999999851e-04,-1.399999999999999877e-04,4.000000000000000000e+00,6.000000000000000000e+00
1.760500000000000000e+04,-1.100000000000000039e-04,-1.300000000000000157e-04,-1.600000000000000131e-04,-6.900000000000000751e-04,-7.599999999999999334e-04,-2.299999999999999799e-04,-1.699999999999999851e-04,-1.399999999999999877e-04,4.000000000000000000e+00,6.000000000000000000e+00
1.760600000000000000e+04,-1.100000000000000039e-04,-1.300000000000000157e-04,-1.600000000000000131e-04,-6.900000000000000751e-04,-7.599999999999999334e-04,-2.299999999999999799e-04,-1.699999999999999851e-04,-1.399999999999999877e-04,4.000000000000000000e+00,6.000000000000000000e+00
1.760700000000000000e+04,-1.100000000000000039e-04,-1.300000000000000157e-04,-1.600000000000000131e-04,-6.900000000000000751e-04,-7.599999999999999334e-04,-2.299999999999999799e-04,-1.699999999999999851e-04,-1.399999999999999877e-04,4.000000000000000000e+00,6.000000000000000000e+00
1.760800000000000000e+04,-1.100000000000000039e-04,-1.300000000000000157e-04,-1.600000000000000131e-04,-6.900000000000000751e-04,-7.599999999999999334e-04,-2.299999999999999799e-04,-1.699999999999999851e-04,-1.399999999999999877e-04,4.000000000000000000e+00,6.000000000000000000e+00
1.760900000000000000e+04,-1.100000000000000039e-04,-1.300000000000000157e-04,-1.600000000000000131e-04,-6.900000000000000751e-04,-7.599999999999999334e-04,-2.299999999999999799e-04,-1.699999999999999851e-04,-1.399999999999999877e-04,4.000000000000000000e+00,6.000000000000000000e+00
1.761000000000000000e+04,-9.000000000000000567e-05,-1.399999999999999877e-04,-3.399999999999999702e-04,-6.700000000000000226e-04,-1.300000000000000157e-04,1.000000000000000082e-05,-1.199999999999999895e-04,-8.000000000000000654e-05,4.000000000000000000e+00,6.000000000000000000e+00
1.761100000000000000e+04,-9.000000000000000567e-05,-1.399999999999999877e-04,-3.399999999999999702e-04,-6.700000000000000226e-04,-1.300000000000000157e-04,1.000000000000000082e-05,-1.199999999999999895e-04,-8.000000000000000654e-05,4.000000000000000000e+00,6.000000000000000000e+00
1.761200000000000000e+04,-9.000000000000000567e-05,-1.399999999999999877e-04,-3.399999999999999702e-04,-6.700000000000000226e-04,-1.300000000000000157e-04,1.000000000000000082e-05,-1.199999999999999895e-04,-8.000000000000000654e-05,4.000000000000000000e+00,6.000000000000000000e+00
1.761300000000000000e+04,-9.000000000000000567e-05,-1.399999999999999877e-04,-3.399999999999999702e-04,-6.700000000000000226e-04,-1.300000000000000157e-04,1.000000000000000082e-05,-1.199999999999999895e-04,-8.000000000000000654e-05,4.000000000000000000e+00,6.000000000000000000e+00
1.761400000000000000e+04,-9.000000000000000567e-05,-1.399999999999999877e-04,-3.399999999999999702e-04,-6.700000000000000226e-04,-1.300000000000000157e-04,1.000000000000000082e-05,-1.199999999999999895e-04,-8.000000000000000654e-05,4.000000000000000000e+00,6.000000000000000000e+00
1.761500000000000000e+04,-9.000000000000000567e-05,-1.399999999999999877e-04,-3.399999999999999702e-04,-6.700000000000000226e-04,-1.300000000000000157e-04,1.000000000000000082e-05,-1.199999999999999895e-04,-8.000000000000000654e-05,4.000000000000000000e+00,6.000000000000000000e+00
1.761600000000000000e+04,-9.000000000000000567e-05,-1.399999999999999877e-04,-3.399999999999999702e-04,-6.700000000000000226e-04,-1.300000000000000157e-04,1.000000000000000082e-05,-1.199999999999999895e-04,-8.000000000000000654e-05,4.000000000000000000e+00,6.000000000000000000e+00
1.761700000000000000e+04,-9.000000000000000567e-05,-1.399999999999999877e-04,-3.399999999999999702e-04,-6.700000000000000226e-04,-1.300000000000000157e-04,1.000000000000000082e-05,-1.199999999999999895e-04,-8.000000000000000654e-05,4.000000000000000000e+00,6.000000000000000000e+00
1.761800000000000000e+04,-9.000000000000000567e-05,-1.399999999999999877e-04,-3.399999999999999702e-04,-6.700000000000000226e-04,-1.300000000000000157e-04,1.000000000000000082e-05,-1.199999999999999895e-04,-8.000000000000000654e-05,4.000000000000000000e+00,6.000000000000000000e+00
1.761900000000000000e+04,-9.000000000000000567e-05,-1.399999999999999877e-04,-3.399999999999999702e-04,-6.700000000000000226e-04,-1.300000000000000157e-04,1.000000000000000082e-05,-1.199999999999999895e-04,-8.000000000000000654e-05,4.000000000000000000e+00,6.000000000000000000e+00
1.762000000000000000e+04,-9.000000000000000567e-05,-1.399999999999999877e-04,-3.399999999999999702e-04,-6.700000000000000226e-04,-1.300000000000000157e-04,1.000000000000000082e-05,-1.199999999999999895e-04,-8.000000000000000654e-05,4.000000000000000000e+00,6.000000000000000000e+00
1.762100000000000000e+04,-9.000000000000000567e-05,-1.399999999999999877e-04,-3.399999999999999702e-04,-6.700000000000000226e-04,-1.300000000000000157e-04,1.000000000000000082e-05,-1.199999999999999895e-04,-8.000000000000000654e-05,4.000000000000000000e+00,6.000000000000000000e+00
1.762200000000000000e+04,-9.000000000000000567e-05,-1.399999999999999877e-04,-3.399999999999999702e-04,-6.700000000000000226e-04,-1.300000000000000157e-04,1.000000000000000082e-05,-1.199999999999999895e-04,-8.000000000000000654e-05,4.000000000000000000e+00,6.000000000000000000e+00
1.762300000000000000e+04,-9.000000000000000567e-05,-1.399999999999999877e-04,-3.399999999999999702e-04,-6.700000000000000226e-04,-1.300000000000000157e-04,1.000000000000000082e-05,-1.199999999999999895e-04,-8.000000000000000654e-05,4.000000000000000000e+00,6.000000000000000000e+00
1.762400000000000000e+04,-9.000000000000000567e-05,-1.399999999999999877e-04,-3.399999999999999702e-04,-6.700000000000000226e-04,-1.300000000000000157e-04,1.000000000000000082e-05,-1.199999999999999895e-04,-8.000000000000000654e-05,4.000000000000000000e+00,6.000000000000000000e+00
1.762500000000000000e+04,-9.000000000000000567e-05,-1.399999999999999877e-04,-3.399999999999999702e-04,-6.700000000000000226e-04,-1.300000000000000157e-04,1.000000000000000082e-05,-1.199999999999999895e-04,-8.000000000000000654e-05,4.000000000000000000e+00,6.000000000000000000e+00
1.762600000000000000e+04,-1.300000000000000157e-04,-8.000000000000000654e-05,-5.999999999999999474e-05,2.999999999999999737e-05,-6.599999999999999964e-04,-1.080000000000000014e-03,-3.399999999999999702e-04,-1.699999999999999851e-04,4.000000000000000000e+00,6.000000000000000000e+00
1.762700000000000000e+04,-1.300000000000000157e-04,-8.000000000000000654e-05,-5.999999999999999474e-05,2.999999999999999737e-05,-6.599999999999999964e-04,-1.080000000000000014e-03,-3.399999999999999702e-04,-1.699999999999999851e-04,4.000000000000000000e+00,6.000000000000000000e+00
1.762800000000000000e+04,-1.300000000000000157e-04,-8.000000000000000654e-05,-5.999999999999999474e-05,2.999999999999999737e-05,-6.599999999999999964e-04,-1.080000000000000014e-03,-3.399999999999999702e-04,-1.699999999999999851e-04,4.000000000000000000e+00,6.000000000000000000e+00
1.762900000000000000e+04,-1.300000000000000157e-04,-8.000000000000000654e-05,-5.999999999999999474e-05,2.999999999999999737e-05,-6.599999999999999964e-04,-1.080000000000000014e-03,-3.399999999999999702e-04,-1.699999999999999851e-04,4.000000000000000000e+00,6.000000000000000000e+00
1.763000000000000000e+04,-1.300000000000000157e-04,-8.000000000000000654e-05,-5.999999999999999474e-05,2.999999999999999737e-05,-6.599999999999999964e-04,-1.080000000000000014e-03,-3.399999999999999702e-04,-1.699999999999999851e-04,4.000000000000000000e+00,6.000000000000000000e+00
1.763100000000000000e+04,-1.300000000000000157e-04,-8.000000000000000654e-05,-5.999999999999999474e-05,2.999999999999999737e-05,-6.599999999999999964e-04,-1.080000000000000014e-03,-3.399999999999999702e-04,-1.699999999999999851e-04,4.000000000000000000e+00,6.000000000000000000e+00
1.763200000000000000e+04,-1.300000000000000157e-04,-8.000000000000000654e-05,-5.999999999999999474e-05,2.999999999999999737e-05,-6.599999999999999964e-04,-1.080000000000000014e-03,-3.399999999999999702e-04,-1.699999999999999851e-04,4.000000000000000000e+00,6.000000000000000000e+00
1.763300000000000000e+04,-2.000000000000000096e-04,-1.699999999999999851e-04,-9.000000000000000567e-05,-9.000000000000000567e-05,-4.499999999999999877e-04,-4.200000000000000174e-04,-2.900000000000000017e-04,-2.200000000000000078e-04,4.000000000000000000e+00,6.000000000000000000e+00
1.763400000000000000e+04,5.999999999999999474e-05,8.000000000000000654e-05,3.099999999999999999e-04,5.000000000000000240e-05,-2.000000000000000096e-04,-4.200000000000000174e-04,0.000000000000000000e+00,5.999999999999999474e-05,4.000000000000000000e+00,6.000000000000000000e+00
1.763500000000000000e+04,5.999999999999999474e-05,8.000000000000000654e-05,3.099999999999999999e-04,5.000000000000000240e-05,-2.000000000000000096e-04,-4.200000000000000174e-04,0.000000000000000000e+00,5.999999999999999474e-05,4.000000000000000000e+00,6.000000000000000000e+00
1.763700000000000000e+04,5.999999999999999474e-05,8.000000000000000654e-05,3.099999999999999999e-04,5.000000000000000240e-05,-2.000000000000000096e-04,-4.200000000000000174e-04,0.000000000000000000e+00,5.999999999999999474e-05,4.000000000000000000e+00,6.000000000000000000e+00
1.763900000000000000e+04,5.999999999999999474e-05,8.000000000000000654e-05,3.099999999999999999e-04,5.000000000000000240e-05,-2.000000000000000096e-04,-4.200000000000000174e-04,0.000000000000000000e+00,5.999999999999999474e-05,4.000000000000000000e+00,6.000000000000000000e+00
1.764000000000000000e+04,5.999999999999999474e-05,8.000000000000000654e-05,3.099999999999999999e-04,5.000000000000000240e-05,-2.000000000000000096e-04,-4.200000000000000174e-04,0.000000000000000000e+00,5.999999999999999474e-05,4.000000000000000000e+00,6.000000000000000000e+00
1.764100000000000000e+04,5.999999999999999474e-05,8.000000000000000654e-05,3.099999999999999999e-04,5.000000000000000240e-05,-2.000000000000000096e-04,-4.200000000000000174e-04,0.000000000000000000e+00,5.999999999999999474e-05,4.000000000000000000e+00,6.000000000000000000e+00
1.764200000000000000e+04,5.999999999999999474e-05,8.000000000000000654e-05,3.099999999999999999e-04,5.000000000000000240e-05,-2.000000000000000096e-04,-4.200000000000000174e-04,0.000000000000000000e+00,5.999999999999999474e-05,4.000000000000000000e+00,6.000000000000000000e+00
1.764300000000000000e+04,5.999999999999999474e-05,8.000000000000000654e-05,3.099999999999999999e-04,5.000000000000000240e-05,-2.000000000000000096e-04,-4.200000000000000174e-04,0.000000000000000000e+00,5.999999999999999474e-05,4.000000000000000000e+00,6.000000000000000000e+00
1.764400000000000000e+04,5.999999999999999474e-05,8.000000000000000654e-05,3.099999999999999999e-04,5.000000000000000240e-05,-2.000000000000000096e-04,-4.200000000000000174e-04,0.000000000000000000e+00,5.999999999999999474e-05,4.000000000000000000e+00,6.000000000000000000e+00
1.764500000000000000e+04,5.999999999999999474e-05,8.000000000000000654e-05,3.099999999999999999e-04,5.000000000000000240e-05,-2.000000000000000096e-04,-4.200000000000000174e-04,0.000000000000000000e+00,5.999999999999999474e-05,4.000000000000000000e+00,6.000000000000000000e+00
1.764600000000000000e+04,5.999999999999999474e-05,8.000000000000000654e-05,3.099999999999999999e-04,5.000000000000000240e-05,-2.000000000000000096e-04,-4.200000000000000174e-04,0.000000000000000000e+00,5.999999999999999474e-05,4.000000000000000000e+00,6.000000000000000000e+00
1.764700000000000000e+04,5.999999999999999474e-05,8.000000000000000654e-05,3.099999999999999999e-04,5.000000000000000240e-05,-2.000000000000000096e-04,-4.200000000000000174e-04,0.000000000000000000e+00,5.999999999999999474e-05,4.000000000000000000e+00,6.000000000000000000e+00
1.764800000000000000e+04,5.999999999999999474e-05,8.000000000000000654e-05,3.099999999999999999e-04,5.000000000000000240e-05,-2.000000000000000096e-04,-4.200000000000000174e-04,0.000000000000000000e+00,5.999999999999999474e-05,4.000000000000000000e+00,6.000000000000000000e+00
1.764900000000000000e+04,-4.000000000000000327e-05,-1.300000000000000157e-04,-2.500000000000000052e-04,0.000000000000000000e+00,3.299999999999999982e-04,-1.000000000000000048e-04,-1.399999999999999877e-04,-8.000000000000000654e-05,4.000000000000000000e+00,6.000000000000000000e+00
1.765000000000000000e+04,-4.000000000000000327e-05,-1.300000000000000157e-04,-2.500000000000000052e-04,0.000000000000000000e+00,3.299999999999999982e-04,-1.000000000000000048e-04,-1.399999999999999877e-04,-8.000000000000000654e-05,4.000000000000000000e+00,6.000000000000000000e+00
1.765100000000000000e+04,-4.000000000000000327e-05,-1.300000000000000157e-04,-2.500000000000000052e-04,0.000000000000000000e+00,3.299999999999999982e-04,-1.000000000000000048e-04,-1.399999999999999877e-04,-8.000000000000000654e-05,4.000000000000000000e+00,6.000000000000000000e+00
1.765200000000000000e+04,-4.000000000000000327e-05,-1.300000000000000157e-04,-2.500000000000000052e-04,0.000000000000000000e+00,3.299999999999999982e-04,-1.000000000000000048e-04,-1.399999999999999877e-04,-8.000000000000000654e-05,4.000000000000000000e+00,6.000000000000000000e+00
1.765300000000000000e+04,-4.000000000000000327e-05,-1.300000000000000157e-04,-2.500000000000000052e-04,0.000000000000000000e+00,3.299999999999999982e-04,-1.000000000000000048e-04,-1.399999999999999877e-04,-8.000000000000000654e-05,4.000000000000000000e+00,6.000000000000000000e+00
1.765400000000000000e+04,-4.000000000000000327e-05,-1.300000000000000157e-04,-2.500000000000000052e-04,0.000000000000000000e+00,3.299999999999999982e-04,-1.000000000000000048e-04,-1.399999999999999877e-04,-8.000000000000000654e-05,4.000000000000000000e+00,6.000000000000000000e+00
1.765500000000000000e+04,-4.000000000000000327e-05,-1.300000000000000157e-04,-2.500000000000000052e-04,0.000000000000000000e+00,3.299999999999999982e-04,-1.000000000000000048e-04,-1.399999999999999877e-04,-8.000000000000000654e-05,4.000000000000000000e+00,6.000000000000000000e+00
1.765600000000000000e+04,2.000000000000000164e-05,1.000000000000000082e-05,8.000000000000000654e-05,-2.900000000000000017e-04,-4.700000000000000401e-04,2.000000000000000096e-04,0.000000000000000000e+00,-2.000000000000000164e-05,4.000000000000000000e+00,6.000000000000000000e+00
1.765700000000000000e+04,2.000000000000000164e-05,1.000000000000000082e-05,8.000000000000000654e-05,-2.900000000000000017e-04,-4.700000000000000401e-04,2.000000000000000096e-04,0.000000000000000000e+00,-2.000000000000000164e-05,4.000000000000000000e+00,6.000000000000000000e+00
1.765800000000000000e+04,2.000000000000000164e-05,1.000000000000000082e-05,8.000000000000000654e-05,-2.900000000000000017e-04,-4.700000000000000401e-04,2.000000000000000096e-04,0.000000000000000000e+00,-2.000000000000000164e-05,4.000000000000000000e+00,6.000000000000000000e+00
1.765900000000000000e+04,2.000000000000000164e-05,1.000000000000000082e-05,8.000000000000000654e-05,-2.900000000000000017e-04,-4.700000000000000401e-04,2.000000000000000096e-04,0.000000000000000000e+00,-2.000000000000000164e-05,4.000000000000000000e+00,6.000000000000000000e+00
1.766000000000000000e+04,2.000000000000000164e-05,1.000000000000000082e-05,8.000000000000000654e-05,-2.900000000000000017e-04,-4.700000000000000401e-04,2.000000000000000096e-04,0.000000000000000000e+00,-2.000000000000000164e-05,4.000000000000000000e+00,6.000000000000000000e+00
1.766100000000000000e+04,2.000000000000000164e-05,1.000000000000000082e-05,8.000000000000000654e-05,-2.900000000000000017e-04,-4.700000000000000401e-04,2.000000000000000096e-04,0.000000000000000000e+00,-2.000000000000000164e-05,4.000000000000000000e+00,6.000000000000000000e+00
1.766200000000000000e+04,2.000000000000000164e-05,1.000000000000000082e-05,8.000000000000000654e-05,-2.900000000000000017e-04,-4.700000000000000401e-04,2.000000000000000096e-04,0.000000000000000000e+00,-2.000000000000000164e-05,4.000000000000000000e+00,6.000000000000000000e+00
1.766300000000000000e+04,2.000000000000000164e-05,1.000000000000000082e-05,8.000000000000000654e-05,-2.900000000000000017e-04,-4.700000000000000401e-04,2.000000000000000096e-04,0.000000000000000000e+00,-2.000000000000000164e-05,4.000000000000000000e+00,6.000000000000000000e+00
1.766500000000000000e+04,2.000000000000000164e-05,1.000000000000000082e-05,8.000000000000000654e-05,-2.900000000000000017e-04,-4.700000000000000401e-04,2.000000000000000096e-04,0.000000000000000000e+00,-2.000000000000000164e-05,4.000000000000000000e+00,6.000000000000000000e+00
1.766600000000000000e+04,2.000000000000000164e-05,1.000000000000000082e-05,8.000000000000000654e-05,-2.900000000000000017e-04,-4.700000000000000401e-04,2.000000000000000096e-04,0.000000000000000000e+00,-2.000000000000000164e-05,4.000000000000000000e+00,6.000000000000000000e+00
1.766700000000000000e+04,2.000000000000000164e-05,1.000000000000000082e-05,8.000000000000000654e-05,-2.900000000000000017e-04,-4.700000000000000401e-04,2.000000000000000096e-04,0.000000000000000000e+00,-2.000000000000000164e-05,4.000000000000000000e+00,6.000000000000000000e+00
1.766800000000000000e+04,2.000000000000000164e-05,1.000000000000000082e-05,8.000000000000000654e-05,-2.900000000000000017e-04,-4.700000000000000401e-04,2.000000000000000096e-04,0.000000000000000000e+00,-2.000000000000000164e-05,4.000000000000000000e+00,6.000000000000000000e+00
1.766900000000000000e+04,2.000000000000000164e-05,1.000000000000000082e-05,8.000000000000000654e-05,-2.900000000000000017e-04,-4.700000000000000401e-04,2.000000000000000096e-04,0.000000000000000000e+00,-2.000000000000000164e-05,4.000000000000000000e+00,6.000000000000000000e+00
1.767000000000000000e+04,9.000000000000000567e-05,1.499999999999999869e-04,3.899999999999999929e-04,2.500000000000000052e-04,-1.199999999999999895e-04,-1.499999999999999869e-04,-1.000000000000000082e-05,9.000000000000000567e-05,4.000000000000000000e+00,6.000000000000000000e+00
1.767100000000000000e+04,-1.000000000000000048e-04,-1.600000000000000131e-04,-3.299999999999999982e-04,-8.300000000000001170e-04,-1.280000000000000105e-03,-2.100000000000000087e-04,-1.000000000000000048e-04,-9.000000000000000567e-05,4.000000000000000000e+00,6.000000000000000000e+00
1.767200000000000000e+04,-1.000000000000000048e-04,-1.600000000000000131e-04,-3.299999999999999982e-04,-8.300000000000001170e-04,-1.280000000000000105e-03,-2.100000000000000087e-04,-1.000000000000000048e-04,-9.000000000000000567e-05,4.000000000000000000e+00,6.000000000000000000e+00
1.767300000000000000e+04,-1.000000000000000048e-04,-1.600000000000000131e-04,-3.299999999999999982e-04,-8.300000000000001170e-04,-1.280000000000000105e-03,-2.100000000000000087e-04,-1.000000000000000048e-04,-9.000000000000000567e-05,4.000000000000000000e+00,6.000000000000000000e+00
1.767400000000000000e+04,-1.000000000000000048e-04,-1.600000000000000131e-04,-3.299999999999999982e-04,-8.300000000000001170e-04,-1.280000000000000105e-03,-2.100000000000000087e-04,-1.000000000000000048e-04,-9.000000000000000567e-05,4.000000000000000000e+00,6.000000000000000000e+00
1.767500000000000000e+04,-1.000000000000000048e-04,-1.600000000000000131e-04,-3.299999999999999982e-04,-8.300000000000001170e-04,-1.280000000000000105e-03,-2.100000000000000087e-04,-1.000000000000000048e-04,-9.000000000000000567e-05,4.000000000000000000e+00,6.000000000000000000e+00
1.767600000000000000e+04,-1.000000000000000048e-04,-1.600000000000000131e-04,-3.299999999999999982e-04,-8.300000000000001170e-04,-1.280000000000000105e-03,-2.100000000000000087e-04,-1.000000000000000048e-04,-9.000000000000000567e-05,4.000000000000000000e+00,6.000000000000000000e+00
1.767700000000000000e+04,-1.000000000000000048e-04,-1.600000000000000131e-04,-3.299999999999999982e-04,-8.300000000000001170e-04,-1.280000000000000105e-03,-2.100000000000000087e-04,-1.000000000000000048e-04,-9.000000000000000567e-05,4.000000000000000000e+00,6.000000000000000000e+00
1.767800000000000000e+04,-1.000000000000000048e-04,-1.600000000000000131e-04,-3.299999999999999982e-04,-8.300000000000001170e-04,-1.280000000000000105e-03,-2.100000000000000087e-04,-1.000000000000000048e-04,-9.000000000000000567e-05,4.000000000000000000e+00,6.000000000000000000e+00
1.767900000000000000e+04,-1.000000000000000048e-04,-1.600000000000000131e-04,-3.299999999999999982e-04,-8.300000000000001170e-04,-1.280000000000000105e-03,-2.100000000000000087e-04,-1.000000000000000048e-04,-9.000000000000000567e-05,4.000000000000000000e+00,6.000000000000000000e+00
1.768000000000000000e+04,-1.000000000000000048e-04,-1.600000000000000131e-04,-3.299999999999999982e-04,-8.300000000000001170e-04,-1.280000000000000105e-03,-2.100000000000000087e-04,-1.000000000000000048e-04,-9.000000000000000567e-05,4.000000000000000000e+00,6.000000000000000000e+00
1.768100000000000000e+04,-1.000000000000000048e-04,-1.600000000000000131e-04,-3.299999999999999982e-04,-8.300000000000001170e-04,-1.280000000000000105e-03,-2.100000000000000087e-04,-1.000000000000000048e-04,-9.000000000000000567e-05,4.000000000000000000e+00,6.000000000000000000e+00
1.768200000000000000e+04,-1.000000000000000048e-04,-1.600000000000000131e-04,-3.299999999999999982e-04,-8.300000000000001170e-04,-1.280000000000000105e-03,-2.100000000000000087e-04,-1.000000000000000048e-04,-9.000000000000000567e-05,4.000000000000000000e+00,6.000000000000000000e+00
1.768300000000000000e+04,-1.000000000000000048e-04,-1.600000000000000131e-04,-3.299999999999999982e-04,-8.300000000000001170e-04,-1.280000000000000105e-03,-2.100000000000000087e-04,-1.000000000000000048e-04,-9.000000000000000567e-05,4.000000000000000000e+00,6.000000000000000000e+00
1.768400000000000000e+04,-1.000000000000000048e-04,-1.600000000000000131e-04,-3.299999999999999982e-04,-8.300000000000001170e-04,-1.280000000000000105e-03,-2.100000000000000087e-04,-1.000000000000000048e-04,-9.000000000000000567e-05,4.000000000000000000e+00,6.000000000000000000e+00
1.768500000000000000e+04,-4.000000000000000327e-05,-5.999999999999999474e-05,-9.000000000000000567e-05,-4.000000000000000327e-05,-5.699999999999999772e-04,-3.499999999999999964e-04,-9.000000000000000567e-05,-6.999999999999999387e-05,4.000000000000000000e+00,6.000000000000000000e+00
1.768700000000000000e+04,-4.000000000000000327e-05,-5.999999999999999474e-05,-9.000000000000000567e-05,-4.000000000000000327e-05,-5.699999999999999772e-04,-3.499999999999999964e-04,-9.000000000000000567e-05,-6.999999999999999387e-05,4.000000000000000000e+00,6.000000000000000000e+00
1.769000000000000000e+04,-4.000000000000000327e-05,-5.999999999999999474e-05,-9.000000000000000567e-05,-4.000000000000000327e-05,-5.699999999999999772e-04,-3.499999999999999964e-04,-9.000000000000000567e-05,-6.999999999999999387e-05,4.000000000000000000e+00,6.000000000000000000e+00
1.769100000000000000e+04,-4.000000000000000327e-05,-5.999999999999999474e-05,-9.000000000000000567e-05,-4.000000000000000327e-05,-5.699999999999999772e-04,-3.499999999999999964e-04,-9.000000000000000567e-05,-6.999999999999999387e-05,4.000000000000000000e+00,6.000000000000000000e+00
1.769200000000000000e+04,-4.000000000000000327e-05,-5.999999999999999474e-05,-9.000000000000000567e-05,-4.000000000000000327e-05,-5.699999999999999772e-04,-3.499999999999999964e-04,-9.000000000000000567e-05,-6.999999999999999387e-05,4.000000000000000000e+00,6.000000000000000000e+00
1.769300000000000000e+04,-4.000000000000000327e-05,-1.000000000000000082e-05,1.499999999999999869e-04,-2.700000000000000035e-04,1.000000000000000082e-05,-1.000000000000000048e-04,-1.000000000000000048e-04,-5.999999999999999474e-05,4.000000000000000000e+00,6.000000000000000000e+00
1.769400000000000000e+04,-4.000000000000000327e-05,-1.000000000000000082e-05,1.499999999999999869e-04,-2.700000000000000035e-04,1.000000000000000082e-05,-1.000000000000000048e-04,-1.000000000000000048e-04,-5.999999999999999474e-05,4.000000000000000000e+00,6.000000000000000000e+00
1.769500000000000000e+04,-4.000000000000000327e-05,-1.000000000000000082e-05,1.499999999999999869e-04,-2.700000000000000035e-04,1.000000000000000082e-05,-1.000000000000000048e-04,-1.000000000000000048e-04,-5.999999999999999474e-05,4.000000000000000000e+00,6.000000000000000000e+00
1.769600000000000000e+04,-4.000000000000000327e-05,-1.000000000000000082e-05,1.499999999999999869e-04,-2.700000000000000035e-04,1.000000000000000082e-05,-1.000000000000000048e-04,-1.000000000000000048e-04,-5.999999999999999474e-05,4.000000000000000000e+00,6.000000000000000000e+00
1.769700000000000000e+04,-4.000000000000000327e-05,-1.000000000000000082e-05,1.499999999999999869e-04,-2.700000000000000035e-04,1.000000000000000082e-05,-1.000000000000000048e-04,-1.000000000000000048e-04,-5.999999999999999474e-05,4.000000000000000000e+00,6.000000000000000000e+00
1.769800000000000000e+04,-4.000000000000000327e-05,-1.000000000000000082e-05,1.499999999999999869e-04,-2.700000000000000035e-04,1.000000000000000082e-05,-1.000000000000000048e-04,-1.000000000000000048e-04,-5.999999999999999474e-05,4.000000000000000000e+00,6.000000000000000000e+00
1.769900000000000000e+04,-4.000000000000000327e-05,-1.000000000000000082e-05,1.499999999999999869e-04,-2.700000000000000035e-04,1.000000000000000082e-05,-1.000000000000000048e-04,-1.000000000000000048e-04,-5.999999999999999474e-05,4.000000000000000000e+00,6.000000000000000000e+00
1.770000000000000000e+04,-4.000000000000000327e-05,-1.000000000000000082e-05,1.499999999999999869e-04,-2.700000000000000035e-04,1.000000000000000082e-05,-1.000000000000000048e-04,-1.000000000000000048e-04,-5.999999999999999474e-05,4.000000000000000000e+00,6.000000000000000000e+00
1.770100000000000000e+04,-4.000000000000000327e-05,-1.000000000000000082e-05,1.499999999999999869e-04,-2.700000000000000035e-04,1.000000000000000082e-05,-1.000000000000000048e-04,-1.000000000000000048e-04,-5.999999999999999474e-05,4.000000000000000000e+00,6.000000000000000000e+00
1.770200000000000000e+04,-4.000000000000000327e-05,-1.000000000000000082e-05,1.499999999999999869e-04,-2.700000000000000035e-04,1.000000000000000082e-05,-1.000000000000000048e-04,-1.000000000000000048e-04,-5.999999999999999474e-05,4.000000000000000000e+00,6.000000000000000000e+00
1.770300000000000000e+04,-4.000000000000000327e-05,-1.000000000000000082e-05,1.499999999999999869e-04,-2.700000000000000035e-04,1.000000000000000082e-05,-1.000000000000000048e-04,-1.000000000000000048e-04,-5.999999999999999474e-05,4.000000000000000000e+00,6.000000000000000000e+00
1.770400000000000000e+04,-4.000000000000000327e-05,-1.000000000000000082e-05,1.499999999999999869e-04,-2.700000000000000035e-04,1.000000000000000082e-05,-1.000000000000000048e-04,-1.000000000000000048e-04,-5.999999999999999474e-05,4.000000000000000000e+00,6.000000000000000000e+00
1.770500000000000000e+04,-4.000000000000000327e-05,-1.000000000000000082e-05,1.499999999999999869e-04,-2.700000000000000035e-04,1.000000000000000082e-05,-1.000000000000000048e-04,-1.000000000000000048e-04,-5.999999999999999474e-05,4.000000000000000000e+00,6.000000000000000000e+00
1.770600000000000000e+04,-4.000000000000000327e-05,-1.000000000000000082e-05,1.499999999999999869e-04,-2.700000000000000035e-04,1.000000000000000082e-05,-1.000000000000000048e-04,-1.000000000000000048e-04,-5.999999999999999474e-05,4.000000000000000000e+00,6.000000000000000000e+00
1.770700000000000000e+04,-4.000000000000000327e-05,-1.000000000000000082e-05,1.499999999999999869e-04,-2.700000000000000035e-04,1.000000000000000082e-05,-1.000000000000000048e-04,-1.000000000000000048e-04,-5.999999999999999474e-05,4.000000000000000000e+00,6.000000000000000000e+00
1.770800000000000000e+04,-4.000000000000000327e-05,-1.000000000000000082e-05,1.499999999999999869e-04,-2.700000000000000035e-04,1.000000000000000082e-05,-1.000000000000000048e-04,-1.000000000000000048e-04,-5.999999999999999474e-05,4.000000000000000000e+00,6.000000000000000000e+00
1.770900000000000000e+04,-4.000000000000000327e-05,-1.000000000000000082e-05,1.499999999999999869e-04,-2.700000000000000035e-04,1.000000000000000082e-05,-1.000000000000000048e-04,-1.000000000000000048e-04,-5.999999999999999474e-05,4.000000000000000000e+00,6.000000000000000000e+00
1.771000000000000000e+04,-4.000000000000000327e-05,-1.000000000000000082e-05,1.499999999999999869e-04,-2.700000000000000035e-04,1.000000000000000082e-05,-1.000000000000000048e-04,-1.000000000000000048e-04,-5.999999999999999474e-05,4.000000000000000000e+00,6.000000000000000000e+00
1.771100000000000000e+04,-4.000000000000000327e-05,-1.000000000000000082e-05,1.499999999999999869e-04,-2.700000000000000035e-04,1.000000000000000082e-05,-1.000000000000000048e-04,-1.000000000000000048e-04,-5.999999999999999474e-05,4.000000000000000000e+00,6.000000000000000000e+00
1.771200000000000000e+04,-4.000000000000000327e-05,-1.000000000000000082e-05,1.499999999999999869e-04,-2.700000000000000035e-04,1.000000000000000082e-05,-1.000000000000000048e-04,-1.000000000000000048e-04,-5.999999999999999474e-05,4.000000000000000000e+00,6.000000000000000000e+00
1.771300000000000000e+04,-4.000000000000000327e-05,-1.000000000000000082e-05,1.499999999999999869e-04,-2.700000000000000035e-04,1.000000000000000082e-05,-1.000000000000000048e-04,-1.000000000000000048e-04,-5.999999999999999474e-05,4.000000000000000000e+00,6.000000000000000000e+00
1.771400000000000000e+04,-4.000000000000000327e-05,-1.000000000000000082e-05,1.499999999999999869e-04,-2.700000000000000035e-04,1.000000000000000082e-05,-1.000000000000000048e-04,-1.000000000000000048e-04,-5.999999999999999474e-05,4.000000000000000000e+00,6.000000000000000000e+00
1.771500000000000000e+04,-4.000000000000000327e-05,-1.000000000000000082e-05,1.499999999999999869e-04,-2.700000000000000035e-04,1.000000000000000082e-05,-1.000000000000000048e-04,-1.000000000000000048e-04,-5.999999999999999474e-05,4.000000000000000000e+00,6.000000000000000000e+00
1.771600000000000000e+04,1.100000000000000039e-04,6.999999999999999387e-05,-8.000000000000000654e-05,4.000000000000000192e-04,8.300000000000001170e-04,6.700000000000000226e-04,3.499999999999999964e-04,1.499999999999999869e-04,4.000000000000000000e+00,6.000000000000000000e+00
1.771700000000000000e+04,-2.999999999999999737e-05,2.999999999999999737e-05,-5.000000000000000240e-05,-4.799999999999999580e-04,-8.999999999999999754e-04,-9.100000000000000016e-04,-1.199999999999999895e-04,-8.000000000000000654e-05,4.000000000000000000e+00,6.000000000000000000e+00
1.771800000000000000e+04,-2.999999999999999737e-05,2.999999999999999737e-05,-5.000000000000000240e-05,-4.799999999999999580e-04,-8.999999999999999754e-04,-9.100000000000000016e-04,-1.199999999999999895e-04,-8.000000000000000654e-05,4.000000000000000000e+00,6.000000000000000000e+00
1.771900000000000000e+04,-2.999999999999999737e-05,2.999999999999999737e-05,-5.000000000000000240e-05,-4.799999999999999580e-04,-8.999999999999999754e-04,-9.100000000000000016e-04,-1.199999999999999895e-04,-8.000000000000000654e-05,4.000000000000000000e+00,6.000000000000000000e+00
1.772000000000000000e+04,-2.999999999999999737e-05,2.999999999999999737e-05,-5.000000000000000240e-05,-4.799999999999999580e-04,-8.999999999999999754e-04,-9.100000000000000016e-04,-1.199999999999999895e-04,-8.000000000000000654e-05,4.000000000000000000e+00,6.000000000000000000e+00
1.772100000000000000e+04,-2.999999999999999737e-05,2.999999999999999737e-05,-5.000000000000000240e-05,-4.799999999999999580e-04,-8.999999999999999754e-04,-9.100000000000000016e-04,-1.199999999999999895e-04,-8.000000000000000654e-05,4.000000000000000000e+00,6.000000000000000000e+00
1.772200000000000000e+04,-2.999999999999999737e-05,2.999999999999999737e-05,-5.000000000000000240e-05,-4.799999999999999580e-04,-8.999999999999999754e-04,-9.100000000000000016e-04,-1.199999999999999895e-04,-8.000000000000000654e-05,4.000000000000000000e+00,6.000000000000000000e+00
1.772300000000000000e+04,-2.999999999999999737e-05,2.999999999999999737e-05,-5.000000000000000240e-05,-4.799999999999999580e-04,-8.999999999999999754e-04,-9.100000000000000016e-04,-1.199999999999999895e-04,-8.000000000000000654e-05,4.000000000000000000e+00,6.000000000000000000e+00
1.772400000000000000e+04,-2.999999999999999737e-05,2.999999999999999737e-05,-5.000000000000000240e-05,-4.799999999999999580e-04,-8.999999999999999754e-04,-9.100000000000000016e-04,-1.199999999999999895e-04,-8.000000000000000654e-05,4.000000000000000000e+00,6.000000000000000000e+00
1.772500000000000000e+04,-2.999999999999999737e-05,2.999999999999999737e-05,-5.000000000000000240e-05,-4.799999999999999580e-04,-8.999999999999999754e-04,-9.100000000000000016e-04,-1.199999999999999895e-04,-8.000000000000000654e-05,4.000000000000000000e+00,6.000000000000000000e+00
1.772600000000000000e+04,-2.999999999999999737e-05,2.999999999999999737e-05,-5.000000000000000240e-05,-4.799999999999999580e-04,-8.999999999999999754e-04,-9.100000000000000016e-04,-1.199999999999999895e-04,-8.000000000000000654e-05,4.000000000000000000e+00,6.000000000000000000e+00
1.772700000000000000e+04,-2.999999999999999737e-05,2.999999999999999737e-05,-5.000000000000000240e-05,-4.799999999999999580e-04,-8.999999999999999754e-04,-9.100000000000000016e-04,-1.199999999999999895e-04,-8.000000000000000654e-05,4.000000000000000000e+00,6.000000000000000000e+00
1.772800000000000000e+04,-2.999999999999999737e-05,2.999999999999999737e-05,-5.000000000000000240e-05,-4.799999999999999580e-04,-8.999999999999999754e-04,-9.100000000000000016e-04,-1.199999999999999895e-04,-8.000000000000000654e-05,4.000000000000000000e+00,6.000000000000000000e+00
1.772900000000000000e+04,-2.999999999999999737e-05,2.999999999999999737e-05,-5.000000000000000240e-05,-4.799999999999999580e-04,-8.999999999999999754e-04,-9.100000000000000016e-04,-1.199999999999999895e-04,-8.000000000000000654e-05,4.000000000000000000e+00,6.000000000000000000e+00
1.773000000000000000e+04,-1.000000000000000082e-05,1.499999999999999869e-04,1.800000000000000113e-04,-2.999999999999999737e-05,-5.000000000000000240e-05,2.999999999999999737e-05,-2.000000000000000164e-05,-2.999999999999999737e-05,4.000000000000000000e+00,6.000000000000000000e+00
1.773100000000000000e+04,-2.000000000000000164e-05,2.000000000000000164e-05,5.000000000000000240e-05,6.099999999999999737e-04,2.000000000000000096e-04,1.499999999999999869e-04,1.899999999999999834e-04,4.000000000000000327e-05,4.000000000000000000e+00,6.000000000000000000e+00
1.773200000000000000e+04,-2.000000000000000164e-05,2.000000000000000164e-05,5.000000000000000240e-05,6.099999999999999737e-04,2.000000000000000096e-04,1.499999999999999869e-04,1.899999999999999834e-04,4.000000000000000327e-05,4.000000000000000000e+00,6.000000000000000000e+00
1.773300000000000000e+04,-2.000000000000000164e-05,2.000000000000000164e-05,5.000000000000000240e-05,6.099999999999999737e-04,2.000000000000000096e-04,1.499999999999999869e-04,1.899999999999999834e-04,4.000000000000000327e-05,4.000000000000000000e+00,6.000000000000000000e+00
1.773400000000000000e+04,-2.000000000000000164e-05,2.000000000000000164e-05,5.000000000000000240e-05,6.099999999999999737e-04,2.000000000000000096e-04,1.499999999999999869e-04,1.899999999999999834e-04,4.000000000000000327e-05,4.000000000000000000e+00,6.000000000000000000e+00
1.773500000000000000e+04,-2.000000000000000164e-05,2.000000000000000164e-05,5.000000000000000240e-05,6.099999999999999737e-04,2.000000000000000096e-04,1.499999999999999869e-04,1.899999999999999834e-04,4.000000000000000327e-05,4.000000000000000000e+00,6.000000000000000000e+00
1.773700000000000000e+04,-2.000000000000000164e-05,2.000000000000000164e-05,5.000000000000000240e-05,6.099999999999999737e-04,2.000000000000000096e-04,1.499999999999999869e-04,1.899999999999999834e-04,4.000000000000000327e-05,4.000000000000000000e+00,6.000000000000000000e+00
1.773900000000000000e+04,-2.000000000000000164e-05,2.000000000000000164e-05,5.000000000000000240e-05,6.099999999999999737e-04,2.000000000000000096e-04,1.499999999999999869e-04,1.899999999999999834e-04,4.000000000000000327e-05,4.000000000000000000e+00,6.000000000000000000e+00
1.774000000000000000e+04,-2.000000000000000164e-05,2.000000000000000164e-05,5.000000000000000240e-05,6.099999999999999737e-04,2.000000000000000096e-04,1.499999999999999869e-04,1.899999999999999834e-04,4.000000000000000327e-05,4.000000000000000000e+00,6.000000000000000000e+00
1.774100000000000000e+04,-2.000000000000000164e-05,2.000000000000000164e-05,5.000000000000000240e-05,6.099999999999999737e-04,2.000000000000000096e-04,1.499999999999999869e-04,1.899999999999999834e-04,4.000000000000000327e-05,4.000000000000000000e+00,6.000000000000000000e+00
1.774200000000000000e+04,-2.000000000000000164e-05,2.000000000000000164e-05,5.000000000000000240e-05,6.099999999999999737e-04,2.000000000000000096e-04,1.499999999999999869e-04,1.899999999999999834e-04,4.000000000000000327e-05,4.000000000000000000e+00,6.000000000000000000e+00
1.774300000000000000e+04,-2.000000000000000164e-05,2.000000000000000164e-05,5.000000000000000240e-05,6.099999999999999737e-04,2.000000000000000096e-04,1.499999999999999869e-04,1.899999999999999834e-04,4.000000000000000327e-05,4.000000000000000000e+00,6.000000000000000000e+00
1.774400000000000000e+04,-2.000000000000000164e-05,2.000000000000000164e-05,5.000000000000000240e-05,6.099999999999999737e-04,2.000000000000000096e-04,1.499999999999999869e-04,1.899999999999999834e-04,4.000000000000000327e-05,4.000000000000000000e+00,6.000000000000000000e+00
1.774500000000000000e+04,-4.000000000000000327e-05,4.000000000000000327e-05,8.000000000000000654e-05,-4.899999999999999842e-04,-9.300000000000000541e-04,-5.400000000000000069e-04,-2.700000000000000035e-04,-1.000000000000000048e-04,4.000000000000000000e+00,6.000000000000000000e+00
1.774600000000000000e+04,-4.000000000000000327e-05,4.000000000000000327e-05,8.000000000000000654e-05,-4.899999999999999842e-04,-9.300000000000000541e-04,-5.400000000000000069e-04,-2.700000000000000035e-04,-1.000000000000000048e-04,4.000000000000000000e+00,6.000000000000000000e+00
1.774700000000000000e+04,-4.000000000000000327e-05,4.000000000000000327e-05,8.000000000000000654e-05,-4.899999999999999842e-04,-9.300000000000000541e-04,-5.400000000000000069e-04,-2.700000000000000035e-04,-1.000000000000000048e-04,4.000000000000000000e+00,6.000000000000000000e+00
1.774800000000000000e+04,-4.000000000000000327e-05,4.000000000000000327e-05,8.000000000000000654e-05,-4.899999999999999842e-04,-9.300000000000000541e-04,-5.400000000000000069e-04,-2.700000000000000035e-04,-1.000000000000000048e-04,4.000000000000000000e+00,6.000000000000000000e+00
1.774900000000000000e+04,-4.000000000000000327e-05,4.000000000000000327e-05,8.000000000000000654e-05,-4.899999999999999842e-04,-9.300000000000000541e-04,-5.400000000000000069e-04,-2.700000000000000035e-04,-1.000000000000000048e-04,4.000000000000000000e+00,6.000000000000000000e+00
1.775000000000000000e+04,-4.000000000000000327e-05,4.000000000000000327e-05,8.000000000000000654e-05,-4.899999999999999842e-04,-9.300000000000000541e-04,-5.400000000000000069e-04,-2.700000000000000035e-04,-1.000000000000000048e-04,4.000000000000000000e+00,6.000000000000000000e+00
1.775100000000000000e+04,-4.000000000000000327e-05,4.000000000000000327e-05,8.000000000000000654e-05,-4.899999999999999842e-04,-9.300000000000000541e-04,-5.400000000000000069e-04,-2.700000000000000035e-04,-1.000000000000000048e-04,4.000000000000000000e+00,6.000000000000000000e+00
1.775200000000000000e+04,-4.000000000000000327e-05,4.000000000000000327e-05,8.000000000000000654e-05,-4.899999999999999842e-04,-9.300000000000000541e-04,-5.400000000000000069e-04,-2.700000000000000035e-04,-1.000000000000000048e-04,4.000000000000000000e+00,6.000000000000000000e+00
1.775300000000000000e+04,-2.999999999999999737e-05,-5.000000000000000240e-05,-2.299999999999999799e-04,-2.799999999999999755e-04,-7.500000000000000156e-04,-1.199999999999999895e-04,-1.399999999999999877e-04,-4.000000000000000327e-05,4.000000000000000000e+00,6.000000000000000000e+00
1.775400000000000000e+04,-2.999999999999999737e-05,-5.000000000000000240e-05,-2.299999999999999799e-04,-2.799999999999999755e-04,-7.500000000000000156e-04,-1.199999999999999895e-04,-1.399999999999999877e-04,-4.000000000000000327e-05,4.000000000000000000e+00,6.000000000000000000e+00
1.775500000000000000e+04,-2.999999999999999737e-05,-5.000000000000000240e-05,-2.299999999999999799e-04,-2.799999999999999755e-04,-7.500000000000000156e-04,-1.199999999999999895e-04,-1.399999999999999877e-04,-4.000000000000000327e-05,4.000000000000000000e+00,6.000000000000000000e+00
1.775600000000000000e+04,-2.999999999999999737e-05,-5.000000000000000240e-05,-2.299999999999999799e-04,-2.799999999999999755e-04,-7.500000000000000156e-04,-1.199999999999999895e-04,-1.399999999999999877e-04,-4.000000000000000327e-05,4.000000000000000000e+00,6.000000000000000000e+00
1.775800000000000000e+04,-2.999999999999999737e-05,-5.000000000000000240e-05,-2.299999999999999799e-04,-2.799999999999999755e-04,-7.500000000000000156e-04,-1.199999999999999895e-04,-1.399999999999999877e-04,-4.000000000000000327e-05,4.000000000000000000e+00,6.000000000000000000e+00
1.775900000000000000e+04,-2.999999999999999737e-05,-5.000000000000000240e-05,-2.299999999999999799e-04,-2.799999999999999755e-04,-7.500000000000000156e-04,-1.199999999999999895e-04,-1.399999999999999877e-04,-4.000000000000000327e-05,4.000000000000000000e+00,6.000000000000000000e+00
1.776000000000000000e+04,-2.999999999999999737e-05,-5.000000000000000240e-05,-2.299999999999999799e-04,-2.799999999999999755e-04,-7.500000000000000156e-04,-1.199999999999999895e-04,-1.399999999999999877e-04,-4.000000000000000327e-05,4.000000000000000000e+00,6.000000000000000000e+00
1.776100000000000000e+04,-2.999999999999999737e-05,-5.000000000000000240e-05,-2.299999999999999799e-04,-2.799999999999999755e-04,-7.500000000000000156e-04,-1.199999999999999895e-04,-1.399999999999999877e-04,-4.000000000000000327e-05,4.000000000000000000e+00,6.000000000000000000e+00
1.776200000000000000e+04,-2.999999999999999737e-05,-5.000000000000000240e-05,-2.299999999999999799e-04,-2.799999999999999755e-04,-7.500000000000000156e-04,-1.199999999999999895e-04,-1.399999999999999877e-04,-4.000000000000000327e-05,4.000000000000000000e+00,6.000000000000000000e+00
1.776300000000000000e+04,-2.999999999999999737e-05,-5.000000000000000240e-05,-2.299999999999999799e-04,-2.799999999999999755e-04,-7.500000000000000156e-04,-1.199999999999999895e-04,-1.399999999999999877e-04,-4.000000000000000327e-05,4.000000000000000000e+00,6.000000000000000000e+00
1.776400000000000000e+04,-2.999999999999999737e-05,-5.000000000000000240e-05,-2.299999999999999799e-04,-2.799999999999999755e-04,-7.500000000000000156e-04,-1.199999999999999895e-04,-1.399999999999999877e-04,-4.000000000000000327e-05,4.000000000000000000e+00,6.000000000000000000e+00
1.776500000000000000e+04,-2.999999999999999737e-05,-5.000000000000000240e-05,-2.299999999999999799e-04,-2.799999999999999755e-04,-7.500000000000000156e-04,-1.199999999999999895e-04,-1.399999999999999877e-04,-4.000000000000000327e-05,4.000000000000000000e+00,6.000000000000000000e+00
1.776600000000000000e+04,-2.999999999999999737e-05,-5.000000000000000240e-05,-2.299999999999999799e-04,-2.799999999999999755e-04,-7.500000000000000156e-04,-1.199999999999999895e-04,-1.399999999999999877e-04,-4.000000000000000327e-05,4.000000000000000000e+00,6.000000000000000000e+00
1.776700000000000000e+04,-4.000000000000000327e-05,4.000000000000000327e-05,2.999999999999999737e-04,9.400000000000000803e-04,1.899999999999999834e-04,5.000000000000000104e-04,-1.000000000000000082e-05,-5.000000000000000240e-05,4.000000000000000000e+00,6.000000000000000000e+00
1.776800000000000000e+04,-4.000000000000000327e-05,4.000000000000000327e-05,2.999999999999999737e-04,9.400000000000000803e-04,1.899999999999999834e-04,5.000000000000000104e-04,-1.000000000000000082e-05,-5.000000000000000240e-05,4.000000000000000000e+00,6.000000000000000000e+00
1.776900000000000000e+04,-4.000000000000000327e-05,4.000000000000000327e-05,2.999999999999999737e-04,9.400000000000000803e-04,1.899999999999999834e-04,5.000000000000000104e-04,-1.000000000000000082e-05,-5.000000000000000240e-05,4.000000000000000000e+00,6.000000000000000000e+00
1.777000000000000000e+04,-4.000000000000000327e-05,4.000000000000000327e-05,2.999999999999999737e-04,9.400000000000000803e-04,1.899999999999999834e-04,5.000000000000000104e-04,-1.000000000000000082e-05,-5.000000000000000240e-05,4.000000000000000000e+00,6.000000000000000000e+00
1.777100000000000000e+04,-4.000000000000000327e-05,4.000000000000000327e-05,2.999999999999999737e-04,9.400000000000000803e-04,1.899999999999999834e-04,5.000000000000000104e-04,-1.000000000000000082e-05,-5.000000000000000240e-05,4.000000000000000000e+00,6.000000000000000000e+00
1.777200000000000000e+04,-4.000000000000000327e-05,4.000000000000000327e-05,2.999999999999999737e-04,9.400000000000000803e-04,1.899999999999999834e-04,5.000000000000000104e-04,-1.000000000000000082e-05,-5.000000000000000240e-05,4.000000000000000000e+00,6.000000000000000000e+00
1.777300000000000000e+04,-4.000000000000000327e-05,4.000000000000000327e-05,2.999999999999999737e-04,9.400000000000000803e-04,1.899999999999999834e-04,5.000000000000000104e-04,-1.000000000000000082e-05,-5.000000000000000240e-05,4.000000000000000000e+00,6.000000000000000000e+00
1.777400000000000000e+04,-4.000000000000000327e-05,4.000000000000000327e-05,2.999999999999999737e-04,9.400000000000000803e-04,1.899999999999999834e-04,5.000000000000000104e-04,-1.000000000000000082e-05,-5.000000000000000240e-05,4.000000000000000000e+00,6.000000000000000000e+00
1.777500000000000000e+04,0.000000000000000000e+00,1.000000000000000082e-05,-6.999999999999999387e-05,-7.200000000000000453e-04,-2.100000000000000087e-04,-6.799999999999999404e-04,-2.500000000000000052e-04,-1.000000000000000048e-04,4.000000000000000000e+00,6.000000000000000000e+00
1.777600000000000000e+04,-5.999999999999999474e-05,-5.000000000000000240e-05,-6.999999999999999387e-05,2.200000000000000078e-04,2.100000000000000087e-04,4.799999999999999580e-04,-1.199999999999999895e-04,-5.000000000000000240e-05,4.000000000000000000e+00,6.000000000000000000e+00
1.777700000000000000e+04,-5.999999999999999474e-05,-5.000000000000000240e-05,-6.999999999999999387e-05,2.200000000000000078e-04,2.100000000000000087e-04,4.799999999999999580e-04,-1.199999999999999895e-04,-5.000000000000000240e-05,4.000000000000000000e+00,6.000000000000000000e+00
1.777800000000000000e+04,-5.999999999999999474e-05,-5.000000000000000240e-05,-6.999999999999999387e-05,2.200000000000000078e-04,2.100000000000000087e-04,4.799999999999999580e-04,-1.199999999999999895e-04,-5.000000000000000240e-05,4.000000000000000000e+00,6.000000000000000000e+00
1.777900000000000000e+04,-5.999999999999999474e-05,-5.000000000000000240e-05,-6.999999999999999387e-05,2.200000000000000078e-04,2.100000000000000087e-04,4.799999999999999580e-04,-1.199999999999999895e-04,-5.000000000000000240e-05,4.000000000000000000e+00,6.000000000000000000e+00
1.778000000000000000e+04,-5.999999999999999474e-05,-5.000000000000000240e-05,-6.999999999999999387e-05,2.200000000000000078e-04,2.100000000000000087e-04,4.799999999999999580e-04,-1.199999999999999895e-04,-5.000000000000000240e-05,4.000000000000000000e+00,6.000000000000000000e+00
1.778100000000000000e+04,-5.999999999999999474e-05,-5.000000000000000240e-05,-6.999999999999999387e-05,2.200000000000000078e-04,2.100000000000000087e-04,4.799999999999999580e-04,-1.199999999999999895e-04,-5.000000000000000240e-05,4.000000000000000000e+00,6.000000000000000000e+00
1.778200000000000000e+04,-5.999999999999999474e-05,-5.000000000000000240e-05,-6.999999999999999387e-05,2.200000000000000078e-04,2.100000000000000087e-04,4.799999999999999580e-04,-1.199999999999999895e-04,-5.000000000000000240e-05,4.000000000000000000e+00,6.000000000000000000e+00
1.778300000000000000e+04,-5.999999999999999474e-05,-5.000000000000000240e-05,-6.999999999999999387e-05,2.200000000000000078e-04,2.100000000000000087e-04,4.799999999999999580e-04,-1.199999999999999895e-04,-5.000000000000000240e-05,4.000000000000000000e+00,6.000000000000000000e+00
1.778400000000000000e+04,-5.999999999999999474e-05,-5.000000000000000240e-05,-6.999999999999999387e-05,2.200000000000000078e-04,2.100000000000000087e-04,4.799999999999999580e-04,-1.199999999999999895e-04,-5.000000000000000240e-05,4.000000000000000000e+00,6.000000000000000000e+00
1.778500000000000000e+04,-5.999999999999999474e-05,-5.000000000000000240e-05,-6.999999999999999387e-05,2.200000000000000078e-04,2.100000000000000087e-04,4.799999999999999580e-04,-1.199999999999999895e-04,-5.000000000000000240e-05,4.000000000000000000e+00,6.000000000000000000e+00
1.778700000000000000e+04,-5.999999999999999474e-05,-5.000000000000000240e-05,-6.999999999999999387e-05,2.200000000000000078e-04,2.100000000000000087e-04,4.799999999999999580e-04,-1.199999999999999895e-04,-5.000000000000000240e-05,4.000000000000000000e+00,6.000000000000000000e+00
1.778900000000000000e+04,-5.999999999999999474e-05,-5.000000000000000240e-05,-6.999999999999999387e-05,2.200000000000000078e-04,2.100000000000000087e-04,4.799999999999999580e-04,-1.199999999999999895e-04,-5.000000000000000240e-05,4.000000000000000000e+00,6.000000000000000000e+00
1.779000000000000000e+04,-5.999999999999999474e-05,-5.000000000000000240e-05,-6.999999999999999387e-05,2.200000000000000078e-04,2.100000000000000087e-04,4.799999999999999580e-04,-1.199999999999999895e-04,-5.000000000000000240e-05,4.000000000000000000e+00,6.000000000000000000e+00
1.779100000000000000e+04,0.000000000000000000e+00,-4.000000000000000327e-05,-1.899999999999999834e-04,4.299999999999999894e-04,7.399999999999999894e-04,1.000000000000000082e-05,-2.000000000000000164e-05,0.000000000000000000e+00,4.000000000000000000e+00,6.000000000000000000e+00
1.779200000000000000e+04,1.000000000000000082e-05,8.000000000000000654e-05,2.200000000000000078e-04,3.499999999999999964e-04,6.999999999999999387e-05,-5.000000000000000240e-05,-4.000000000000000327e-05,0.000000000000000000e+00,4.000000000000000000e+00,6.000000000000000000e+00
1.779300000000000000e+04,1.000000000000000082e-05,8.000000000000000654e-05,2.200000000000000078e-04,3.499999999999999964e-04,6.999999999999999387e-05,-5.000000000000000240e-05,-4.000000000000000327e-05,0.000000000000000000e+00,4.000000000000000000e+00,6.000000000000000000e+00
1.779400000000000000e+04,1.000000000000000082e-05,8.000000000000000654e-05,2.200000000000000078e-04,3.499999999999999964e-04,6.999999999999999387e-05,-5.000000000000000240e-05,-4.000000000000000327e-05,0.000000000000000000e+00,4.000000000000000000e+00,6.000000000000000000e+00
1.779500000000000000e+04,1.000000000000000082e-05,8.000000000000000654e-05,2.200000000000000078e-04,3.499999999999999964e-04,6.999999999999999387e-05,-5.000000000000000240e-05,-4.000000000000000327e-05,0.000000000000000000e+00,4.000000000000000000e+00,6.000000000000000000e+00
1.779600000000000000e+04,1.000000000000000082e-05,8.000000000000000654e-05,2.200000000000000078e-04,3.499999999999999964e-04,6.999999999999999387e-05,-5.000000000000000240e-05,-4.000000000000000327e-05,0.000000000000000000e+00,4.000000000000000000e+00,6.000000000000000000e+00
1.779700000000000000e+04,1.000000000000000082e-05,8.000000000000000654e-05,2.200000000000000078e-04,3.499999999999999964e-04,6.999999999999999387e-05,-5.000000000000000240e-05,-4.000000000000000327e-05,0.000000000000000000e+00,4.000000000000000000e+00,6.000000000000000000e+00
1.779800000000000000e+04,1.000000000000000082e-05,8.000000000000000654e-05,2.200000000000000078e-04,3.499999999999999964e-04,6.999999999999999387e-05,-5.000000000000000240e-05,-4.000000000000000327e-05,0.000000000000000000e+00,4.000000000000000000e+00,6.000000000000000000e+00
1.779900000000000000e+04,1.000000000000000082e-05,8.000000000000000654e-05,2.200000000000000078e-04,3.499999999999999964e-04,6.999999999999999387e-05,-5.000000000000000240e-05,-4.000000000000000327e-05,0.000000000000000000e+00,4.000000000000000000e+00,6.000000000000000000e+00
1.780000000000000000e+04,1.000000000000000082e-05,8.000000000000000654e-05,2.200000000000000078e-04,3.499999999999999964e-04,6.999999999999999387e-05,-5.000000000000000240e-05,-4.000000000000000327e-05,0.000000000000000000e+00,4.000000000000000000e+00,6.000000000000000000e+00
1.780100000000000000e+04,1.000000000000000082e-05,8.000000000000000654e-05,2.200000000000000078e-04,3.499999999999999964e-04,6.999999999999999387e-05,-5.000000000000000240e-05,-4.000000000000000327e-05,0.000000000000000000e+00,4.000000000000000000e+00,6.000000000000000000e+00
1.780200000000000000e+04,1.000000000000000082e-05,8.000000000000000654e-05,2.200000000000000078e-04,3.499999999999999964e-04,6.999999999999999387e-05,-5.000000000000000240e-05,-4.000000000000000327e-05,0.000000000000000000e+00,4.000000000000000000e+00,6.000000000000000000e+00
1.780300000000000000e+04,1.000000000000000082e-05,8.000000000000000654e-05,2.200000000000000078e-04,3.499999999999999964e-04,6.999999999999999387e-05,-5.000000000000000240e-05,-4.000000000000000327e-05,0.000000000000000000e+00,4.000000000000000000e+00,6.000000000000000000e+00
1.780400000000000000e+04,1.000000000000000082e-05,8.000000000000000654e-05,2.200000000000000078e-04,3.499999999999999964e-04,6.999999999999999387e-05,-5.000000000000000240e-05,-4.000000000000000327e-05,0.000000000000000000e+00,4.000000000000000000e+00,6.000000000000000000e+00
1.780600000000000000e+04,1.000000000000000082e-05,8.000000000000000654e-05,2.200000000000000078e-04,3.499999999999999964e-04,6.999999999999999387e-05,-5.000000000000000240e-05,-4.000000000000000327e-05,0.000000000000000000e+00,4.000000000000000000e+00,6.000000000000000000e+00
1.780700000000000000e+04,1.000000000000000082e-05,8.000000000000000654e-05,2.200000000000000078e-04,3.499999999999999964e-04,6.999999999999999387e-05,-5.000000000000000240e-05,-4.000000000000000327e-05,0.000000000000000000e+00,4.000000000000000000e+00,6.000000000000000000e+00
1.780800000000000000e+04,1.000000000000000082e-05,8.000000000000000654e-05,2.200000000000000078e-04,3.499999999999999964e-04,6.999999999999999387e-05,-5.000000000000000240e-05,-4.000000000000000327e-05,0.000000000000000000e+00,4.000000000000000000e+00,6.000000000000000000e+00
1.780900000000000000e+04,1.000000000000000082e-05,8.000000000000000654e-05,2.200000000000000078e-04,3.499999999999999964e-04,6.999999999999999387e-05,-5.000000000000000240e-05,-4.000000000000000327e-05,0.000000000000000000e+00,4.000000000000000000e+00,6.000000000000000000e+00
1.781000000000000000e+04,1.000000000000000082e-05,8.000000000000000654e-05,2.200000000000000078e-04,3.499999999999999964e-04,6.999999999999999387e-05,-5.000000000000000240e-05,-4.000000000000000327e-05,0.000000000000000000e+00,4.000000000000000000e+00,6.000000000000000000e+00
1.781100000000000000e+04,1.000000000000000082e-05,8.000000000000000654e-05,2.200000000000000078e-04,3.499999999999999964e-04,6.999999999999999387e-05,-5.000000000000000240e-05,-4.000000000000000327e-05,0.000000000000000000e+00,4.000000000000000000e+00,6.000000000000000000e+00
1.781200000000000000e+04,1.000000000000000082e-05,8.000000000000000654e-05,2.200000000000000078e-04,3.499999999999999964e-04,6.999999999999999387e-05,-5.000000000000000240e-05,-4.000000000000000327e-05,0.000000000000000000e+00,4.000000000000000000e+00,6.000000000000000000e+00
1.781300000000000000e+04,1.000000000000000082e-05,8.000000000000000654e-05,2.200000000000000078e-04,3.499999999999999964e-04,6.999999999999999387e-05,-5.000000000000000240e-05,-4.000000000000000327e-05,0.000000000000000000e+00,4.000000000000000000e+00,6.000000000000000000e+00
1.781400000000000000e+04,2.999999999999999737e-05,-1.000000000000000082e-05,1.399999999999999877e-04,3.099999999999999999e-04,6.099999999999999737e-04,1.499999999999999869e-04,1.499999999999999869e-04,5.999999999999999474e-05,4.000000000000000000e+00,6.000000000000000000e+00
1.781500000000000000e+04,2.999999999999999737e-05,-1.000000000000000082e-05,1.399999999999999877e-04,3.099999999999999999e-04,6.099999999999999737e-04,1.499999999999999869e-04,1.499999999999999869e-04,5.999999999999999474e-05,4.000000000000000000e+00,6.000000000000000000e+00
1.781600000000000000e+04,2.999999999999999737e-05,-1.000000000000000082e-05,1.399999999999999877e-04,3.099999999999999999e-04,6.099999999999999737e-04,1.499999999999999869e-04,1.499999999999999869e-04,5.999999999999999474e-05,4.000000000000000000e+00,6.000000000000000000e+00
1.781700000000000000e+04,2.999999999999999737e-05,-1.000000000000000082e-05,1.399999999999999877e-04,3.099999999999999999e-04,6.099999999999999737e-04,1.499999999999999869e-04,1.499999999999999869e-04,5.999999999999999474e-05,4.000000000000000000e+00,6.000000000000000000e+00
1.781800000000000000e+04,2.999999999999999737e-05,-1.000000000000000082e-05,1.399999999999999877e-04,3.099999999999999999e-04,6.099999999999999737e-04,1.499999999999999869e-04,1.499999999999999869e-04,5.999999999999999474e-05,4.000000000000000000e+00,6.000000000000000000e+00
1.781900000000000000e+04,2.999999999999999737e-05,-1.000000000000000082e-05,1.399999999999999877e-04,3.099999999999999999e-04,6.099999999999999737e-04,1.499999999999999869e-04,1.499999999999999869e-04,5.999999999999999474e-05,4.000000000000000000e+00,6.000000000000000000e+00
1.782000000000000000e+04,2.999999999999999737e-05,-1.000000000000000082e-05,1.399999999999999877e-04,3.099999999999999999e-04,6.099999999999999737e-04,1.499999999999999869e-04,1.499999999999999869e-04,5.999999999999999474e-05,4.000000000000000000e+00,6.000000000000000000e+00
1.782100000000000000e+04,2.999999999999999737e-05,-1.000000000000000082e-05,1.399999999999999877e-04,3.099999999999999999e-04,6.099999999999999737e-04,1.499999999999999869e-04,1.499999999999999869e-04,5.999999999999999474e-05,4.000000000000000000e+00,6.000000000000000000e+00
1.782200000000000000e+04,2.999999999999999737e-05,-1.000000000000000082e-05,1.399999999999999877e-04,3.099999999999999999e-04,6.099999999999999737e-04,1.499999999999999869e-04,1.499999999999999869e-04,5.999999999999999474e-05,4.000000000000000000e+00,6.000000000000000000e+00
1.782300000000000000e+04,2.999999999999999737e-05,-1.000000000000000082e-05,1.399999999999999877e-04,3.099999999999999999e-04,6.099999999999999737e-04,1.499999999999999869e-04,1.499999999999999869e-04,5.999999999999999474e-05,4.000000000000000000e+00,6.000000000000000000e+00
1.782400000000000000e+04,2.999999999999999737e-05,-1.000000000000000082e-05,1.399999999999999877e-04,3.099999999999999999e-04,6.099999999999999737e-04,1.499999999999999869e-04,1.499999999999999869e-04,5.999999999999999474e-05,4.000000000000000000e+00,6.000000000000000000e+00
1.782500000000000000e+04,2.999999999999999737e-05,-1.000000000000000082e-05,1.399999999999999877e-04,3.099999999999999999e-04,6.099999999999999737e-04,1.499999999999999869e-04,1.499999999999999869e-04,5.999999999999999474e-05,4.000000000000000000e+00,6.000000000000000000e+00
1.782600000000000000e+04,2.999999999999999737e-05,-1.000000000000000082e-05,1.399999999999999877e-04,3.099999999999999999e-04,6.099999999999999737e-04,1.499999999999999869e-04,1.499999999999999869e-04,5.999999999999999474e-05,4.000000000000000000e+00,6.000000000000000000e+00
1.782700000000000000e+04,-1.499999999999999869e-04,-2.900000000000000017e-04,-5.200000000000000629e-04,-1.219999999999999947e-03,-9.899999999999999946e-04,-1.209999999999999921e-03,-3.399999999999999702e-04,-2.000000000000000096e-04,4.000000000000000000e+00,6.000000000000000000e+00
1.782800000000000000e+04,-1.499999999999999869e-04,-2.900000000000000017e-04,-5.200000000000000629e-04,-1.219999999999999947e-03,-9.899999999999999946e-04,-1.209999999999999921e-03,-3.399999999999999702e-04,-2.000000000000000096e-04,4.000000000000000000e+00,6.000000000000000000e+00
1.782900000000000000e+04,-1.499999999999999869e-04,-2.900000000000000017e-04,-5.200000000000000629e-04,-1.219999999999999947e-03,-9.899999999999999946e-04,-1.209999999999999921e-03,-3.399999999999999702e-04,-2.000000000000000096e-04,4.000000000000000000e+00,6.000000000000000000e+00
1.783000000000000000e+04,-1.499999999999999869e-04,-2.900000000000000017e-04,-5.200000000000000629e-04,-1.219999999999999947e-03,-9.899999999999999946e-04,-1.209999999999999921e-03,-3.399999999999999702e-04,-2.000000000000000096e-04,4.000000000000000000e+00,6.000000000000000000e+00
1.783100000000000000e+04,-1.499999999999999869e-04,-2.900000000000000017e-04,-5.200000000000000629e-04,-1.219999999999999947e-03,-9.899999999999999946e-04,-1.209999999999999921e-03,-3.399999999999999702e-04,-2.000000000000000096e-04,4.000000000000000000e+00,6.000000000000000000e+00
1.783200000000000000e+04,-1.499999999999999869e-04,-2.900000000000000017e-04,-5.200000000000000629e-04,-1.219999999999999947e-03,-9.899999999999999946e-04,-1.209999999999999921e-03,-3.399999999999999702e-04,-2.000000000000000096e-04,4.000000000000000000e+00,6.000000000000000000e+00
1.783300000000000000e+04,-1.499999999999999869e-04,-2.900000000000000017e-04,-5.200000000000000629e-04,-1.219999999999999947e-03,-9.899999999999999946e-04,-1.209999999999999921e-03,-3.399999999999999702e-04,-2.000000000000000096e-04,4.000000000000000000e+00,6.000000000000000000e+00
1.783400000000000000e+04,-1.499999999999999869e-04,-2.900000000000000017e-04,-5.200000000000000629e-04,-1.219999999999999947e-03,-9.899999999999999946e-04,-1.209999999999999921e-03,-3.399999999999999702e-04,-2.000000000000000096e-04,4.000000000000000000e+00,6.000000000000000000e+00
1.783500000000000000e+04,1.100000000000000039e-04,2.399999999999999790e-04,3.299999999999999982e-04,5.800000000000000034e-04,3.899999999999999929e-04,7.399999999999999894e-04,2.500000000000000052e-04,1.199999999999999895e-04,4.000000000000000000e+00,6.000000000000000000e+00
1.783700000000000000e+04,-2.999999999999999737e-05,-1.300000000000000157e-04,-3.099999999999999999e-04,-2.799999999999999755e-04,-1.100000000000000039e-04,-2.999999999999999737e-05,-1.000000000000000082e-05,-1.000000000000000082e-05,4.000000000000000000e+00,6.000000000000000000e+00
1.783900000000000000e+04,-2.999999999999999737e-05,-1.300000000000000157e-04,-3.099999999999999999e-04,-2.799999999999999755e-04,-1.100000000000000039e-04,-2.999999999999999737e-05,-1.000000000000000082e-05,-1.000000000000000082e-05,4.000000000000000000e+00,6.000000000000000000e+00
1.784000000000000000e+04,-2.999999999999999737e-05,-1.300000000000000157e-04,-3.099999999999999999e-04,-2.799999999999999755e-04,-1.100000000000000039e-04,-2.999999999999999737e-05,-1.000000000000000082e-05,-1.000000000000000082e-05,4.000000000000000000e+00,6.000000000000000000e+00
1.784100000000000000e+04,-2.999999999999999737e-05,-1.300000000000000157e-04,-3.099999999999999999e-04,-2.799999999999999755e-04,-1.100000000000000039e-04,-2.999999999999999737e-05,-1.000000000000000082e-05,-1.000000000000000082e-05,4.000000000000000000e+00,6.000000000000000000e+00
1.784200000000000000e+04,-2.999999999999999737e-05,-1.300000000000000157e-04,-3.099999999999999999e-04,-2.799999999999999755e-04,-1.100000000000000039e-04,-2.999999999999999737e-05,-1.000000000000000082e-05,-1.000000000000000082e-05,4.000000000000000000e+00,6.000000000000000000e+00
1.784300000000000000e+04,-2.999999999999999737e-05,-1.300000000000000157e-04,-3.099999999999999999e-04,-2.799999999999999755e-04,-1.100000000000000039e-04,-2.999999999999999737e-05,-1.000000000000000082e-05,-1.000000000000000082e-05,4.000000000000000000e+00,6.000000000000000000e+00
1.784400000000000000e+04,-2.999999999999999737e-05,-1.300000000000000157e-04,-3.099999999999999999e-04,-2.799999999999999755e-04,-1.100000000000000039e-04,-2.999999999999999737e-05,-1.000000000000000082e-05,-1.000000000000000082e-05,4.000000000000000000e+00,6.000000000000000000e+00
1.784500000000000000e+04,-2.999999999999999737e-05,-1.300000000000000157e-04,-3.099999999999999999e-04,-2.799999999999999755e-04,-1.100000000000000039e-04,-2.999999999999999737e-05,-1.000000000000000082e-05,-1.000000000000000082e-05,4.000000000000000000e+00,6.000000000000000000e+00
1.784600000000000000e+04,-2.999999999999999737e-05,-1.300000000000000157e-04,-3.099999999999999999e-04,-2.799999999999999755e-04,-1.100000000000000039e-04,-2.999999999999999737e-05,-1.000000000000000082e-05,-1.000000000000000082e-05,4.000000000000000000e+00,6.000000000000000000e+00
1.784700000000000000e+04,-2.999999999999999737e-05,-1.300000000000000157e-04,-3.099999999999999999e-04,-2.799999999999999755e-04,-1.100000000000000039e-04,-2.999999999999999737e-05,-1.000000000000000082e-05,-1.000000000000000082e-05,4.000000000000000000e+00,6.000000000000000000e+00
1.784800000000000000e+04,-2.999999999999999737e-05,-1.300000000000000157e-04,-3.099999999999999999e-04,-2.799999999999999755e-04,-1.100000000000000039e-04,-2.999999999999999737e-05,-1.000000000000000082e-05,-1.000000000000000082e-05,4.000000000000000000e+00,6.000000000000000000e+00
1.784900000000000000e+04,-2.999999999999999737e-05,-1.300000000000000157e-04,-3.099999999999999999e-04,-2.799999999999999755e-04,-1.100000000000000039e-04,-2.999999999999999737e-05,-1.000000000000000082e-05,-1.000000000000000082e-05,4.000000000000000000e+00,6.000000000000000000e+00
1.785000000000000000e+04,-5.999999999999999474e-05,-8.000000000000000654e-05,-1.100000000000000039e-04,1.600000000000000131e-04,-3.699999999999999947e-04,-3.099999999999999999e-04,-1.199999999999999895e-04,-1.000000000000000048e-04,4.000000000000000000e+00,6.000000000000000000e+00
1.785100000000000000e+04,-8.000000000000000654e-05,-9.000000000000000567e-05,-1.399999999999999877e-04,5.000000000000000240e-05,-1.399999999999999877e-04,1.000000000000000082e-05,-5.000000000000000240e-05,-5.000000000000000240e-05,4.000000000000000000e+00,6.000000000000000000e+00
1.785200000000000000e+04,5.999999999999999474e-05,1.000000000000000048e-04,1.199999999999999895e-04,4.700000000000000401e-04,1.699999999999999851e-04,4.000000000000000327e-05,1.000000000000000048e-04,8.000000000000000654e-05,4.000000000000000000e+00,6.000000000000000000e+00
1.785300000000000000e+04,5.999999999999999474e-05,1.000000000000000048e-04,1.199999999999999895e-04,4.700000000000000401e-04,1.699999999999999851e-04,4.000000000000000327e-05,1.000000000000000048e-04,8.000000000000000654e-05,4.000000000000000000e+00,6.000000000000000000e+00
1.785400000000000000e+04,5.999999999999999474e-05,1.000000000000000048e-04,1.199999999999999895e-04,4.700000000000000401e-04,1.699999999999999851e-04,4.000000000000000327e-05,1.000000000000000048e-04,8.000000000000000654e-05,4.000000000000000000e+00,6.000000000000000000e+00
1.785500000000000000e+04,5.999999999999999474e-05,1.000000000000000048e-04,1.199999999999999895e-04,4.700000000000000401e-04,1.699999999999999851e-04,4.000000000000000327e-05,1.000000000000000048e-04,8.000000000000000654e-05,4.000000000000000000e+00,6.000000000000000000e+00
1.785600000000000000e+04,5.999999999999999474e-05,1.000000000000000048e-04,1.199999999999999895e-04,4.700000000000000401e-04,1.699999999999999851e-04,4.000000000000000327e-05,1.000000000000000048e-04,8.000000000000000654e-05,4.000000000000000000e+00,6.000000000000000000e+00
1.785700000000000000e+04,5.999999999999999474e-05,1.000000000000000048e-04,1.199999999999999895e-04,4.700000000000000401e-04,1.699999999999999851e-04,4.000000000000000327e-05,1.000000000000000048e-04,8.000000000000000654e-05,4.000000000000000000e+00,6.000000000000000000e+00
1.785800000000000000e+04,5.999999999999999474e-05,1.000000000000000048e-04,1.199999999999999895e-04,4.700000000000000401e-04,1.699999999999999851e-04,4.000000000000000327e-05,1.000000000000000048e-04,8.000000000000000654e-05,4.000000000000000000e+00,6.000000000000000000e+00
1.785900000000000000e+04,5.999999999999999474e-05,1.000000000000000048e-04,1.199999999999999895e-04,4.700000000000000401e-04,1.699999999999999851e-04,4.000000000000000327e-05,1.000000000000000048e-04,8.000000000000000654e-05,4.000000000000000000e+00,6.000000000000000000e+00
1.786000000000000000e+04,5.999999999999999474e-05,1.000000000000000048e-04,1.199999999999999895e-04,4.700000000000000401e-04,1.699999999999999851e-04,4.000000000000000327e-05,1.000000000000000048e-04,8.000000000000000654e-05,4.000000000000000000e+00,6.000000000000000000e+00
1.786100000000000000e+04,5.999999999999999474e-05,1.000000000000000048e-04,1.199999999999999895e-04,4.700000000000000401e-04,1.699999999999999851e-04,4.000000000000000327e-05,1.000000000000000048e-04,8.000000000000000654e-05,4.000000000000000000e+00,6.000000000000000000e+00
1.786200000000000000e+04,5.999999999999999474e-05,1.000000000000000048e-04,1.199999999999999895e-04,4.700000000000000401e-04,1.699999999999999851e-04,4.000000000000000327e-05,1.000000000000000048e-04,8.000000000000000654e-05,4.000000000000000000e+00,6.000000000000000000e+00
1.786300000000000000e+04,5.999999999999999474e-05,1.000000000000000048e-04,1.199999999999999895e-04,4.700000000000000401e-04,1.699999999999999851e-04,4.000000000000000327e-05,1.000000000000000048e-04,8.000000000000000654e-05,4.000000000000000000e+00,6.000000000000000000e+00
1.786400000000000000e+04,5.999999999999999474e-05,1.000000000000000048e-04,1.199999999999999895e-04,4.700000000000000401e-04,1.699999999999999851e-04,4.000000000000000327e-05,1.000000000000000048e-04,8.000000000000000654e-05,4.000000000000000000e+00,6.000000000000000000e+00
1.786500000000000000e+04,-4.000000000000000327e-05,-5.000000000000000240e-05,-5.999999999999999474e-05,2.700000000000000035e-04,2.399999999999999790e-04,-5.999999999999999474e-05,-1.000000000000000048e-04,-5.999999999999999474e-05,4.000000000000000000e+00,6.000000000000000000e+00
1.786600000000000000e+04,-4.000000000000000327e-05,-5.000000000000000240e-05,-5.999999999999999474e-05,2.700000000000000035e-04,2.399999999999999790e-04,-5.999999999999999474e-05,-1.000000000000000048e-04,-5.999999999999999474e-05,4.000000000000000000e+00,6.000000000000000000e+00
1.786700000000000000e+04,-4.000000000000000327e-05,-5.000000000000000240e-05,-5.999999999999999474e-05,2.700000000000000035e-04,2.399999999999999790e-04,-5.999999999999999474e-05,-1.000000000000000048e-04,-5.999999999999999474e-05,4.000000000000000000e+00,6.000000000000000000e+00
1.786800000000000000e+04,-4.000000000000000327e-05,-5.000000000000000240e-05,-5.999999999999999474e-05,2.700000000000000035e-04,2.399999999999999790e-04,-5.999999999999999474e-05,-1.000000000000000048e-04,-5.999999999999999474e-05,4.000000000000000000e+00,6.000000000000000000e+00
1.786900000000000000e+04,-4.000000000000000327e-05,-5.000000000000000240e-05,-5.999999999999999474e-05,2.700000000000000035e-04,2.399999999999999790e-04,-5.999999999999999474e-05,-1.000000000000000048e-04,-5.999999999999999474e-05,4.000000000000000000e+00,6.000000000000000000e+00
1.787000000000000000e+04,-4.000000000000000327e-05,-5.000000000000000240e-05,-5.999999999999999474e-05,2.700000000000000035e-04,2.399999999999999790e-04,-5.999999999999999474e-05,-1.000000000000000048e-04,-5.999999999999999474e-05,4.000000000000000000e+00,6.000000000000000000e+00
1.787100000000000000e+04,-4.000000000000000327e-05,-5.000000000000000240e-05,-5.999999999999999474e-05,2.700000000000000035e-04,2.399999999999999790e-04,-5.999999999999999474e-05,-1.000000000000000048e-04,-5.999999999999999474e-05,4.000000000000000000e+00,6.000000000000000000e+00
1.787200000000000000e+04,-4.000000000000000327e-05,-5.000000000000000240e-05,-5.999999999999999474e-05,2.700000000000000035e-04,2.399999999999999790e-04,-5.999999999999999474e-05,-1.000000000000000048e-04,-5.999999999999999474e-05,4.000000000000000000e+00,6.000000000000000000e+00
1.787300000000000000e+04,-5.000000000000000240e-05,-9.000000000000000567e-05,-3.899999999999999929e-04,-6.099999999999999737e-04,-5.900000000000000296e-04,-5.999999999999999474e-05,0.000000000000000000e+00,-1.000000000000000082e-05,4.000000000000000000e+00,6.000000000000000000e+00
1.787400000000000000e+04,-5.000000000000000240e-05,-9.000000000000000567e-05,-3.899999999999999929e-04,-6.099999999999999737e-04,-5.900000000000000296e-04,-5.999999999999999474e-05,0.000000000000000000e+00,-1.000000000000000082e-05,4.000000000000000000e+00,6.000000000000000000e+00
1.787500000000000000e+04,-5.000000000000000240e-05,-9.000000000000000567e-05,-3.899999999999999929e-04,-6.099999999999999737e-04,-5.900000000000000296e-04,-5.999999999999999474e-05,0.000000000000000000e+00,-1.000000000000000082e-05,4.000000000000000000e+00,6.000000000000000000e+00
1.787600000000000000e+04,-5.000000000000000240e-05,-9.000000000000000567e-05,-3.899999999999999929e-04,-6.099999999999999737e-04,-5.900000000000000296e-04,-5.999999999999999474e-05,0.000000000000000000e+00,-1.000000000000000082e-05,4.000000000000000000e+00,6.000000000000000000e+00
1.787700000000000000e+04,-5.000000000000000240e-05,-9.000000000000000567e-05,-3.899999999999999929e-04,-6.099999999999999737e-04,-5.900000000000000296e-04,-5.999999999999999474e-05,0.000000000000000000e+00,-1.000000000000000082e-05,4.000000000000000000e+00,6.000000000000000000e+00
1.787800000000000000e+04,-5.000000000000000240e-05,-9.000000000000000567e-05,-3.899999999999999929e-04,-6.099999999999999737e-04,-5.900000000000000296e-04,-5.999999999999999474e-05,0.000000000000000000e+00,-1.000000000000000082e-05,4.000000000000000000e+00,6.000000000000000000e+00
1.787900000000000000e+04,-5.000000000000000240e-05,-9.000000000000000567e-05,-3.899999999999999929e-04,-6.099999999999999737e-04,-5.900000000000000296e-04,-5.999999999999999474e-05,0.000000000000000000e+00,-1.000000000000000082e-05,4.000000000000000000e+00,6.000000000000000000e+00
1.788000000000000000e+04,-5.000000000000000240e-05,-9.000000000000000567e-05,-3.899999999999999929e-04,-6.099999999999999737e-04,-5.900000000000000296e-04,-5.999999999999999474e-05,0.000000000000000000e+00,-1.000000000000000082e-05,4.000000000000000000e+00,6.000000000000000000e+00
1.788100000000000000e+04,-5.000000000000000240e-05,-9.000000000000000567e-05,-3.899999999999999929e-04,-6.099999999999999737e-04,-5.900000000000000296e-04,-5.999999999999999474e-05,0.000000000000000000e+00,-1.000000000000000082e-05,4.000000000000000000e+00,6.000000000000000000e+00
1.788200000000000000e+04,-5.000000000000000240e-05,-9.000000000000000567e-05,-3.899999999999999929e-04,-6.099999999999999737e-04,-5.900000000000000296e-04,-5.999999999999999474e-05,0.000000000000000000e+00,-1.000000000000000082e-05,4.000000000000000000e+00,6.000000000000000000e+00
1.788300000000000000e+04,-5.000000000000000240e-05,-9.000000000000000567e-05,-3.899999999999999929e-04,-6.099999999999999737e-04,-5.900000000000000296e-04,-5.999999999999999474e-05,0.000000000000000000e+00,-1.000000000000000082e-05,4.000000000000000000e+00,6.000000000000000000e+00
1.788400000000000000e+04,-5.000000000000000240e-05,-9.000000000000000567e-05,-3.899999999999999929e-04,-6.099999999999999737e-04,-5.900000000000000296e-04,-5.999999999999999474e-05,0.000000000000000000e+00,-1.000000000000000082e-05,4.000000000000000000e+00,6.000000000000000000e+00
1.788500000000000000e+04,-5.000000000000000240e-05,-9.000000000000000567e-05,-3.899999999999999929e-04,-6.099999999999999737e-04,-5.900000000000000296e-04,-5.999999999999999474e-05,0.000000000000000000e+00,-1.000000000000000082e-05,4.000000000000000000e+00,6.000000000000000000e+00
1.788600000000000000e+04,-5.000000000000000240e-05,-9.000000000000000567e-05,-3.899999999999999929e-04,-6.099999999999999737e-04,-5.900000000000000296e-04,-5.999999999999999474e-05,0.000000000000000000e+00,-1.000000000000000082e-05,4.000000000000000000e+00,6.000000000000000000e+00
1.788900000000000000e+04,2.999999999999999737e-05,6.999999999999999387e-05,1.600000000000000131e-04,1.800000000000000113e-04,-6.199999999999999999e-04,-1.000000000000000048e-04,-2.100000000000000087e-04,-6.999999999999999387e-05,4.000000000000000000e+00,6.000000000000000000e+00
1.789000000000000000e+04,2.999999999999999737e-05,6.999999999999999387e-05,1.600000000000000131e-04,1.800000000000000113e-04,-6.199999999999999999e-04,-1.000000000000000048e-04,-2.100000000000000087e-04,-6.999999999999999387e-05,4.000000000000000000e+00,6.000000000000000000e+00
1.789100000000000000e+04,2.999999999999999737e-05,6.999999999999999387e-05,1.600000000000000131e-04,1.800000000000000113e-04,-6.199999999999999999e-04,-1.000000000000000048e-04,-2.100000000000000087e-04,-6.999999999999999387e-05,4.000000000000000000e+00,6.000000000000000000e+00
1.789200000000000000e+04,2.999999999999999737e-05,6.999999999999999387e-05,1.600000000000000131e-04,1.800000000000000113e-04,-6.199999999999999999e-04,-1.000000000000000048e-04,-2.100000000000000087e-04,-6.999999999999999387e-05,4.000000000000000000e+00,6.000000000000000000e+00
1.789300000000000000e+04,2.999999999999999737e-05,6.999999999999999387e-05,1.600000000000000131e-04,1.800000000000000113e-04,-6.199999999999999999e-04,-1.000000000000000048e-04,-2.100000000000000087e-04,-6.999999999999999387e-05,4.000000000000000000e+00,6.000000000000000000e+00
1.789400000000000000e+04,2.999999999999999737e-05,6.999999999999999387e-05,1.600000000000000131e-04,1.800000000000000113e-04,-6.199999999999999999e-04,-1.000000000000000048e-04,-2.100000000000000087e-04,-6.999999999999999387e-05,4.000000000000000000e+00,6.000000000000000000e+00
1.789500000000000000e+04,4.000000000000000327e-05,1.399999999999999877e-04,1.800000000000000113e-04,0.000000000000000000e+00,4.700000000000000401e-04,1.699999999999999851e-04,5.000000000000000240e-05,4.000000000000000327e-05,4.000000000000000000e+00,6.000000000000000000e+00
1.789600000000000000e+04,-2.999999999999999737e-05,0.000000000000000000e+00,2.799999999999999755e-04,5.599999999999999509e-04,4.299999999999999894e-04,1.399999999999999877e-04,-5.000000000000000240e-05,-5.000000000000000240e-05,4.000000000000000000e+00,6.000000000000000000e+00
1.789800000000000000e+04,-2.999999999999999737e-05,0.000000000000000000e+00,2.799999999999999755e-04,5.599999999999999509e-04,4.299999999999999894e-04,1.399999999999999877e-04,-5.000000000000000240e-05,-5.000000000000000240e-05,4.000000000000000000e+00,6.000000000000000000e+00
1.789900000000000000e+04,-2.999999999999999737e-05,0.000000000000000000e+00,2.799999999999999755e-04,5.599999999999999509e-04,4.299999999999999894e-04,1.399999999999999877e-04,-5.000000000000000240e-05,-5.000000000000000240e-05,4.000000000000000000e+00,6.000000000000000000e+00
1.790000000000000000e+04,-2.999999999999999737e-05,0.000000000000000000e+00,2.799999999999999755e-04,5.599999999999999509e-04,4.299999999999999894e-04,1.399999999999999877e-04,-5.000000000000000240e-05,-5.000000000000000240e-05,4.000000000000000000e+00,6.000000000000000000e+00
1.790100000000000000e+04,-2.999999999999999737e-05,0.000000000000000000e+00,2.799999999999999755e-04,5.599999999999999509e-04,4.299999999999999894e-04,1.399999999999999877e-04,-5.000000000000000240e-05,-5.000000000000000240e-05,4.000000000000000000e+00,6.000000000000000000e+00
1.790200000000000000e+04,-2.999999999999999737e-05,0.000000000000000000e+00,2.799999999999999755e-04,5.599999999999999509e-04,4.299999999999999894e-04,1.399999999999999877e-04,-5.000000000000000240e-05,-5.000000000000000240e-05,4.000000000000000000e+00,6.000000000000000000e+00
1.790300000000000000e+04,-2.999999999999999737e-05,0.000000000000000000e+00,2.799999999999999755e-04,5.599999999999999509e-04,4.299999999999999894e-04,1.399999999999999877e-04,-5.000000000000000240e-05,-5.000000000000000240e-05,4.000000000000000000e+00,6.000000000000000000e+00
1.790400000000000000e+04,-2.999999999999999737e-05,0.000000000000000000e+00,2.799999999999999755e-04,5.599999999999999509e-04,4.299999999999999894e-04,1.399999999999999877e-04,-5.000000000000000240e-05,-5.000000000000000240e-05,4.000000000000000000e+00,6.000000000000000000e+00
1.790500000000000000e+04,-2.999999999999999737e-05,0.000000000000000000e+00,2.799999999999999755e-04,5.599999999999999509e-04,4.299999999999999894e-04,1.399999999999999877e-04,-5.000000000000000240e-05,-5.000000000000000240e-05,4.000000000000000000e+00,6.000000000000000000e+00
1.790600000000000000e+04,-2.999999999999999737e-05,0.000000000000000000e+00,2.799999999999999755e-04,5.599999999999999509e-04,4.299999999999999894e-04,1.399999999999999877e-04,-5.000000000000000240e-05,-5.000000000000000240e-05,4.000000000000000000e+00,6.000000000000000000e+00
1.790700000000000000e+04,-2.999999999999999737e-05,0.000000000000000000e+00,2.799999999999999755e-04,5.599999999999999509e-04,4.299999999999999894e-04,1.399999999999999877e-04,-5.000000000000000240e-05,-5.000000000000000240e-05,4.000000000000000000e+00,6.000000000000000000e+00
1.790800000000000000e+04,-2.999999999999999737e-05,0.000000000000000000e+00,2.799999999999999755e-04,5.599999999999999509e-04,4.299999999999999894e-04,1.399999999999999877e-04,-5.000000000000000240e-05,-5.000000000000000240e-05,4.000000000000000000e+00,6.000000000000000000e+00
1.790900000000000000e+04,-2.999999999999999737e-05,0.000000000000000000e+00,2.799999999999999755e-04,5.599999999999999509e-04,4.299999999999999894e-04,1.399999999999999877e-04,-5.000000000000000240e-05,-5.000000000000000240e-05,4.000000000000000000e+00,6.000000000000000000e+00
1.791000000000000000e+04,-5.000000000000000240e-05,-6.999999999999999387e-05,-2.100000000000000087e-04,-1.000000000000000021e-03,-6.999999999999999387e-05,5.999999999999999474e-05,-1.199999999999999895e-04,-4.000000000000000327e-05,4.000000000000000000e+00,6.000000000000000000e+00
1.791100000000000000e+04,-5.000000000000000240e-05,-6.999999999999999387e-05,-2.100000000000000087e-04,-1.000000000000000021e-03,-6.999999999999999387e-05,5.999999999999999474e-05,-1.199999999999999895e-04,-4.000000000000000327e-05,4.000000000000000000e+00,6.000000000000000000e+00
1.791200000000000000e+04,-5.000000000000000240e-05,-6.999999999999999387e-05,-2.100000000000000087e-04,-1.000000000000000021e-03,-6.999999999999999387e-05,5.999999999999999474e-05,-1.199999999999999895e-04,-4.000000000000000327e-05,4.000000000000000000e+00,6.000000000000000000e+00
1.791300000000000000e+04,-5.000000000000000240e-05,-6.999999999999999387e-05,-2.100000000000000087e-04,-1.000000000000000021e-03,-6.999999999999999387e-05,5.999999999999999474e-05,-1.199999999999999895e-04,-4.000000000000000327e-05,4.000000000000000000e+00,6.000000000000000000e+00
1.791400000000000000e+04,-5.000000000000000240e-05,-6.999999999999999387e-05,-2.100000000000000087e-04,-1.000000000000000021e-03,-6.999999999999999387e-05,5.999999999999999474e-05,-1.199999999999999895e-04,-4.000000000000000327e-05,4.000000000000000000e+00,6.000000000000000000e+00
1.791500000000000000e+04,-5.000000000000000240e-05,-6.999999999999999387e-05,-2.100000000000000087e-04,-1.000000000000000021e-03,-6.999999999999999387e-05,5.999999999999999474e-05,-1.199999999999999895e-04,-4.000000000000000327e-05,4.000000000000000000e+00,6.000000000000000000e+00
1.791600000000000000e+04,-5.000000000000000240e-05,-6.999999999999999387e-05,-2.100000000000000087e-04,-1.000000000000000021e-03,-6.999999999999999387e-05,5.999999999999999474e-05,-1.199999999999999895e-04,-4.000000000000000327e-05,4.000000000000000000e+00,6.000000000000000000e+00
1.791700000000000000e+04,-5.000000000000000240e-05,-6.999999999999999387e-05,-2.100000000000000087e-04,-1.000000000000000021e-03,-6.999999999999999387e-05,5.999999999999999474e-05,-1.199999999999999895e-04,-4.000000000000000327e-05,4.000000000000000000e+00,6.000000000000000000e+00
1.791800000000000000e+04,0.000000000000000000e+00,2.999999999999999737e-05,8.000000000000000654e-05,-2.200000000000000078e-04,-4.599999999999999597e-04,1.000000000000000048e-04,-1.000000000000000082e-05,-2.000000000000000164e-05,4.000000000000000000e+00,6.000000000000000000e+00
1.791900000000000000e+04,0.000000000000000000e+00,2.999999999999999737e-05,8.000000000000000654e-05,-2.200000000000000078e-04,-4.599999999999999597e-04,1.000000000000000048e-04,-1.000000000000000082e-05,-2.000000000000000164e-05,4.000000000000000000e+00,6.000000000000000000e+00
1.792000000000000000e+04,0.000000000000000000e+00,2.999999999999999737e-05,8.000000000000000654e-05,-2.200000000000000078e-04,-4.599999999999999597e-04,1.000000000000000048e-04,-1.000000000000000082e-05,-2.000000000000000164e-05,4.000000000000000000e+00,6.000000000000000000e+00
1.792100000000000000e+04,0.000000000000000000e+00,2.999999999999999737e-05,8.000000000000000654e-05,-2.200000000000000078e-04,-4.599999999999999597e-04,1.000000000000000048e-04,-1.000000000000000082e-05,-2.000000000000000164e-05,4.000000000000000000e+00,6.000000000000000000e+00
1.792200000000000000e+04,0.000000000000000000e+00,2.999999999999999737e-05,8.000000000000000654e-05,-2.200000000000000078e-04,-4.599999999999999597e-04,1.000000000000000048e-04,-1.000000000000000082e-05,-2.000000000000000164e-05,4.000000000000000000e+00,6.000000000000000000e+00
1.792300000000000000e+04,0.000000000000000000e+00,2.999999999999999737e-05,8.000000000000000654e-05,-2.200000000000000078e-04,-4.599999999999999597e-04,1.000000000000000048e-04,-1.000000000000000082e-05,-2.000000000000000164e-05,4.000000000000000000e+00,6.000000000000000000e+00
1.792400000000000000e+04,0.000000000000000000e+00,2.999999999999999737e-05,8.000000000000000654e-05,-2.200000000000000078e-04,-4.599999999999999597e-04,1.000000000000000048e-04,-1.000000000000000082e-05,-2.000000000000000164e-05,4.000000000000000000e+00,6.000000000000000000e+00
1.792500000000000000e+04,-4.000000000000000327e-05,-8.000000000000000654e-05,-4.000000000000000327e-05,4.400000000000000157e-04,3.200000000000000262e-04,2.299999999999999799e-04,4.000000000000000327e-05,-2.000000000000000164e-05,4.000000000000000000e+00,6.000000000000000000e+00
1.792600000000000000e+04,-4.000000000000000327e-05,-8.000000000000000654e-05,-4.000000000000000327e-05,4.400000000000000157e-04,3.200000000000000262e-04,2.299999999999999799e-04,4.000000000000000327e-05,-2.000000000000000164e-05,4.000000000000000000e+00,6.000000000000000000e+00
1.792700000000000000e+04,-4.000000000000000327e-05,-8.000000000000000654e-05,-4.000000000000000327e-05,4.400000000000000157e-04,3.200000000000000262e-04,2.299999999999999799e-04,4.000000000000000327e-05,-2.000000000000000164e-05,4.000000000000000000e+00,6.000000000000000000e+00
1.792800000000000000e+04,-4.000000000000000327e-05,-8.000000000000000654e-05,-4.000000000000000327e-05,4.400000000000000157e-04,3.200000000000000262e-04,2.299999999999999799e-04,4.000000000000000327e-05,-2.000000000000000164e-05,4.000000000000000000e+00,6.000000000000000000e+00
1.792900000000000000e+04,-4.000000000000000327e-05,-8.000000000000000654e-05,-4.000000000000000327e-05,4.400000000000000157e-04,3.200000000000000262e-04,2.299999999999999799e-04,4.000000000000000327e-05,-2.000000000000000164e-05,4.000000000000000000e+00,6.000000000000000000e+00
1.793000000000000000e+04,-4.000000000000000327e-05,-8.000000000000000654e-05,-4.000000000000000327e-05,4.400000000000000157e-04,3.200000000000000262e-04,2.299999999999999799e-04,4.000000000000000327e-05,-2.000000000000000164e-05,4.000000000000000000e+00,6.000000000000000000e+00
1.793100000000000000e+04,-4.000000000000000327e-05,-8.000000000000000654e-05,-4.000000000000000327e-05,4.400000000000000157e-04,3.200000000000000262e-04,2.299999999999999799e-04,4.000000000000000327e-05,-2.000000000000000164e-05,4.000000000000000000e+00,6.000000000000000000e+00
1.793200000000000000e+04,-4.000000000000000327e-05,-8.000000000000000654e-05,-4.000000000000000327e-05,4.400000000000000157e-04,3.200000000000000262e-04,2.299999999999999799e-04,4.000000000000000327e-05,-2.000000000000000164e-05,4.000000000000000000e+00,6.000000000000000000e+00
1.793300000000000000e+04,-1.000000000000000082e-05,-2.999999999999999737e-05,-1.300000000000000157e-04,-5.999999999999999474e-05,5.099999999999999282e-04,-5.000000000000000240e-05,-1.000000000000000082e-05,-1.000000000000000082e-05,4.000000000000000000e+00,6.000000000000000000e+00
1.793400000000000000e+04,-1.000000000000000082e-05,-2.999999999999999737e-05,-1.300000000000000157e-04,-5.999999999999999474e-05,5.099999999999999282e-04,-5.000000000000000240e-05,-1.000000000000000082e-05,-1.000000000000000082e-05,4.000000000000000000e+00,6.000000000000000000e+00
1.793500000000000000e+04,-1.000000000000000082e-05,-2.999999999999999737e-05,-1.300000000000000157e-04,-5.999999999999999474e-05,5.099999999999999282e-04,-5.000000000000000240e-05,-1.000000000000000082e-05,-1.000000000000000082e-05,4.000000000000000000e+00,6.000000000000000000e+00
1.793600000000000000e+04,-1.000000000000000082e-05,-2.999999999999999737e-05,-1.300000000000000157e-04,-5.999999999999999474e-05,5.099999999999999282e-04,-5.000000000000000240e-05,-1.000000000000000082e-05,-1.000000000000000082e-05,4.000000000000000000e+00,6.000000000000000000e+00
1.793800000000000000e+04,-1.000000000000000082e-05,-2.999999999999999737e-05,-1.300000000000000157e-04,-5.999999999999999474e-05,5.099999999999999282e-04,-5.000000000000000240e-05,-1.000000000000000082e-05,-1.000000000000000082e-05,4.000000000000000000e+00,6.000000000000000000e+00
1.793900000000000000e+04,-1.000000000000000082e-05,-2.999999999999999737e-05,-1.300000000000000157e-04,-5.999999999999999474e-05,5.099999999999999282e-04,-5.000000000000000240e-05,-1.000000000000000082e-05,-1.000000000000000082e-05,4.000000000000000000e+00,6.000000000000000000e+00
1.794000000000000000e+04,-1.000000000000000082e-05,-2.999999999999999737e-05,-1.300000000000000157e-04,-5.999999999999999474e-05,5.099999999999999282e-04,-5.000000000000000240e-05,-1.000000000000000082e-05,-1.000000000000000082e-05,4.000000000000000000e+00,6.000000000000000000e+00
1.794100000000000000e+04,-1.000000000000000082e-05,-2.999999999999999737e-05,-1.300000000000000157e-04,-5.999999999999999474e-05,5.099999999999999282e-04,-5.000000000000000240e-05,-1.000000000000000082e-05,-1.000000000000000082e-05,4.000000000000000000e+00,6.000000000000000000e+00
1.794200000000000000e+04,-1.000000000000000082e-05,-2.999999999999999737e-05,-1.300000000000000157e-04,-5.999999999999999474e-05,5.099999999999999282e-04,-5.000000000000000240e-05,-1.000000000000000082e-05,-1.000000000000000082e-05,4.000000000000000000e+00,6.000000000000000000e+00
1.794300000000000000e+04,-1.000000000000000082e-05,-2.999999999999999737e-05,-1.300000000000000157e-04,-5.999999999999999474e-05,5.099999999999999282e-04,-5.000000000000000240e-05,-1.000000000000000082e-05,-1.000000000000000082e-05,4.000000000000000000e+00,6.000000000000000000e+00
1.794400000000000000e+04,-1.000000000000000082e-05,-2.999999999999999737e-05,-1.300000000000000157e-04,-5.999999999999999474e-05,5.099999999999999282e-04,-5.000000000000000240e-05,-1.000000000000000082e-05,-1.000000000000000082e-05,4.000000000000000000e+00,6.000000000000000000e+00
1.794500000000000000e+04,-1.000000000000000082e-05,-2.999999999999999737e-05,-1.300000000000000157e-04,-5.999999999999999474e-05,5.099999999999999282e-04,-5.000000000000000240e-05,-1.000000000000000082e-05,-1.000000000000000082e-05,4.000000000000000000e+00,6.000000000000000000e+00
1.794600000000000000e+04,-1.000000000000000082e-05,-2.999999999999999737e-05,-1.300000000000000157e-04,-5.999999999999999474e-05,5.099999999999999282e-04,-5.000000000000000240e-05,-1.000000000000000082e-05,-1.000000000000000082e-05,4.000000000000000000e+00,6.000000000000000000e+00
1.794700000000000000e+04,1.499999999999999869e-04,5.000000000000000240e-05,-2.100000000000000087e-04,-4.899999999999999842e-04,-1.699999999999999851e-04,5.299999999999999807e-04,3.600000000000000227e-04,2.200000000000000078e-04,4.000000000000000000e+00,6.000000000000000000e+00
1.794800000000000000e+04,1.499999999999999869e-04,5.000000000000000240e-05,-2.100000000000000087e-04,-4.899999999999999842e-04,-1.699999999999999851e-04,5.299999999999999807e-04,3.600000000000000227e-04,2.200000000000000078e-04,4.000000000000000000e+00,6.000000000000000000e+00
1.794900000000000000e+04,1.499999999999999869e-04,5.000000000000000240e-05,-2.100000000000000087e-04,-4.899999999999999842e-04,-1.699999999999999851e-04,5.299999999999999807e-04,3.600000000000000227e-04,2.200000000000000078e-04,4.000000000000000000e+00,6.000000000000000000e+00
1.795000000000000000e+04,1.499999999999999869e-04,5.000000000000000240e-05,-2.100000000000000087e-04,-4.899999999999999842e-04,-1.699999999999999851e-04,5.299999999999999807e-04,3.600000000000000227e-04,2.200000000000000078e-04,4.000000000000000000e+00,6.000000000000000000e+00
1.795100000000000000e+04,1.499999999999999869e-04,5.000000000000000240e-05,-2.100000000000000087e-04,-4.899999999999999842e-04,-1.699999999999999851e-04,5.299999999999999807e-04,3.600000000000000227e-04,2.200000000000000078e-04,4.000000000000000000e+00,6.000000000000000000e+00
1.795200000000000000e+04,1.499999999999999869e-04,5.000000000000000240e-05,-2.100000000000000087e-04,-4.899999999999999842e-04,-1.699999999999999851e-04,5.299999999999999807e-04,3.600000000000000227e-04,2.200000000000000078e-04,4.000000000000000000e+00,6.000000000000000000e+00
1.795300000000000000e+04,1.499999999999999869e-04,5.000000000000000240e-05,-2.100000000000000087e-04,-4.899999999999999842e-04,-1.699999999999999851e-04,5.299999999999999807e-04,3.600000000000000227e-04,2.200000000000000078e-04,4.000000000000000000e+00,6.000000000000000000e+00
1.795400000000000000e+04,1.499999999999999869e-04,5.000000000000000240e-05,-2.100000000000000087e-04,-4.899999999999999842e-04,-1.699999999999999851e-04,5.299999999999999807e-04,3.600000000000000227e-04,2.200000000000000078e-04,4.000000000000000000e+00,6.000000000000000000e+00
1.795500000000000000e+04,1.399999999999999877e-04,2.100000000000000087e-04,-6.999999999999999387e-05,1.499999999999999869e-04,-5.599999999999999509e-04,0.000000000000000000e+00,1.699999999999999851e-04,1.600000000000000131e-04,4.000000000000000000e+00,6.000000000000000000e+00
1.795600000000000000e+04,2.999999999999999737e-05,2.299999999999999799e-04,5.299999999999999807e-04,2.000000000000000096e-04,-2.900000000000000017e-04,-2.000000000000000096e-04,-1.199999999999999895e-04,-2.999999999999999737e-05,4.000000000000000000e+00,6.000000000000000000e+00
1.795700000000000000e+04,2.999999999999999737e-05,2.299999999999999799e-04,5.299999999999999807e-04,2.000000000000000096e-04,-2.900000000000000017e-04,-2.000000000000000096e-04,-1.199999999999999895e-04,-2.999999999999999737e-05,4.000000000000000000e+00,6.000000000000000000e+00
1.795800000000000000e+04,2.999999999999999737e-05,2.299999999999999799e-04,5.299999999999999807e-04,2.000000000000000096e-04,-2.900000000000000017e-04,-2.000000000000000096e-04,-1.199999999999999895e-04,-2.999999999999999737e-05,4.000000000000000000e+00,6.000000000000000000e+00
1.795900000000000000e+04,2.999999999999999737e-05,2.299999999999999799e-04,5.299999999999999807e-04,2.000000000000000096e-04,-2.900000000000000017e-04,-2.000000000000000096e-04,-1.199999999999999895e-04,-2.999999999999999737e-05,4.000000000000000000e+00,6.000000000000000000e+00
1.796000000000000000e+04,2.999999999999999737e-05,2.299999999999999799e-04,5.299999999999999807e-04,2.000000000000000096e-04,-2.900000000000000017e-04,-2.000000000000000096e-04,-1.199999999999999895e-04,-2.999999999999999737e-05,4.000000000000000000e+00,6.000000000000000000e+00
1.796100000000000000e+04,2.999999999999999737e-05,2.299999999999999799e-04,5.299999999999999807e-04,2.000000000000000096e-04,-2.900000000000000017e-04,-2.000000000000000096e-04,-1.199999999999999895e-04,-2.999999999999999737e-05,4.000000000000000000e+00,6.000000000000000000e+00
1.796200000000000000e+04,2.999999999999999737e-05,2.299999999999999799e-04,5.299999999999999807e-04,2.000000000000000096e-04,-2.900000000000000017e-04,-2.000000000000000096e-04,-1.199999999999999895e-04,-2.999999999999999737e-05,4.000000000000000000e+00,6.000000000000000000e+00
1.796300000000000000e+04,2.999999999999999737e-05,2.299999999999999799e-04,5.299999999999999807e-04,2.000000000000000096e-04,-2.900000000000000017e-04,-2.000000000000000096e-04,-1.199999999999999895e-04,-2.999999999999999737e-05,4.000000000000000000e+00,6.000000000000000000e+00
1.796400000000000000e+04,2.999999999999999737e-05,2.299999999999999799e-04,5.299999999999999807e-04,2.000000000000000096e-04,-2.900000000000000017e-04,-2.000000000000000096e-04,-1.199999999999999895e-04,-2.999999999999999737e-05,4.000000000000000000e+00,6.000000000000000000e+00
1.796500000000000000e+04,2.999999999999999737e-05,2.299999999999999799e-04,5.299999999999999807e-04,2.000000000000000096e-04,-2.900000000000000017e-04,-2.000000000000000096e-04,-1.199999999999999895e-04,-2.999999999999999737e-05,4.000000000000000000e+00,6.000000000000000000e+00
1.796600000000000000e+04,2.999999999999999737e-05,2.299999999999999799e-04,5.299999999999999807e-04,2.000000000000000096e-04,-2.900000000000000017e-04,-2.000000000000000096e-04,-1.199999999999999895e-04,-2.999999999999999737e-05,4.000000000000000000e+00,6.000000000000000000e+00
1.796700000000000000e+04,2.999999999999999737e-05,2.299999999999999799e-04,5.299999999999999807e-04,2.000000000000000096e-04,-2.900000000000000017e-04,-2.000000000000000096e-04,-1.199999999999999895e-04,-2.999999999999999737e-05,4.000000000000000000e+00,6.000000000000000000e+00
1.796800000000000000e+04,2.999999999999999737e-05,2.299999999999999799e-04,5.299999999999999807e-04,2.000000000000000096e-04,-2.900000000000000017e-04,-2.000000000000000096e-04,-1.199999999999999895e-04,-2.999999999999999737e-05,4.000000000000000000e+00,6.000000000000000000e+00
1.796900000000000000e+04,2.999999999999999737e-05,2.299999999999999799e-04,5.299999999999999807e-04,2.000000000000000096e-04,-2.900000000000000017e-04,-2.000000000000000096e-04,-1.199999999999999895e-04,-2.999999999999999737e-05,4.000000000000000000e+00,6.000000000000000000e+00
1.797100000000000000e+04,2.999999999999999737e-05,2.299999999999999799e-04,5.299999999999999807e-04,2.000000000000000096e-04,-2.900000000000000017e-04,-2.000000000000000096e-04,-1.199999999999999895e-04,-2.999999999999999737e-05,4.000000000000000000e+00,6.000000000000000000e+00
1.797200000000000000e+04,1.000000000000000082e-05,1.100000000000000039e-04,1.899999999999999834e-04,1.699999999999999851e-04,2.299999999999999799e-04,2.000000000000000096e-04,1.000000000000000082e-05,-2.000000000000000164e-05,4.000000000000000000e+00,6.000000000000000000e+00
1.797300000000000000e+04,1.000000000000000082e-05,1.100000000000000039e-04,1.899999999999999834e-04,1.699999999999999851e-04,2.299999999999999799e-04,2.000000000000000096e-04,1.000000000000000082e-05,-2.000000000000000164e-05,4.000000000000000000e+00,6.000000000000000000e+00
1.797400000000000000e+04,1.000000000000000082e-05,1.100000000000000039e-04,1.899999999999999834e-04,1.699999999999999851e-04,2.299999999999999799e-04,2.000000000000000096e-04,1.000000000000000082e-05,-2.000000000000000164e-05,4.000000000000000000e+00,6.000000000000000000e+00
1.797500000000000000e+04,1.000000000000000082e-05,1.100000000000000039e-04,1.899999999999999834e-04,1.699999999999999851e-04,2.299999999999999799e-04,2.000000000000000096e-04,1.000000000000000082e-05,-2.000000000000000164e-05,4.000000000000000000e+00,6.000000000000000000e+00
1.797600000000000000e+04,1.000000000000000082e-05,1.100000000000000039e-04,1.899999999999999834e-04,1.699999999999999851e-04,2.299999999999999799e-04,2.000000000000000096e-04,1.000000000000000082e-05,-2.000000000000000164e-05,4.000000000000000000e+00,6.000000000000000000e+00
1.797700000000000000e+04,1.000000000000000082e-05,1.100000000000000039e-04,1.899999999999999834e-04,1.699999999999999851e-04,2.299999999999999799e-04,2.000000000000000096e-04,1.000000000000000082e-05,-2.000000000000000164e-05,4.000000000000000000e+00,6.000000000000000000e+00
1.797900000000000000e+04,1.000000000000000082e-05,1.100000000000000039e-04,1.899999999999999834e-04,1.699999999999999851e-04,2.299999999999999799e-04,2.000000000000000096e-04,1.000000000000000082e-05,-2.000000000000000164e-05,4.000000000000000000e+00,6.000000000000000000e+00
1.798000000000000000e+04,1.000000000000000082e-05,1.100000000000000039e-04,1.899999999999999834e-04,1.699999999999999851e-04,2.299999999999999799e-04,2.000000000000000096e-04,1.000000000000000082e-05,-2.000000000000000164e-05,4.000000000000000000e+00,6.000000000000000000e+00
1.798100000000000000e+04,1.000000000000000082e-05,1.100000000000000039e-04,1.899999999999999834e-04,1.699999999999999851e-04,2.299999999999999799e-04,2.000000000000000096e-04,1.000000000000000082e-05,-2.000000000000000164e-05,4.000000000000000000e+00,6.000000000000000000e+00
1.798200000000000000e+04,1.000000000000000082e-05,1.100000000000000039e-04,1.899999999999999834e-04,1.699999999999999851e-04,2.299999999999999799e-04,2.000000000000000096e-04,1.000000000000000082e-05,-2.000000000000000164e-05,4.000000000000000000e+00,6.000000000000000000e+00
1.798300000000000000e+04,1.000000000000000082e-05,1.100000000000000039e-04,1.899999999999999834e-04,1.699999999999999851e-04,2.299999999999999799e-04,2.000000000000000096e-04,1.000000000000000082e-05,-2.000000000000000164e-05,4.000000000000000000e+00,6.000000000000000000e+00
1.798400000000000000e+04,1.000000000000000082e-05,1.100000000000000039e-04,1.899999999999999834e-04,1.699999999999999851e-04,2.299999999999999799e-04,2.000000000000000096e-04,1.000000000000000082e-05,-2.000000000000000164e-05,4.000000000000000000e+00,6.000000000000000000e+00
1.798500000000000000e+04,1.300000000000000157e-04,2.900000000000000017e-04,5.099999999999999282e-04,3.299999999999999982e-04,2.299999999999999799e-04,4.899999999999999842e-04,2.100000000000000087e-04,1.199999999999999895e-04,4.000000000000000000e+00,6.000000000000000000e+00
1.798600000000000000e+04,1.300000000000000157e-04,2.900000000000000017e-04,5.099999999999999282e-04,3.299999999999999982e-04,2.299999999999999799e-04,4.899999999999999842e-04,2.100000000000000087e-04,1.199999999999999895e-04,4.000000000000000000e+00,6.000000000000000000e+00
1.798800000000000000e+04,1.300000000000000157e-04,2.900000000000000017e-04,5.099999999999999282e-04,3.299999999999999982e-04,2.299999999999999799e-04,4.899999999999999842e-04,2.100000000000000087e-04,1.199999999999999895e-04,4.000000000000000000e+00,6.000000000000000000e+00
1.798900000000000000e+04,1.300000000000000157e-04,2.900000000000000017e-04,5.099999999999999282e-04,3.299999999999999982e-04,2.299999999999999799e-04,4.899999999999999842e-04,2.100000000000000087e-04,1.199999999999999895e-04,4.000000000000000000e+00,6.000000000000000000e+00
1.799000000000000000e+04,1.300000000000000157e-04,2.900000000000000017e-04,5.099999999999999282e-04,3.299999999999999982e-04,2.299999999999999799e-04,4.899999999999999842e-04,2.100000000000000087e-04,1.199999999999999895e-04,4.000000000000000000e+00,6.000000000000000000e+00
1.799100000000000000e+04,1.300000000000000157e-04,2.900000000000000017e-04,5.099999999999999282e-04,3.299999999999999982e-04,2.299999999999999799e-04,4.899999999999999842e-04,2.100000000000000087e-04,1.199999999999999895e-04,4.000000000000000000e+00,6.000000000000000000e+00
1.799200000000000000e+04,1.300000000000000157e-04,2.900000000000000017e-04,5.099999999999999282e-04,3.299999999999999982e-04,2.299999999999999799e-04,4.899999999999999842e-04,2.100000000000000087e-04,1.199999999999999895e-04,4.000000000000000000e+00,6.000000000000000000e+00
1.799300000000000000e+04,-1.100000000000000039e-04,-1.899999999999999834e-04,-1.800000000000000113e-04,-1.600000000000000131e-04,-3.399999999999999702e-04,-3.099999999999999999e-04,-2.000000000000000164e-05,-1.000000000000000048e-04,4.000000000000000000e+00,6.000000000000000000e+00
1.799400000000000000e+04,-1.100000000000000039e-04,-1.899999999999999834e-04,-1.800000000000000113e-04,-1.600000000000000131e-04,-3.399999999999999702e-04,-3.099999999999999999e-04,-2.000000000000000164e-05,-1.000000000000000048e-04,4.000000000000000000e+00,6.000000000000000000e+00
1.799500000000000000e+04,-1.100000000000000039e-04,-1.899999999999999834e-04,-1.800000000000000113e-04,-1.600000000000000131e-04,-3.399999999999999702e-04,-3.099999999999999999e-04,-2.000000000000000164e-05,-1.000000000000000048e-04,4.000000000000000000e+00,6.000000000000000000e+00
1.799600000000000000e+04,-1.100000000000000039e-04,-1.899999999999999834e-04,-1.800000000000000113e-04,-1.600000000000000131e-04,-3.399999999999999702e-04,-3.099999999999999999e-04,-2.000000000000000164e-05,-1.000000000000000048e-04,4.000000000000000000e+00,6.000000000000000000e+00
