3.263900000000000000e+04,-1.000000000000000082e-05,0.000000000000000000e+00,0.000000000000000000e+00,1.000000000000000082e-05,0.000000000000000000e+00,1.000000000000000082e-05,1.000000000000000082e-05,-2.000000000000000164e-05,1.000000000000000000e+00,1.300000000000000000e+01
3.264000000000000000e+04,-1.000000000000000082e-05,0.000000000000000000e+00,0.000000000000000000e+00,1.000000000000000082e-05,0.000000000000000000e+00,1.000000000000000082e-05,1.000000000000000082e-05,-2.000000000000000164e-05,1.000000000000000000e+00,1.300000000000000000e+01
3.264100000000000000e+04,-1.000000000000000082e-05,0.000000000000000000e+00,0.000000000000000000e+00,1.000000000000000082e-05,0.000000000000000000e+00,1.000000000000000082e-05,1.000000000000000082e-05,-2.000000000000000164e-05,1.000000000000000000e+00,1.300000000000000000e+01
3.264200000000000000e+04,-1.000000000000000082e-05,0.000000000000000000e+00,0.000000000000000000e+00,1.000000000000000082e-05,0.000000000000000000e+00,1.000000000000000082e-05,1.000000000000000082e-05,-2.000000000000000164e-05,1.000000000000000000e+00,1.300000000000000000e+01
3.264300000000000000e+04,-2.999999999999999737e-05,-2.000000000000000164e-05,1.100000000000000039e-04,4.000000000000000327e-05,-2.999999999999999737e-05,-2.999999999999999737e-05,-1.000000000000000082e-05,0.000000000000000000e+00,1.000000000000000000e+00,1.300000000000000000e+01
3.264400000000000000e+04,-2.999999999999999737e-05,-2.000000000000000164e-05,1.100000000000000039e-04,4.000000000000000327e-05,-2.999999999999999737e-05,-2.999999999999999737e-05,-1.000000000000000082e-05,0.000000000000000000e+00,1.000000000000000000e+00,1.300000000000000000e+01
3.264500000000000000e+04,1.000000000000000082e-05,-2.000000000000000164e-05,2.000000000000000164e-05,-1.000000000000000082e-05,-2.999999999999999737e-05,0.000000000000000000e+00,0.000000000000000000e+00,-2.000000000000000164e-05,1.000000000000000000e+00,1.300000000000000000e+01
3.264600000000000000e+04,1.000000000000000082e-05,-2.000000000000000164e-05,2.000000000000000164e-05,-1.000000000000000082e-05,-2.999999999999999737e-05,0.000000000000000000e+00,0.000000000000000000e+00,-2.000000000000000164e-05,1.000000000000000000e+00,1.300000000000000000e+01
3.264700000000000000e+04,1.000000000000000082e-05,-2.000000000000000164e-05,2.000000000000000164e-05,-1.000000000000000082e-05,-2.999999999999999737e-05,0.000000000000000000e+00,0.000000000000000000e+00,-2.000000000000000164e-05,1.000000000000000000e+00,1.300000000000000000e+01
3.264800000000000000e+04,1.000000000000000082e-05,-2.000000000000000164e-05,2.000000000000000164e-05,-1.000000000000000082e-05,-2.999999999999999737e-05,0.000000000000000000e+00,0.000000000000000000e+00,-2.000000000000000164e-05,1.000000000000000000e+00,1.300000000000000000e+01
3.264900000000000000e+04,1.000000000000000082e-05,-2.000000000000000164e-05,2.000000000000000164e-05,-1.000000000000000082e-05,-2.999999999999999737e-05,0.000000000000000000e+00,0.000000000000000000e+00,-2.000000000000000164e-05,1.000000000000000000e+00,1.300000000000000000e+01
3.265000000000000000e+04,1.000000000000000082e-05,-2.000000000000000164e-05,2.000000000000000164e-05,-1.000000000000000082e-05,-2.999999999999999737e-05,0.000000000000000000e+00,0.000000000000000000e+00,-2.000000000000000164e-05,1.000000000000000000e+00,1.300000000000000000e+01
3.265100000000000000e+04,1.000000000000000082e-05,-2.000000000000000164e-05,2.000000000000000164e-05,-1.000000000000000082e-05,-2.999999999999999737e-05,0.000000000000000000e+00,0.000000000000000000e+00,-2.000000000000000164e-05,1.000000000000000000e+00,1.300000000000000000e+01
3.265200000000000000e+04,1.000000000000000082e-05,-2.000000000000000164e-05,2.000000000000000164e-05,-1.000000000000000082e-05,-2.999999999999999737e-05,0.000000000000000000e+00,0.000000000000000000e+00,-2.000000000000000164e-05,1.000000000000000000e+00,1.300000000000000000e+01
3.265300000000000000e+04,1.000000000000000082e-05,-2.000000000000000164e-05,2.000000000000000164e-05,-1.000000000000000082e-05,-2.999999999999999737e-05,0.000000000000000000e+00,0.000000000000000000e+00,-2.000000000000000164e-05,1.000000000000000000e+00,1.300000000000000000e+01
3.265400000000000000e+04,1.000000000000000082e-05,-2.000000000000000164e-05,2.000000000000000164e-05,-1.000000000000000082e-05,-2.999999999999999737e-05,0.000000000000000000e+00,0.000000000000000000e+00,-2.000000000000000164e-05,1.000000000000000000e+00,1.300000000000000000e+01
3.265500000000000000e+04,1.000000000000000082e-05,-2.000000000000000164e-05,2.000000000000000164e-05,-1.000000000000000082e-05,-2.999999999999999737e-05,0.000000000000000000e+00,0.000000000000000000e+00,-2.000000000000000164e-05,1.000000000000000000e+00,1.300000000000000000e+01
3.265600000000000000e+04,1.000000000000000082e-05,-2.000000000000000164e-05,2.000000000000000164e-05,-1.000000000000000082e-05,-2.999999999999999737e-05,0.000000000000000000e+00,0.000000000000000000e+00,-2.000000000000000164e-05,1.000000000000000000e+00,1.300000000000000000e+01
3.265700000000000000e+04,1.000000000000000082e-05,-2.000000000000000164e-05,2.000000000000000164e-05,-1.000000000000000082e-05,-2.999999999999999737e-05,0.000000000000000000e+00,0.000000000000000000e+00,-2.000000000000000164e-05,1.000000000000000000e+00,1.300000000000000000e+01
3.265800000000000000e+04,1.000000000000000082e-05,-2.000000000000000164e-05,2.000000000000000164e-05,-1.000000000000000082e-05,-2.999999999999999737e-05,0.000000000000000000e+00,0.000000000000000000e+00,-2.000000000000000164e-05,1.000000000000000000e+00,1.300000000000000000e+01
3.265900000000000000e+04,1.000000000000000082e-05,-2.000000000000000164e-05,2.000000000000000164e-05,-1.000000000000000082e-05,-2.999999999999999737e-05,0.000000000000000000e+00,0.000000000000000000e+00,-2.000000000000000164e-05,1.000000000000000000e+00,1.300000000000000000e+01
3.266000000000000000e+04,1.000000000000000082e-05,-2.000000000000000164e-05,2.000000000000000164e-05,-1.000000000000000082e-05,-2.999999999999999737e-05,0.000000000000000000e+00,0.000000000000000000e+00,-2.000000000000000164e-05,1.000000000000000000e+00,1.300000000000000000e+01
3.266100000000000000e+04,1.000000000000000082e-05,-2.000000000000000164e-05,2.000000000000000164e-05,-1.000000000000000082e-05,-2.999999999999999737e-05,0.000000000000000000e+00,0.000000000000000000e+00,-2.000000000000000164e-05,1.000000000000000000e+00,1.300000000000000000e+01
3.266200000000000000e+04,1.000000000000000082e-05,-2.000000000000000164e-05,2.000000000000000164e-05,-1.000000000000000082e-05,-2.999999999999999737e-05,0.000000000000000000e+00,0.000000000000000000e+00,-2.000000000000000164e-05,1.000000000000000000e+00,1.300000000000000000e+01
3.266300000000000000e+04,1.000000000000000082e-05,-2.000000000000000164e-05,2.000000000000000164e-05,-1.000000000000000082e-05,-2.999999999999999737e-05,0.000000000000000000e+00,0.000000000000000000e+00,-2.000000000000000164e-05,1.000000000000000000e+00,1.300000000000000000e+01
3.266400000000000000e+04,1.000000000000000082e-05,-2.000000000000000164e-05,2.000000000000000164e-05,-1.000000000000000082e-05,-2.999999999999999737e-05,0.000000000000000000e+00,0.000000000000000000e+00,-2.000000000000000164e-05,1.000000000000000000e+00,1.300000000000000000e+01
3.266500000000000000e+04,1.000000000000000082e-05,-2.000000000000000164e-05,2.000000000000000164e-05,-1.000000000000000082e-05,-2.999999999999999737e-05,0.000000000000000000e+00,0.000000000000000000e+00,-2.000000000000000164e-05,1.000000000000000000e+00,1.300000000000000000e+01
3.266600000000000000e+04,-2.000000000000000164e-05,1.000000000000000082e-05,1.000000000000000082e-05,-1.000000000000000082e-05,0.000000000000000000e+00,-1.000000000000000082e-05,0.000000000000000000e+00,-2.999999999999999737e-05,1.000000000000000000e+00,1.300000000000000000e+01
3.266700000000000000e+04,-2.000000000000000164e-05,1.000000000000000082e-05,1.000000000000000082e-05,-1.000000000000000082e-05,0.000000000000000000e+00,-1.000000000000000082e-05,0.000000000000000000e+00,-2.999999999999999737e-05,1.000000000000000000e+00,1.300000000000000000e+01
3.266800000000000000e+04,0.000000000000000000e+00,2.000000000000000164e-05,0.000000000000000000e+00,0.000000000000000000e+00,0.000000000000000000e+00,2.000000000000000164e-05,1.000000000000000082e-05,-2.000000000000000164e-05,1.000000000000000000e+00,1.300000000000000000e+01
3.266900000000000000e+04,0.000000000000000000e+00,2.000000000000000164e-05,0.000000000000000000e+00,0.000000000000000000e+00,0.000000000000000000e+00,2.000000000000000164e-05,1.000000000000000082e-05,-2.000000000000000164e-05,1.000000000000000000e+00,1.300000000000000000e+01
3.267000000000000000e+04,0.000000000000000000e+00,2.000000000000000164e-05,0.000000000000000000e+00,0.000000000000000000e+00,0.000000000000000000e+00,2.000000000000000164e-05,1.000000000000000082e-05,-2.000000000000000164e-05,1.000000000000000000e+00,1.300000000000000000e+01
3.267100000000000000e+04,0.000000000000000000e+00,2.000000000000000164e-05,0.000000000000000000e+00,0.000000000000000000e+00,0.000000000000000000e+00,2.000000000000000164e-05,1.000000000000000082e-05,-2.000000000000000164e-05,1.000000000000000000e+00,1.300000000000000000e+01
3.267200000000000000e+04,0.000000000000000000e+00,2.000000000000000164e-05,0.000000000000000000e+00,0.000000000000000000e+00,0.000000000000000000e+00,2.000000000000000164e-05,1.000000000000000082e-05,-2.000000000000000164e-05,1.000000000000000000e+00,1.300000000000000000e+01
3.267300000000000000e+04,0.000000000000000000e+00,2.000000000000000164e-05,0.000000000000000000e+00,0.000000000000000000e+00,0.000000000000000000e+00,2.000000000000000164e-05,1.000000000000000082e-05,-2.000000000000000164e-05,1.000000000000000000e+00,1.300000000000000000e+01
3.267400000000000000e+04,0.000000000000000000e+00,2.000000000000000164e-05,0.000000000000000000e+00,0.000000000000000000e+00,0.000000000000000000e+00,2.000000000000000164e-05,1.000000000000000082e-05,-2.000000000000000164e-05,1.000000000000000000e+00,1.300000000000000000e+01
3.267500000000000000e+04,0.000000000000000000e+00,2.000000000000000164e-05,0.000000000000000000e+00,0.000000000000000000e+00,0.000000000000000000e+00,2.000000000000000164e-05,1.000000000000000082e-05,-2.000000000000000164e-05,1.000000000000000000e+00,1.300000000000000000e+01
3.267600000000000000e+04,0.000000000000000000e+00,2.000000000000000164e-05,0.000000000000000000e+00,0.000000000000000000e+00,0.000000000000000000e+00,2.000000000000000164e-05,1.000000000000000082e-05,-2.000000000000000164e-05,1.000000000000000000e+00,1.300000000000000000e+01
3.267700000000000000e+04,0.000000000000000000e+00,2.000000000000000164e-05,0.000000000000000000e+00,0.000000000000000000e+00,0.000000000000000000e+00,2.000000000000000164e-05,1.000000000000000082e-05,-2.000000000000000164e-05,1.000000000000000000e+00,1.300000000000000000e+01
3.267800000000000000e+04,0.000000000000000000e+00,2.000000000000000164e-05,0.000000000000000000e+00,0.000000000000000000e+00,0.000000000000000000e+00,2.000000000000000164e-05,1.000000000000000082e-05,-2.000000000000000164e-05,1.000000000000000000e+00,1.300000000000000000e+01
3.267900000000000000e+04,0.000000000000000000e+00,2.000000000000000164e-05,0.000000000000000000e+00,0.000000000000000000e+00,0.000000000000000000e+00,2.000000000000000164e-05,1.000000000000000082e-05,-2.000000000000000164e-05,1.000000000000000000e+00,1.300000000000000000e+01
3.268000000000000000e+04,0.000000000000000000e+00,2.000000000000000164e-05,0.000000000000000000e+00,0.000000000000000000e+00,0.000000000000000000e+00,2.000000000000000164e-05,1.000000000000000082e-05,-2.000000000000000164e-05,1.000000000000000000e+00,1.300000000000000000e+01
3.268100000000000000e+04,0.000000000000000000e+00,2.000000000000000164e-05,0.000000000000000000e+00,0.000000000000000000e+00,0.000000000000000000e+00,2.000000000000000164e-05,1.000000000000000082e-05,-2.000000000000000164e-05,1.000000000000000000e+00,1.300000000000000000e+01
3.268200000000000000e+04,0.000000000000000000e+00,2.000000000000000164e-05,0.000000000000000000e+00,0.000000000000000000e+00,0.000000000000000000e+00,2.000000000000000164e-05,1.000000000000000082e-05,-2.000000000000000164e-05,1.000000000000000000e+00,1.300000000000000000e+01
3.268300000000000000e+04,0.000000000000000000e+00,2.000000000000000164e-05,0.000000000000000000e+00,0.000000000000000000e+00,0.000000000000000000e+00,2.000000000000000164e-05,1.000000000000000082e-05,-2.000000000000000164e-05,1.000000000000000000e+00,1.300000000000000000e+01
3.268400000000000000e+04,0.000000000000000000e+00,2.000000000000000164e-05,0.000000000000000000e+00,0.000000000000000000e+00,0.000000000000000000e+00,2.000000000000000164e-05,1.000000000000000082e-05,-2.000000000000000164e-05,1.000000000000000000e+00,1.300000000000000000e+01
3.268500000000000000e+04,0.000000000000000000e+00,2.000000000000000164e-05,0.000000000000000000e+00,0.000000000000000000e+00,0.000000000000000000e+00,2.000000000000000164e-05,1.000000000000000082e-05,-2.000000000000000164e-05,1.000000000000000000e+00,1.300000000000000000e+01
3.268600000000000000e+04,0.000000000000000000e+00,2.000000000000000164e-05,0.000000000000000000e+00,0.000000000000000000e+00,0.000000000000000000e+00,2.000000000000000164e-05,1.000000000000000082e-05,-2.000000000000000164e-05,1.000000000000000000e+00,1.300000000000000000e+01
3.268900000000000000e+04,-2.999999999999999737e-05,1.000000000000000082e-05,0.000000000000000000e+00,2.000000000000000164e-05,1.000000000000000082e-05,4.000000000000000327e-05,2.000000000000000164e-05,-1.000000000000000082e-05,1.000000000000000000e+00,1.300000000000000000e+01
3.269000000000000000e+04,-2.999999999999999737e-05,1.000000000000000082e-05,0.000000000000000000e+00,2.000000000000000164e-05,1.000000000000000082e-05,4.000000000000000327e-05,2.000000000000000164e-05,-1.000000000000000082e-05,1.000000000000000000e+00,1.300000000000000000e+01
3.269100000000000000e+04,-2.999999999999999737e-05,1.000000000000000082e-05,0.000000000000000000e+00,2.000000000000000164e-05,1.000000000000000082e-05,4.000000000000000327e-05,2.000000000000000164e-05,-1.000000000000000082e-05,1.000000000000000000e+00,1.300000000000000000e+01
3.269200000000000000e+04,-2.999999999999999737e-05,1.000000000000000082e-05,0.000000000000000000e+00,2.000000000000000164e-05,1.000000000000000082e-05,4.000000000000000327e-05,2.000000000000000164e-05,-1.000000000000000082e-05,1.000000000000000000e+00,1.300000000000000000e+01
3.269300000000000000e+04,-2.999999999999999737e-05,1.000000000000000082e-05,0.000000000000000000e+00,2.000000000000000164e-05,1.000000000000000082e-05,4.000000000000000327e-05,2.000000000000000164e-05,-1.000000000000000082e-05,1.000000000000000000e+00,1.300000000000000000e+01
3.269400000000000000e+04,-2.999999999999999737e-05,1.000000000000000082e-05,0.000000000000000000e+00,2.000000000000000164e-05,1.000000000000000082e-05,4.000000000000000327e-05,2.000000000000000164e-05,-1.000000000000000082e-05,1.000000000000000000e+00,1.300000000000000000e+01
3.269500000000000000e+04,-2.999999999999999737e-05,1.000000000000000082e-05,0.000000000000000000e+00,2.000000000000000164e-05,1.000000000000000082e-05,4.000000000000000327e-05,2.000000000000000164e-05,-1.000000000000000082e-05,1.000000000000000000e+00,1.300000000000000000e+01
3.269600000000000000e+04,-2.999999999999999737e-05,1.000000000000000082e-05,0.000000000000000000e+00,2.000000000000000164e-05,1.000000000000000082e-05,4.000000000000000327e-05,2.000000000000000164e-05,-1.000000000000000082e-05,1.000000000000000000e+00,1.300000000000000000e+01
3.269700000000000000e+04,-2.999999999999999737e-05,1.000000000000000082e-05,0.000000000000000000e+00,2.000000000000000164e-05,1.000000000000000082e-05,4.000000000000000327e-05,2.000000000000000164e-05,-1.000000000000000082e-05,1.000000000000000000e+00,1.300000000000000000e+01
3.269800000000000000e+04,-2.999999999999999737e-05,1.000000000000000082e-05,0.000000000000000000e+00,2.000000000000000164e-05,1.000000000000000082e-05,4.000000000000000327e-05,2.000000000000000164e-05,-1.000000000000000082e-05,1.000000000000000000e+00,1.300000000000000000e+01
3.269900000000000000e+04,-2.999999999999999737e-05,1.000000000000000082e-05,0.000000000000000000e+00,2.000000000000000164e-05,1.000000000000000082e-05,4.000000000000000327e-05,2.000000000000000164e-05,-1.000000000000000082e-05,1.000000000000000000e+00,1.300000000000000000e+01
3.270000000000000000e+04,-2.999999999999999737e-05,1.000000000000000082e-05,0.000000000000000000e+00,2.000000000000000164e-05,1.000000000000000082e-05,4.000000000000000327e-05,2.000000000000000164e-05,-1.000000000000000082e-05,1.000000000000000000e+00,1.300000000000000000e+01
3.270100000000000000e+04,-2.999999999999999737e-05,1.000000000000000082e-05,0.000000000000000000e+00,2.000000000000000164e-05,1.000000000000000082e-05,4.000000000000000327e-05,2.000000000000000164e-05,-1.000000000000000082e-05,1.000000000000000000e+00,1.300000000000000000e+01
3.270200000000000000e+04,-2.999999999999999737e-05,1.000000000000000082e-05,0.000000000000000000e+00,2.000000000000000164e-05,1.000000000000000082e-05,4.000000000000000327e-05,2.000000000000000164e-05,-1.000000000000000082e-05,1.000000000000000000e+00,1.300000000000000000e+01
3.270300000000000000e+04,-2.999999999999999737e-05,1.000000000000000082e-05,0.000000000000000000e+00,2.000000000000000164e-05,1.000000000000000082e-05,4.000000000000000327e-05,2.000000000000000164e-05,-1.000000000000000082e-05,1.000000000000000000e+00,1.300000000000000000e+01
3.270400000000000000e+04,-2.999999999999999737e-05,1.000000000000000082e-05,0.000000000000000000e+00,2.000000000000000164e-05,1.000000000000000082e-05,4.000000000000000327e-05,2.000000000000000164e-05,-1.000000000000000082e-05,1.000000000000000000e+00,1.300000000000000000e+01
3.270500000000000000e+04,-2.999999999999999737e-05,1.000000000000000082e-05,0.000000000000000000e+00,2.000000000000000164e-05,1.000000000000000082e-05,4.000000000000000327e-05,2.000000000000000164e-05,-1.000000000000000082e-05,1.000000000000000000e+00,1.300000000000000000e+01
3.270600000000000000e+04,-2.999999999999999737e-05,1.000000000000000082e-05,0.000000000000000000e+00,2.000000000000000164e-05,1.000000000000000082e-05,4.000000000000000327e-05,2.000000000000000164e-05,-1.000000000000000082e-05,1.000000000000000000e+00,1.300000000000000000e+01
3.270700000000000000e+04,-2.999999999999999737e-05,1.000000000000000082e-05,0.000000000000000000e+00,2.000000000000000164e-05,1.000000000000000082e-05,4.000000000000000327e-05,2.000000000000000164e-05,-1.000000000000000082e-05,1.000000000000000000e+00,1.300000000000000000e+01
3.270800000000000000e+04,-2.999999999999999737e-05,1.000000000000000082e-05,0.000000000000000000e+00,2.000000000000000164e-05,1.000000000000000082e-05,4.000000000000000327e-05,2.000000000000000164e-05,-1.000000000000000082e-05,1.000000000000000000e+00,1.300000000000000000e+01
3.270900000000000000e+04,-2.999999999999999737e-05,1.000000000000000082e-05,0.000000000000000000e+00,2.000000000000000164e-05,1.000000000000000082e-05,4.000000000000000327e-05,2.000000000000000164e-05,-1.000000000000000082e-05,1.000000000000000000e+00,1.300000000000000000e+01
3.271000000000000000e+04,-2.999999999999999737e-05,1.000000000000000082e-05,0.000000000000000000e+00,2.000000000000000164e-05,1.000000000000000082e-05,4.000000000000000327e-05,2.000000000000000164e-05,-1.000000000000000082e-05,1.000000000000000000e+00,1.300000000000000000e+01
3.271100000000000000e+04,-1.000000000000000082e-05,-4.000000000000000327e-05,-1.199999999999999895e-04,-1.000000000000000048e-04,-4.000000000000000327e-05,-2.999999999999999737e-05,0.000000000000000000e+00,0.000000000000000000e+00,1.000000000000000000e+00,1.300000000000000000e+01
3.271200000000000000e+04,0.000000000000000000e+00,-2.000000000000000164e-05,-6.999999999999999387e-05,-4.000000000000000327e-05,-2.000000000000000164e-05,-2.999999999999999737e-05,0.000000000000000000e+00,-1.000000000000000082e-05,1.000000000000000000e+00,1.300000000000000000e+01
3.271300000000000000e+04,0.000000000000000000e+00,-2.000000000000000164e-05,-6.999999999999999387e-05,-4.000000000000000327e-05,-2.000000000000000164e-05,-2.999999999999999737e-05,0.000000000000000000e+00,-1.000000000000000082e-05,1.000000000000000000e+00,1.300000000000000000e+01
3.271400000000000000e+04,0.000000000000000000e+00,-2.000000000000000164e-05,-6.999999999999999387e-05,-4.000000000000000327e-05,-2.000000000000000164e-05,-2.999999999999999737e-05,0.000000000000000000e+00,-1.000000000000000082e-05,1.000000000000000000e+00,1.300000000000000000e+01
3.271500000000000000e+04,0.000000000000000000e+00,-2.000000000000000164e-05,-6.999999999999999387e-05,-4.000000000000000327e-05,-2.000000000000000164e-05,-2.999999999999999737e-05,0.000000000000000000e+00,-1.000000000000000082e-05,1.000000000000000000e+00,1.300000000000000000e+01
3.271600000000000000e+04,0.000000000000000000e+00,-2.000000000000000164e-05,-6.999999999999999387e-05,-4.000000000000000327e-05,-2.000000000000000164e-05,-2.999999999999999737e-05,0.000000000000000000e+00,-1.000000000000000082e-05,1.000000000000000000e+00,1.300000000000000000e+01
3.271700000000000000e+04,0.000000000000000000e+00,-2.000000000000000164e-05,-6.999999999999999387e-05,-4.000000000000000327e-05,-2.000000000000000164e-05,-2.999999999999999737e-05,0.000000000000000000e+00,-1.000000000000000082e-05,1.000000000000000000e+00,1.300000000000000000e+01
3.271800000000000000e+04,0.000000000000000000e+00,-2.000000000000000164e-05,-6.999999999999999387e-05,-4.000000000000000327e-05,-2.000000000000000164e-05,-2.999999999999999737e-05,0.000000000000000000e+00,-1.000000000000000082e-05,1.000000000000000000e+00,1.300000000000000000e+01
3.271900000000000000e+04,0.000000000000000000e+00,-2.000000000000000164e-05,-6.999999999999999387e-05,-4.000000000000000327e-05,-2.000000000000000164e-05,-2.999999999999999737e-05,0.000000000000000000e+00,-1.000000000000000082e-05,1.000000000000000000e+00,1.300000000000000000e+01
3.272000000000000000e+04,0.000000000000000000e+00,-2.000000000000000164e-05,-6.999999999999999387e-05,-4.000000000000000327e-05,-2.000000000000000164e-05,-2.999999999999999737e-05,0.000000000000000000e+00,-1.000000000000000082e-05,1.000000000000000000e+00,1.300000000000000000e+01
3.272100000000000000e+04,0.000000000000000000e+00,-2.000000000000000164e-05,-6.999999999999999387e-05,-4.000000000000000327e-05,-2.000000000000000164e-05,-2.999999999999999737e-05,0.000000000000000000e+00,-1.000000000000000082e-05,1.000000000000000000e+00,1.300000000000000000e+01
3.272200000000000000e+04,0.000000000000000000e+00,-2.000000000000000164e-05,-6.999999999999999387e-05,-4.000000000000000327e-05,-2.000000000000000164e-05,-2.999999999999999737e-05,0.000000000000000000e+00,-1.000000000000000082e-05,1.000000000000000000e+00,1.300000000000000000e+01
3.272300000000000000e+04,0.000000000000000000e+00,-2.000000000000000164e-05,-6.999999999999999387e-05,-4.000000000000000327e-05,-2.000000000000000164e-05,-2.999999999999999737e-05,0.000000000000000000e+00,-1.000000000000000082e-05,1.000000000000000000e+00,1.300000000000000000e+01
3.272400000000000000e+04,0.000000000000000000e+00,-2.000000000000000164e-05,-6.999999999999999387e-05,-4.000000000000000327e-05,-2.000000000000000164e-05,-2.999999999999999737e-05,0.000000000000000000e+00,-1.000000000000000082e-05,1.000000000000000000e+00,1.300000000000000000e+01
3.272500000000000000e+04,-2.000000000000000164e-05,-1.000000000000000082e-05,4.000000000000000327e-05,1.000000000000000082e-05,1.000000000000000082e-05,1.000000000000000082e-05,-1.000000000000000082e-05,0.000000000000000000e+00,1.000000000000000000e+00,1.300000000000000000e+01
3.272600000000000000e+04,-1.000000000000000082e-05,-2.999999999999999737e-05,2.999999999999999737e-05,-2.000000000000000164e-05,0.000000000000000000e+00,-1.000000000000000082e-05,-2.000000000000000164e-05,2.000000000000000164e-05,1.000000000000000000e+00,1.300000000000000000e+01
3.272700000000000000e+04,-1.000000000000000082e-05,-2.999999999999999737e-05,2.999999999999999737e-05,-2.000000000000000164e-05,0.000000000000000000e+00,-1.000000000000000082e-05,-2.000000000000000164e-05,2.000000000000000164e-05,1.000000000000000000e+00,1.300000000000000000e+01
3.272800000000000000e+04,-1.000000000000000082e-05,-2.999999999999999737e-05,2.999999999999999737e-05,-2.000000000000000164e-05,0.000000000000000000e+00,-1.000000000000000082e-05,-2.000000000000000164e-05,2.000000000000000164e-05,1.000000000000000000e+00,1.300000000000000000e+01
3.272900000000000000e+04,-1.000000000000000082e-05,-2.999999999999999737e-05,2.999999999999999737e-05,-2.000000000000000164e-05,0.000000000000000000e+00,-1.000000000000000082e-05,-2.000000000000000164e-05,2.000000000000000164e-05,1.000000000000000000e+00,1.300000000000000000e+01
3.273000000000000000e+04,-1.000000000000000082e-05,-2.999999999999999737e-05,2.999999999999999737e-05,-2.000000000000000164e-05,0.000000000000000000e+00,-1.000000000000000082e-05,-2.000000000000000164e-05,2.000000000000000164e-05,1.000000000000000000e+00,1.300000000000000000e+01
3.273100000000000000e+04,-1.000000000000000082e-05,-2.999999999999999737e-05,2.999999999999999737e-05,-2.000000000000000164e-05,0.000000000000000000e+00,-1.000000000000000082e-05,-2.000000000000000164e-05,2.000000000000000164e-05,1.000000000000000000e+00,1.300000000000000000e+01
3.273200000000000000e+04,-1.000000000000000082e-05,-2.999999999999999737e-05,2.999999999999999737e-05,-2.000000000000000164e-05,0.000000000000000000e+00,-1.000000000000000082e-05,-2.000000000000000164e-05,2.000000000000000164e-05,1.000000000000000000e+00,1.300000000000000000e+01
3.273300000000000000e+04,-1.000000000000000082e-05,-2.999999999999999737e-05,2.999999999999999737e-05,-2.000000000000000164e-05,0.000000000000000000e+00,-1.000000000000000082e-05,-2.000000000000000164e-05,2.000000000000000164e-05,1.000000000000000000e+00,1.300000000000000000e+01
3.273400000000000000e+04,-1.000000000000000082e-05,-2.999999999999999737e-05,2.999999999999999737e-05,-2.000000000000000164e-05,0.000000000000000000e+00,-1.000000000000000082e-05,-2.000000000000000164e-05,2.000000000000000164e-05,1.000000000000000000e+00,1.300000000000000000e+01
3.273500000000000000e+04,-1.000000000000000082e-05,-2.999999999999999737e-05,2.999999999999999737e-05,-2.000000000000000164e-05,0.000000000000000000e+00,-1.000000000000000082e-05,-2.000000000000000164e-05,2.000000000000000164e-05,1.000000000000000000e+00,1.300000000000000000e+01
3.273600000000000000e+04,-1.000000000000000082e-05,-2.999999999999999737e-05,2.999999999999999737e-05,-2.000000000000000164e-05,0.000000000000000000e+00,-1.000000000000000082e-05,-2.000000000000000164e-05,2.000000000000000164e-05,1.000000000000000000e+00,1.300000000000000000e+01
3.273800000000000000e+04,-1.000000000000000082e-05,-2.999999999999999737e-05,2.999999999999999737e-05,-2.000000000000000164e-05,0.000000000000000000e+00,-1.000000000000000082e-05,-2.000000000000000164e-05,2.000000000000000164e-05,1.000000000000000000e+00,1.300000000000000000e+01
3.273900000000000000e+04,-1.000000000000000082e-05,-2.999999999999999737e-05,2.999999999999999737e-05,-2.000000000000000164e-05,0.000000000000000000e+00,-1.000000000000000082e-05,-2.000000000000000164e-05,2.000000000000000164e-05,1.000000000000000000e+00,1.300000000000000000e+01
3.274000000000000000e+04,-1.000000000000000082e-05,-2.999999999999999737e-05,2.999999999999999737e-05,-2.000000000000000164e-05,0.000000000000000000e+00,-1.000000000000000082e-05,-2.000000000000000164e-05,2.000000000000000164e-05,1.000000000000000000e+00,1.300000000000000000e+01
3.274100000000000000e+04,-1.000000000000000082e-05,-2.999999999999999737e-05,2.999999999999999737e-05,-2.000000000000000164e-05,0.000000000000000000e+00,-1.000000000000000082e-05,-2.000000000000000164e-05,2.000000000000000164e-05,1.000000000000000000e+00,1.300000000000000000e+01
3.274200000000000000e+04,-1.000000000000000082e-05,-2.999999999999999737e-05,2.999999999999999737e-05,-2.000000000000000164e-05,0.000000000000000000e+00,-1.000000000000000082e-05,-2.000000000000000164e-05,2.000000000000000164e-05,1.000000000000000000e+00,1.300000000000000000e+01
3.274300000000000000e+04,-1.000000000000000082e-05,-2.999999999999999737e-05,2.999999999999999737e-05,-2.000000000000000164e-05,0.000000000000000000e+00,-1.000000000000000082e-05,-2.000000000000000164e-05,2.000000000000000164e-05,1.000000000000000000e+00,1.300000000000000000e+01
3.274400000000000000e+04,-1.000000000000000082e-05,-2.999999999999999737e-05,2.999999999999999737e-05,-2.000000000000000164e-05,0.000000000000000000e+00,-1.000000000000000082e-05,-2.000000000000000164e-05,2.000000000000000164e-05,1.000000000000000000e+00,1.300000000000000000e+01
3.274500000000000000e+04,-1.000000000000000082e-05,-2.999999999999999737e-05,2.999999999999999737e-05,-2.000000000000000164e-05,0.000000000000000000e+00,-1.000000000000000082e-05,-2.000000000000000164e-05,2.000000000000000164e-05,1.000000000000000000e+00,1.300000000000000000e+01
3.274600000000000000e+04,-1.000000000000000082e-05,-2.999999999999999737e-05,2.999999999999999737e-05,-2.000000000000000164e-05,0.000000000000000000e+00,-1.000000000000000082e-05,-2.000000000000000164e-05,2.000000000000000164e-05,1.000000000000000000e+00,1.300000000000000000e+01
3.274700000000000000e+04,-1.000000000000000082e-05,-2.999999999999999737e-05,2.999999999999999737e-05,-2.000000000000000164e-05,0.000000000000000000e+00,-1.000000000000000082e-05,-2.000000000000000164e-05,2.000000000000000164e-05,1.000000000000000000e+00,1.300000000000000000e+01
3.274800000000000000e+04,2.000000000000000164e-05,2.999999999999999737e-05,1.600000000000000131e-04,5.000000000000000240e-05,-1.000000000000000082e-05,1.000000000000000082e-05,1.000000000000000082e-05,-1.000000000000000082e-05,1.000000000000000000e+00,1.300000000000000000e+01
3.274900000000000000e+04,-2.000000000000000164e-05,-1.000000000000000082e-05,-1.199999999999999895e-04,-6.999999999999999387e-05,1.000000000000000082e-05,0.000000000000000000e+00,1.000000000000000082e-05,-1.000000000000000082e-05,1.000000000000000000e+00,1.300000000000000000e+01
3.275000000000000000e+04,-2.000000000000000164e-05,-1.000000000000000082e-05,-1.199999999999999895e-04,-6.999999999999999387e-05,1.000000000000000082e-05,0.000000000000000000e+00,1.000000000000000082e-05,-1.000000000000000082e-05,1.000000000000000000e+00,1.300000000000000000e+01
3.275100000000000000e+04,-2.000000000000000164e-05,-1.000000000000000082e-05,-1.199999999999999895e-04,-6.999999999999999387e-05,1.000000000000000082e-05,0.000000000000000000e+00,1.000000000000000082e-05,-1.000000000000000082e-05,1.000000000000000000e+00,1.300000000000000000e+01
3.275200000000000000e+04,-2.000000000000000164e-05,-1.000000000000000082e-05,-1.199999999999999895e-04,-6.999999999999999387e-05,1.000000000000000082e-05,0.000000000000000000e+00,1.000000000000000082e-05,-1.000000000000000082e-05,1.000000000000000000e+00,1.300000000000000000e+01
3.275300000000000000e+04,-2.000000000000000164e-05,-1.000000000000000082e-05,-1.199999999999999895e-04,-6.999999999999999387e-05,1.000000000000000082e-05,0.000000000000000000e+00,1.000000000000000082e-05,-1.000000000000000082e-05,1.000000000000000000e+00,1.300000000000000000e+01
3.275400000000000000e+04,-2.000000000000000164e-05,-1.000000000000000082e-05,-1.199999999999999895e-04,-6.999999999999999387e-05,1.000000000000000082e-05,0.000000000000000000e+00,1.000000000000000082e-05,-1.000000000000000082e-05,1.000000000000000000e+00,1.300000000000000000e+01
3.275500000000000000e+04,-2.000000000000000164e-05,-1.000000000000000082e-05,-1.199999999999999895e-04,-6.999999999999999387e-05,1.000000000000000082e-05,0.000000000000000000e+00,1.000000000000000082e-05,-1.000000000000000082e-05,1.000000000000000000e+00,1.300000000000000000e+01
3.275600000000000000e+04,-2.000000000000000164e-05,-1.000000000000000082e-05,-1.199999999999999895e-04,-6.999999999999999387e-05,1.000000000000000082e-05,0.000000000000000000e+00,1.000000000000000082e-05,-1.000000000000000082e-05,1.000000000000000000e+00,1.300000000000000000e+01
3.275700000000000000e+04,-2.000000000000000164e-05,-1.000000000000000082e-05,-1.199999999999999895e-04,-6.999999999999999387e-05,1.000000000000000082e-05,0.000000000000000000e+00,1.000000000000000082e-05,-1.000000000000000082e-05,1.000000000000000000e+00,1.300000000000000000e+01
3.275800000000000000e+04,-2.000000000000000164e-05,-1.000000000000000082e-05,-1.199999999999999895e-04,-6.999999999999999387e-05,1.000000000000000082e-05,0.000000000000000000e+00,1.000000000000000082e-05,-1.000000000000000082e-05,1.000000000000000000e+00,1.300000000000000000e+01
3.275900000000000000e+04,-2.000000000000000164e-05,-1.000000000000000082e-05,-1.199999999999999895e-04,-6.999999999999999387e-05,1.000000000000000082e-05,0.000000000000000000e+00,1.000000000000000082e-05,-1.000000000000000082e-05,1.000000000000000000e+00,1.300000000000000000e+01
3.276000000000000000e+04,-2.000000000000000164e-05,-1.000000000000000082e-05,-1.199999999999999895e-04,-6.999999999999999387e-05,1.000000000000000082e-05,0.000000000000000000e+00,1.000000000000000082e-05,-1.000000000000000082e-05,1.000000000000000000e+00,1.300000000000000000e+01
3.276100000000000000e+04,-2.000000000000000164e-05,-1.000000000000000082e-05,-1.199999999999999895e-04,-6.999999999999999387e-05,1.000000000000000082e-05,0.000000000000000000e+00,1.000000000000000082e-05,-1.000000000000000082e-05,1.000000000000000000e+00,1.300000000000000000e+01
3.276200000000000000e+04,-2.000000000000000164e-05,-1.000000000000000082e-05,-1.199999999999999895e-04,-6.999999999999999387e-05,1.000000000000000082e-05,0.000000000000000000e+00,1.000000000000000082e-05,-1.000000000000000082e-05,1.000000000000000000e+00,1.300000000000000000e+01
3.276300000000000000e+04,-2.000000000000000164e-05,-1.000000000000000082e-05,-1.199999999999999895e-04,-6.999999999999999387e-05,1.000000000000000082e-05,0.000000000000000000e+00,1.000000000000000082e-05,-1.000000000000000082e-05,1.000000000000000000e+00,1.300000000000000000e+01
3.276400000000000000e+04,-2.000000000000000164e-05,-1.000000000000000082e-05,-2.999999999999999737e-05,2.000000000000000164e-05,-1.000000000000000082e-05,-2.999999999999999737e-05,0.000000000000000000e+00,-1.000000000000000082e-05,1.000000000000000000e+00,1.300000000000000000e+01
3.276500000000000000e+04,-2.000000000000000164e-05,-1.000000000000000082e-05,0.000000000000000000e+00,-1.000000000000000082e-05,-4.000000000000000327e-05,-2.999999999999999737e-05,-2.999999999999999737e-05,-2.000000000000000164e-05,1.000000000000000000e+00,1.300000000000000000e+01
3.276600000000000000e+04,-2.000000000000000164e-05,-1.000000000000000082e-05,0.000000000000000000e+00,-1.000000000000000082e-05,-4.000000000000000327e-05,-2.999999999999999737e-05,-2.999999999999999737e-05,-2.000000000000000164e-05,1.000000000000000000e+00,1.300000000000000000e+01
3.276700000000000000e+04,-2.000000000000000164e-05,-1.000000000000000082e-05,0.000000000000000000e+00,-1.000000000000000082e-05,-4.000000000000000327e-05,-2.999999999999999737e-05,-2.999999999999999737e-05,-2.000000000000000164e-05,1.000000000000000000e+00,1.300000000000000000e+01
3.276800000000000000e+04,-2.000000000000000164e-05,-1.000000000000000082e-05,0.000000000000000000e+00,-1.000000000000000082e-05,-4.000000000000000327e-05,-2.999999999999999737e-05,-2.999999999999999737e-05,-2.000000000000000164e-05,1.000000000000000000e+00,1.300000000000000000e+01
3.276900000000000000e+04,-2.000000000000000164e-05,-1.000000000000000082e-05,0.000000000000000000e+00,-1.000000000000000082e-05,-4.000000000000000327e-05,-2.999999999999999737e-05,-2.999999999999999737e-05,-2.000000000000000164e-05,1.000000000000000000e+00,1.300000000000000000e+01
3.277000000000000000e+04,-2.000000000000000164e-05,-1.000000000000000082e-05,0.000000000000000000e+00,-1.000000000000000082e-05,-4.000000000000000327e-05,-2.999999999999999737e-05,-2.999999999999999737e-05,-2.000000000000000164e-05,1.000000000000000000e+00,1.300000000000000000e+01
3.277100000000000000e+04,-2.000000000000000164e-05,-1.000000000000000082e-05,0.000000000000000000e+00,-1.000000000000000082e-05,-4.000000000000000327e-05,-2.999999999999999737e-05,-2.999999999999999737e-05,-2.000000000000000164e-05,1.000000000000000000e+00,1.300000000000000000e+01
3.277200000000000000e+04,-2.000000000000000164e-05,-1.000000000000000082e-05,0.000000000000000000e+00,-1.000000000000000082e-05,-4.000000000000000327e-05,-2.999999999999999737e-05,-2.999999999999999737e-05,-2.000000000000000164e-05,1.000000000000000000e+00,1.300000000000000000e+01
3.277300000000000000e+04,-2.000000000000000164e-05,-1.000000000000000082e-05,0.000000000000000000e+00,-1.000000000000000082e-05,-4.000000000000000327e-05,-2.999999999999999737e-05,-2.999999999999999737e-05,-2.000000000000000164e-05,1.000000000000000000e+00,1.300000000000000000e+01
3.277400000000000000e+04,-2.000000000000000164e-05,-1.000000000000000082e-05,0.000000000000000000e+00,-1.000000000000000082e-05,-4.000000000000000327e-05,-2.999999999999999737e-05,-2.999999999999999737e-05,-2.000000000000000164e-05,1.000000000000000000e+00,1.300000000000000000e+01
3.277500000000000000e+04,-2.000000000000000164e-05,-1.000000000000000082e-05,0.000000000000000000e+00,-1.000000000000000082e-05,-4.000000000000000327e-05,-2.999999999999999737e-05,-2.999999999999999737e-05,-2.000000000000000164e-05,1.000000000000000000e+00,1.300000000000000000e+01
3.277600000000000000e+04,-2.000000000000000164e-05,-1.000000000000000082e-05,0.000000000000000000e+00,-1.000000000000000082e-05,-4.000000000000000327e-05,-2.999999999999999737e-05,-2.999999999999999737e-05,-2.000000000000000164e-05,1.000000000000000000e+00,1.300000000000000000e+01
3.277700000000000000e+04,-2.000000000000000164e-05,-1.000000000000000082e-05,0.000000000000000000e+00,-1.000000000000000082e-05,-4.000000000000000327e-05,-2.999999999999999737e-05,-2.999999999999999737e-05,-2.000000000000000164e-05,1.000000000000000000e+00,1.300000000000000000e+01
3.277800000000000000e+04,-2.000000000000000164e-05,-1.000000000000000082e-05,0.000000000000000000e+00,-1.000000000000000082e-05,-4.000000000000000327e-05,-2.999999999999999737e-05,-2.999999999999999737e-05,-2.000000000000000164e-05,1.000000000000000000e+00,1.300000000000000000e+01
3.277900000000000000e+04,-2.000000000000000164e-05,-1.000000000000000082e-05,0.000000000000000000e+00,-1.000000000000000082e-05,-4.000000000000000327e-05,-2.999999999999999737e-05,-2.999999999999999737e-05,-2.000000000000000164e-05,1.000000000000000000e+00,1.300000000000000000e+01
3.278000000000000000e+04,-2.000000000000000164e-05,-1.000000000000000082e-05,0.000000000000000000e+00,-1.000000000000000082e-05,-4.000000000000000327e-05,-2.999999999999999737e-05,-2.999999999999999737e-05,-2.000000000000000164e-05,1.000000000000000000e+00,1.300000000000000000e+01
3.278100000000000000e+04,-2.000000000000000164e-05,-1.000000000000000082e-05,0.000000000000000000e+00,-1.000000000000000082e-05,-4.000000000000000327e-05,-2.999999999999999737e-05,-2.999999999999999737e-05,-2.000000000000000164e-05,1.000000000000000000e+00,1.300000000000000000e+01
3.278200000000000000e+04,-2.000000000000000164e-05,-1.000000000000000082e-05,0.000000000000000000e+00,-1.000000000000000082e-05,-4.000000000000000327e-05,-2.999999999999999737e-05,-2.999999999999999737e-05,-2.000000000000000164e-05,1.000000000000000000e+00,1.300000000000000000e+01
3.278300000000000000e+04,-2.000000000000000164e-05,-1.000000000000000082e-05,0.000000000000000000e+00,-1.000000000000000082e-05,-4.000000000000000327e-05,-2.999999999999999737e-05,-2.999999999999999737e-05,-2.000000000000000164e-05,1.000000000000000000e+00,1.300000000000000000e+01
3.278400000000000000e+04,-2.000000000000000164e-05,-1.000000000000000082e-05,0.000000000000000000e+00,-1.000000000000000082e-05,-4.000000000000000327e-05,-2.999999999999999737e-05,-2.999999999999999737e-05,-2.000000000000000164e-05,1.000000000000000000e+00,1.300000000000000000e+01
3.278500000000000000e+04,0.000000000000000000e+00,-2.000000000000000164e-05,1.000000000000000082e-05,2.000000000000000164e-05,1.000000000000000082e-05,2.999999999999999737e-05,-1.000000000000000082e-05,-1.000000000000000082e-05,1.000000000000000000e+00,1.300000000000000000e+01
3.278600000000000000e+04,-1.000000000000000082e-05,-2.000000000000000164e-05,-1.699999999999999851e-04,-5.999999999999999474e-05,-2.999999999999999737e-05,-1.000000000000000082e-05,-2.999999999999999737e-05,-1.000000000000000082e-05,1.000000000000000000e+00,1.300000000000000000e+01
3.278800000000000000e+04,-1.000000000000000082e-05,-2.000000000000000164e-05,-1.699999999999999851e-04,-5.999999999999999474e-05,-2.999999999999999737e-05,-1.000000000000000082e-05,-2.999999999999999737e-05,-1.000000000000000082e-05,1.000000000000000000e+00,1.300000000000000000e+01
3.278900000000000000e+04,-1.000000000000000082e-05,-2.000000000000000164e-05,-1.699999999999999851e-04,-5.999999999999999474e-05,-2.999999999999999737e-05,-1.000000000000000082e-05,-2.999999999999999737e-05,-1.000000000000000082e-05,1.000000000000000000e+00,1.300000000000000000e+01
3.279000000000000000e+04,-1.000000000000000082e-05,-2.000000000000000164e-05,-1.699999999999999851e-04,-5.999999999999999474e-05,-2.999999999999999737e-05,-1.000000000000000082e-05,-2.999999999999999737e-05,-1.000000000000000082e-05,1.000000000000000000e+00,1.300000000000000000e+01
3.279100000000000000e+04,-1.000000000000000082e-05,-2.000000000000000164e-05,-1.699999999999999851e-04,-5.999999999999999474e-05,-2.999999999999999737e-05,-1.000000000000000082e-05,-2.999999999999999737e-05,-1.000000000000000082e-05,1.000000000000000000e+00,1.300000000000000000e+01
3.279200000000000000e+04,-1.000000000000000082e-05,-2.000000000000000164e-05,-1.699999999999999851e-04,-5.999999999999999474e-05,-2.999999999999999737e-05,-1.000000000000000082e-05,-2.999999999999999737e-05,-1.000000000000000082e-05,1.000000000000000000e+00,1.300000000000000000e+01
3.279300000000000000e+04,-1.000000000000000082e-05,-2.000000000000000164e-05,-1.699999999999999851e-04,-5.999999999999999474e-05,-2.999999999999999737e-05,-1.000000000000000082e-05,-2.999999999999999737e-05,-1.000000000000000082e-05,1.000000000000000000e+00,1.300000000000000000e+01
3.279400000000000000e+04,-1.000000000000000082e-05,-2.000000000000000164e-05,-1.699999999999999851e-04,-5.999999999999999474e-05,-2.999999999999999737e-05,-1.000000000000000082e-05,-2.999999999999999737e-05,-1.000000000000000082e-05,1.000000000000000000e+00,1.300000000000000000e+01
3.279500000000000000e+04,-1.000000000000000082e-05,-2.000000000000000164e-05,-1.699999999999999851e-04,-5.999999999999999474e-05,-2.999999999999999737e-05,-1.000000000000000082e-05,-2.999999999999999737e-05,-1.000000000000000082e-05,1.000000000000000000e+00,1.300000000000000000e+01
3.279600000000000000e+04,-1.000000000000000082e-05,-2.000000000000000164e-05,-1.699999999999999851e-04,-5.999999999999999474e-05,-2.999999999999999737e-05,-1.000000000000000082e-05,-2.999999999999999737e-05,-1.000000000000000082e-05,1.000000000000000000e+00,1.300000000000000000e+01
3.279700000000000000e+04,-1.000000000000000082e-05,-2.000000000000000164e-05,-1.699999999999999851e-04,-5.999999999999999474e-05,-2.999999999999999737e-05,-1.000000000000000082e-05,-2.999999999999999737e-05,-1.000000000000000082e-05,1.000000000000000000e+00,1.300000000000000000e+01
3.279800000000000000e+04,-1.000000000000000082e-05,-2.000000000000000164e-05,-1.699999999999999851e-04,-5.999999999999999474e-05,-2.999999999999999737e-05,-1.000000000000000082e-05,-2.999999999999999737e-05,-1.000000000000000082e-05,1.000000000000000000e+00,1.300000000000000000e+01
3.279900000000000000e+04,-1.000000000000000082e-05,-2.000000000000000164e-05,-1.699999999999999851e-04,-5.999999999999999474e-05,-2.999999999999999737e-05,-1.000000000000000082e-05,-2.999999999999999737e-05,-1.000000000000000082e-05,1.000000000000000000e+00,1.300000000000000000e+01
3.280000000000000000e+04,-1.000000000000000082e-05,-2.000000000000000164e-05,-1.699999999999999851e-04,-5.999999999999999474e-05,-2.999999999999999737e-05,-1.000000000000000082e-05,-2.999999999999999737e-05,-1.000000000000000082e-05,1.000000000000000000e+00,1.300000000000000000e+01
3.280100000000000000e+04,-1.000000000000000082e-05,-2.000000000000000164e-05,-1.699999999999999851e-04,-5.999999999999999474e-05,-2.999999999999999737e-05,-1.000000000000000082e-05,-2.999999999999999737e-05,-1.000000000000000082e-05,1.000000000000000000e+00,1.300000000000000000e+01
3.280200000000000000e+04,-1.000000000000000082e-05,-2.000000000000000164e-05,-1.699999999999999851e-04,-5.999999999999999474e-05,-2.999999999999999737e-05,-1.000000000000000082e-05,-2.999999999999999737e-05,-1.000000000000000082e-05,1.000000000000000000e+00,1.300000000000000000e+01
3.280300000000000000e+04,-1.000000000000000082e-05,-2.000000000000000164e-05,-1.699999999999999851e-04,-5.999999999999999474e-05,-2.999999999999999737e-05,-1.000000000000000082e-05,-2.999999999999999737e-05,-1.000000000000000082e-05,1.000000000000000000e+00,1.300000000000000000e+01
3.280400000000000000e+04,-1.000000000000000082e-05,-2.000000000000000164e-05,-1.699999999999999851e-04,-5.999999999999999474e-05,-2.999999999999999737e-05,-1.000000000000000082e-05,-2.999999999999999737e-05,-1.000000000000000082e-05,1.000000000000000000e+00,1.300000000000000000e+01
3.280500000000000000e+04,-1.000000000000000082e-05,-2.000000000000000164e-05,-1.699999999999999851e-04,-5.999999999999999474e-05,-2.999999999999999737e-05,-1.000000000000000082e-05,-2.999999999999999737e-05,-1.000000000000000082e-05,1.000000000000000000e+00,1.300000000000000000e+01
3.280600000000000000e+04,-1.000000000000000082e-05,-2.000000000000000164e-05,-1.699999999999999851e-04,-5.999999999999999474e-05,-2.999999999999999737e-05,-1.000000000000000082e-05,-2.999999999999999737e-05,-1.000000000000000082e-05,1.000000000000000000e+00,1.300000000000000000e+01
3.280700000000000000e+04,-1.000000000000000082e-05,-2.000000000000000164e-05,-1.699999999999999851e-04,-5.999999999999999474e-05,-2.999999999999999737e-05,-1.000000000000000082e-05,-2.999999999999999737e-05,-1.000000000000000082e-05,1.000000000000000000e+00,1.300000000000000000e+01
3.280800000000000000e+04,0.000000000000000000e+00,0.000000000000000000e+00,1.100000000000000039e-04,5.999999999999999474e-05,2.000000000000000164e-05,0.000000000000000000e+00,-1.000000000000000082e-05,-1.000000000000000082e-05,1.000000000000000000e+00,1.300000000000000000e+01
3.280900000000000000e+04,0.000000000000000000e+00,0.000000000000000000e+00,1.100000000000000039e-04,5.999999999999999474e-05,2.000000000000000164e-05,0.000000000000000000e+00,-1.000000000000000082e-05,-1.000000000000000082e-05,1.000000000000000000e+00,1.300000000000000000e+01
3.281000000000000000e+04,0.000000000000000000e+00,0.000000000000000000e+00,1.100000000000000039e-04,5.999999999999999474e-05,2.000000000000000164e-05,0.000000000000000000e+00,-1.000000000000000082e-05,-1.000000000000000082e-05,1.000000000000000000e+00,1.300000000000000000e+01
3.281100000000000000e+04,0.000000000000000000e+00,0.000000000000000000e+00,1.100000000000000039e-04,5.999999999999999474e-05,2.000000000000000164e-05,0.000000000000000000e+00,-1.000000000000000082e-05,-1.000000000000000082e-05,1.000000000000000000e+00,1.300000000000000000e+01
3.281200000000000000e+04,0.000000000000000000e+00,0.000000000000000000e+00,1.100000000000000039e-04,5.999999999999999474e-05,2.000000000000000164e-05,0.000000000000000000e+00,-1.000000000000000082e-05,-1.000000000000000082e-05,1.000000000000000000e+00,1.300000000000000000e+01
3.281300000000000000e+04,0.000000000000000000e+00,0.000000000000000000e+00,1.100000000000000039e-04,5.999999999999999474e-05,2.000000000000000164e-05,0.000000000000000000e+00,-1.000000000000000082e-05,-1.000000000000000082e-05,1.000000000000000000e+00,1.300000000000000000e+01
3.281400000000000000e+04,0.000000000000000000e+00,0.000000000000000000e+00,1.100000000000000039e-04,5.999999999999999474e-05,2.000000000000000164e-05,0.000000000000000000e+00,-1.000000000000000082e-05,-1.000000000000000082e-05,1.000000000000000000e+00,1.300000000000000000e+01
3.281500000000000000e+04,0.000000000000000000e+00,0.000000000000000000e+00,1.100000000000000039e-04,5.999999999999999474e-05,2.000000000000000164e-05,0.000000000000000000e+00,-1.000000000000000082e-05,-1.000000000000000082e-05,1.000000000000000000e+00,1.300000000000000000e+01
3.281600000000000000e+04,0.000000000000000000e+00,0.000000000000000000e+00,1.100000000000000039e-04,5.999999999999999474e-05,2.000000000000000164e-05,0.000000000000000000e+00,-1.000000000000000082e-05,-1.000000000000000082e-05,1.000000000000000000e+00,1.300000000000000000e+01
3.281700000000000000e+04,0.000000000000000000e+00,0.000000000000000000e+00,1.100000000000000039e-04,5.999999999999999474e-05,2.000000000000000164e-05,0.000000000000000000e+00,-1.000000000000000082e-05,-1.000000000000000082e-05,1.000000000000000000e+00,1.300000000000000000e+01
3.281800000000000000e+04,0.000000000000000000e+00,0.000000000000000000e+00,1.100000000000000039e-04,5.999999999999999474e-05,2.000000000000000164e-05,0.000000000000000000e+00,-1.000000000000000082e-05,-1.000000000000000082e-05,1.000000000000000000e+00,1.300000000000000000e+01
3.281900000000000000e+04,0.000000000000000000e+00,0.000000000000000000e+00,1.100000000000000039e-04,5.999999999999999474e-05,2.000000000000000164e-05,0.000000000000000000e+00,-1.000000000000000082e-05,-1.000000000000000082e-05,1.000000000000000000e+00,1.300000000000000000e+01
3.282000000000000000e+04,0.000000000000000000e+00,0.000000000000000000e+00,1.100000000000000039e-04,5.999999999999999474e-05,2.000000000000000164e-05,0.000000000000000000e+00,-1.000000000000000082e-05,-1.000000000000000082e-05,1.000000000000000000e+00,1.300000000000000000e+01
3.282100000000000000e+04,0.000000000000000000e+00,0.000000000000000000e+00,1.100000000000000039e-04,5.999999999999999474e-05,2.000000000000000164e-05,0.000000000000000000e+00,-1.000000000000000082e-05,-1.000000000000000082e-05,1.000000000000000000e+00,1.300000000000000000e+01
3.282200000000000000e+04,0.000000000000000000e+00,0.000000000000000000e+00,1.100000000000000039e-04,5.999999999999999474e-05,2.000000000000000164e-05,0.000000000000000000e+00,-1.000000000000000082e-05,-1.000000000000000082e-05,1.000000000000000000e+00,1.300000000000000000e+01
3.282300000000000000e+04,0.000000000000000000e+00,-1.000000000000000082e-05,-4.000000000000000327e-05,-2.000000000000000164e-05,0.000000000000000000e+00,-1.000000000000000082e-05,0.000000000000000000e+00,-1.000000000000000082e-05,1.000000000000000000e+00,1.300000000000000000e+01
3.282400000000000000e+04,0.000000000000000000e+00,1.000000000000000082e-05,6.999999999999999387e-05,2.000000000000000164e-05,-2.999999999999999737e-05,-1.000000000000000082e-05,-2.000000000000000164e-05,-1.000000000000000082e-05,1.000000000000000000e+00,1.300000000000000000e+01
3.282500000000000000e+04,0.000000000000000000e+00,1.000000000000000082e-05,6.999999999999999387e-05,2.000000000000000164e-05,-2.999999999999999737e-05,-1.000000000000000082e-05,-2.000000000000000164e-05,-1.000000000000000082e-05,1.000000000000000000e+00,1.300000000000000000e+01
3.282600000000000000e+04,0.000000000000000000e+00,1.000000000000000082e-05,6.999999999999999387e-05,2.000000000000000164e-05,-2.999999999999999737e-05,-1.000000000000000082e-05,-2.000000000000000164e-05,-1.000000000000000082e-05,1.000000000000000000e+00,1.300000000000000000e+01
3.282700000000000000e+04,0.000000000000000000e+00,1.000000000000000082e-05,6.999999999999999387e-05,2.000000000000000164e-05,-2.999999999999999737e-05,-1.000000000000000082e-05,-2.000000000000000164e-05,-1.000000000000000082e-05,1.000000000000000000e+00,1.300000000000000000e+01
3.282800000000000000e+04,0.000000000000000000e+00,1.000000000000000082e-05,6.999999999999999387e-05,2.000000000000000164e-05,-2.999999999999999737e-05,-1.000000000000000082e-05,-2.000000000000000164e-05,-1.000000000000000082e-05,1.000000000000000000e+00,1.300000000000000000e+01
3.282900000000000000e+04,0.000000000000000000e+00,1.000000000000000082e-05,6.999999999999999387e-05,2.000000000000000164e-05,-2.999999999999999737e-05,-1.000000000000000082e-05,-2.000000000000000164e-05,-1.000000000000000082e-05,1.000000000000000000e+00,1.300000000000000000e+01
3.283000000000000000e+04,0.000000000000000000e+00,1.000000000000000082e-05,6.999999999999999387e-05,2.000000000000000164e-05,-2.999999999999999737e-05,-1.000000000000000082e-05,-2.000000000000000164e-05,-1.000000000000000082e-05,1.000000000000000000e+00,1.300000000000000000e+01
3.283100000000000000e+04,0.000000000000000000e+00,1.000000000000000082e-05,6.999999999999999387e-05,2.000000000000000164e-05,-2.999999999999999737e-05,-1.000000000000000082e-05,-2.000000000000000164e-05,-1.000000000000000082e-05,1.000000000000000000e+00,1.300000000000000000e+01
3.283200000000000000e+04,0.000000000000000000e+00,1.000000000000000082e-05,6.999999999999999387e-05,2.000000000000000164e-05,-2.999999999999999737e-05,-1.000000000000000082e-05,-2.000000000000000164e-05,-1.000000000000000082e-05,1.000000000000000000e+00,1.300000000000000000e+01
3.283300000000000000e+04,0.000000000000000000e+00,1.000000000000000082e-05,6.999999999999999387e-05,2.000000000000000164e-05,-2.999999999999999737e-05,-1.000000000000000082e-05,-2.000000000000000164e-05,-1.000000000000000082e-05,1.000000000000000000e+00,1.300000000000000000e+01
3.283400000000000000e+04,0.000000000000000000e+00,1.000000000000000082e-05,6.999999999999999387e-05,2.000000000000000164e-05,-2.999999999999999737e-05,-1.000000000000000082e-05,-2.000000000000000164e-05,-1.000000000000000082e-05,1.000000000000000000e+00,1.300000000000000000e+01
3.283500000000000000e+04,0.000000000000000000e+00,1.000000000000000082e-05,6.999999999999999387e-05,2.000000000000000164e-05,-2.999999999999999737e-05,-1.000000000000000082e-05,-2.000000000000000164e-05,-1.000000000000000082e-05,1.000000000000000000e+00,1.300000000000000000e+01
3.283600000000000000e+04,0.000000000000000000e+00,1.000000000000000082e-05,6.999999999999999387e-05,2.000000000000000164e-05,-2.999999999999999737e-05,-1.000000000000000082e-05,-2.000000000000000164e-05,-1.000000000000000082e-05,1.000000000000000000e+00,1.300000000000000000e+01
3.283800000000000000e+04,0.000000000000000000e+00,1.000000000000000082e-05,6.999999999999999387e-05,2.000000000000000164e-05,-2.999999999999999737e-05,-1.000000000000000082e-05,-2.000000000000000164e-05,-1.000000000000000082e-05,1.000000000000000000e+00,1.300000000000000000e+01
3.283900000000000000e+04,0.000000000000000000e+00,1.000000000000000082e-05,6.999999999999999387e-05,2.000000000000000164e-05,-2.999999999999999737e-05,-1.000000000000000082e-05,-2.000000000000000164e-05,-1.000000000000000082e-05,1.000000000000000000e+00,1.300000000000000000e+01
3.284000000000000000e+04,0.000000000000000000e+00,1.000000000000000082e-05,6.999999999999999387e-05,2.000000000000000164e-05,-2.999999999999999737e-05,-1.000000000000000082e-05,-2.000000000000000164e-05,-1.000000000000000082e-05,1.000000000000000000e+00,1.300000000000000000e+01
3.284100000000000000e+04,0.000000000000000000e+00,1.000000000000000082e-05,6.999999999999999387e-05,2.000000000000000164e-05,-2.999999999999999737e-05,-1.000000000000000082e-05,-2.000000000000000164e-05,-1.000000000000000082e-05,1.000000000000000000e+00,1.300000000000000000e+01
3.284200000000000000e+04,0.000000000000000000e+00,1.000000000000000082e-05,6.999999999999999387e-05,2.000000000000000164e-05,-2.999999999999999737e-05,-1.000000000000000082e-05,-2.000000000000000164e-05,-1.000000000000000082e-05,1.000000000000000000e+00,1.300000000000000000e+01
3.284300000000000000e+04,0.000000000000000000e+00,1.000000000000000082e-05,6.999999999999999387e-05,2.000000000000000164e-05,-2.999999999999999737e-05,-1.000000000000000082e-05,-2.000000000000000164e-05,-1.000000000000000082e-05,1.000000000000000000e+00,1.300000000000000000e+01
3.284400000000000000e+04,0.000000000000000000e+00,1.000000000000000082e-05,6.999999999999999387e-05,2.000000000000000164e-05,-2.999999999999999737e-05,-1.000000000000000082e-05,-2.000000000000000164e-05,-1.000000000000000082e-05,1.000000000000000000e+00,1.300000000000000000e+01
3.284500000000000000e+04,-1.000000000000000082e-05,-2.999999999999999737e-05,-6.999999999999999387e-05,-8.000000000000000654e-05,-2.999999999999999737e-05,-5.000000000000000240e-05,2.000000000000000164e-05,-1.000000000000000082e-05,1.000000000000000000e+00,1.300000000000000000e+01
3.284600000000000000e+04,-1.000000000000000082e-05,-2.999999999999999737e-05,-1.000000000000000082e-05,-2.000000000000000164e-05,-2.000000000000000164e-05,-2.999999999999999737e-05,-1.000000000000000082e-05,0.000000000000000000e+00,1.000000000000000000e+00,1.300000000000000000e+01
3.284700000000000000e+04,-1.000000000000000082e-05,-2.999999999999999737e-05,-1.000000000000000082e-05,-2.000000000000000164e-05,-2.000000000000000164e-05,-2.999999999999999737e-05,-1.000000000000000082e-05,0.000000000000000000e+00,1.000000000000000000e+00,1.300000000000000000e+01
3.284800000000000000e+04,-1.000000000000000082e-05,-2.999999999999999737e-05,-1.000000000000000082e-05,-2.000000000000000164e-05,-2.000000000000000164e-05,-2.999999999999999737e-05,-1.000000000000000082e-05,0.000000000000000000e+00,1.000000000000000000e+00,1.300000000000000000e+01
3.284900000000000000e+04,-1.000000000000000082e-05,-2.999999999999999737e-05,-1.000000000000000082e-05,-2.000000000000000164e-05,-2.000000000000000164e-05,-2.999999999999999737e-05,-1.000000000000000082e-05,0.000000000000000000e+00,1.000000000000000000e+00,1.300000000000000000e+01
3.285000000000000000e+04,-1.000000000000000082e-05,-2.999999999999999737e-05,-1.000000000000000082e-05,-2.000000000000000164e-05,-2.000000000000000164e-05,-2.999999999999999737e-05,-1.000000000000000082e-05,0.000000000000000000e+00,1.000000000000000000e+00,1.300000000000000000e+01
3.285100000000000000e+04,-1.000000000000000082e-05,-2.999999999999999737e-05,-1.000000000000000082e-05,-2.000000000000000164e-05,-2.000000000000000164e-05,-2.999999999999999737e-05,-1.000000000000000082e-05,0.000000000000000000e+00,1.000000000000000000e+00,1.300000000000000000e+01
3.285200000000000000e+04,-1.000000000000000082e-05,-2.999999999999999737e-05,-1.000000000000000082e-05,-2.000000000000000164e-05,-2.000000000000000164e-05,-2.999999999999999737e-05,-1.000000000000000082e-05,0.000000000000000000e+00,1.000000000000000000e+00,1.300000000000000000e+01
3.285300000000000000e+04,-1.000000000000000082e-05,-2.999999999999999737e-05,-1.000000000000000082e-05,-2.000000000000000164e-05,-2.000000000000000164e-05,-2.999999999999999737e-05,-1.000000000000000082e-05,0.000000000000000000e+00,1.000000000000000000e+00,1.300000000000000000e+01
3.285400000000000000e+04,-1.000000000000000082e-05,-2.999999999999999737e-05,-1.000000000000000082e-05,-2.000000000000000164e-05,-2.000000000000000164e-05,-2.999999999999999737e-05,-1.000000000000000082e-05,0.000000000000000000e+00,1.000000000000000000e+00,1.300000000000000000e+01
3.285500000000000000e+04,-1.000000000000000082e-05,-2.999999999999999737e-05,-1.000000000000000082e-05,-2.000000000000000164e-05,-2.000000000000000164e-05,-2.999999999999999737e-05,-1.000000000000000082e-05,0.000000000000000000e+00,1.000000000000000000e+00,1.300000000000000000e+01
3.285600000000000000e+04,-1.000000000000000082e-05,-2.999999999999999737e-05,-1.000000000000000082e-05,-2.000000000000000164e-05,-2.000000000000000164e-05,-2.999999999999999737e-05,-1.000000000000000082e-05,0.000000000000000000e+00,1.000000000000000000e+00,1.300000000000000000e+01
3.285700000000000000e+04,-1.000000000000000082e-05,-2.999999999999999737e-05,-1.000000000000000082e-05,-2.000000000000000164e-05,-2.000000000000000164e-05,-2.999999999999999737e-05,-1.000000000000000082e-05,0.000000000000000000e+00,1.000000000000000000e+00,1.300000000000000000e+01
3.285800000000000000e+04,-1.000000000000000082e-05,-2.999999999999999737e-05,-1.000000000000000082e-05,-2.000000000000000164e-05,-2.000000000000000164e-05,-2.999999999999999737e-05,-1.000000000000000082e-05,0.000000000000000000e+00,1.000000000000000000e+00,1.300000000000000000e+01
3.285900000000000000e+04,-1.000000000000000082e-05,-2.999999999999999737e-05,-1.000000000000000082e-05,-2.000000000000000164e-05,-2.000000000000000164e-05,-2.999999999999999737e-05,-1.000000000000000082e-05,0.000000000000000000e+00,1.000000000000000000e+00,1.300000000000000000e+01
3.286000000000000000e+04,-1.000000000000000082e-05,-2.999999999999999737e-05,-1.000000000000000082e-05,-2.000000000000000164e-05,-2.000000000000000164e-05,-2.999999999999999737e-05,-1.000000000000000082e-05,0.000000000000000000e+00,1.000000000000000000e+00,1.300000000000000000e+01
3.286100000000000000e+04,-1.000000000000000082e-05,-2.999999999999999737e-05,-1.000000000000000082e-05,-2.000000000000000164e-05,-2.000000000000000164e-05,-2.999999999999999737e-05,-1.000000000000000082e-05,0.000000000000000000e+00,1.000000000000000000e+00,1.300000000000000000e+01
3.286200000000000000e+04,-1.000000000000000082e-05,-2.999999999999999737e-05,-1.000000000000000082e-05,-2.000000000000000164e-05,-2.000000000000000164e-05,-2.999999999999999737e-05,-1.000000000000000082e-05,0.000000000000000000e+00,1.000000000000000000e+00,1.300000000000000000e+01
3.286300000000000000e+04,-1.000000000000000082e-05,-2.999999999999999737e-05,-1.000000000000000082e-05,-2.000000000000000164e-05,-2.000000000000000164e-05,-2.999999999999999737e-05,-1.000000000000000082e-05,0.000000000000000000e+00,1.000000000000000000e+00,1.300000000000000000e+01
3.286400000000000000e+04,-1.000000000000000082e-05,-2.999999999999999737e-05,-1.000000000000000082e-05,-2.000000000000000164e-05,-2.000000000000000164e-05,-2.999999999999999737e-05,-1.000000000000000082e-05,0.000000000000000000e+00,1.000000000000000000e+00,1.300000000000000000e+01
3.286500000000000000e+04,-1.000000000000000082e-05,-2.999999999999999737e-05,-1.000000000000000082e-05,-2.000000000000000164e-05,-2.000000000000000164e-05,-2.999999999999999737e-05,-1.000000000000000082e-05,0.000000000000000000e+00,1.000000000000000000e+00,1.300000000000000000e+01
3.286600000000000000e+04,-1.000000000000000082e-05,-2.999999999999999737e-05,-1.000000000000000082e-05,-2.000000000000000164e-05,-2.000000000000000164e-05,-2.999999999999999737e-05,-1.000000000000000082e-05,0.000000000000000000e+00,1.000000000000000000e+00,1.300000000000000000e+01
3.286700000000000000e+04,-1.000000000000000082e-05,-2.999999999999999737e-05,-1.000000000000000082e-05,-2.000000000000000164e-05,-2.000000000000000164e-05,-2.999999999999999737e-05,-1.000000000000000082e-05,0.000000000000000000e+00,1.000000000000000000e+00,1.300000000000000000e+01
3.286800000000000000e+04,2.000000000000000164e-05,1.000000000000000082e-05,1.000000000000000082e-05,2.999999999999999737e-05,0.000000000000000000e+00,2.000000000000000164e-05,0.000000000000000000e+00,-1.000000000000000082e-05,1.000000000000000000e+00,1.300000000000000000e+01
3.286900000000000000e+04,-1.000000000000000082e-05,0.000000000000000000e+00,2.000000000000000164e-05,2.000000000000000164e-05,2.000000000000000164e-05,2.999999999999999737e-05,-1.000000000000000082e-05,0.000000000000000000e+00,1.000000000000000000e+00,1.300000000000000000e+01
3.287000000000000000e+04,-1.000000000000000082e-05,0.000000000000000000e+00,2.000000000000000164e-05,2.000000000000000164e-05,2.000000000000000164e-05,2.999999999999999737e-05,-1.000000000000000082e-05,0.000000000000000000e+00,1.000000000000000000e+00,1.300000000000000000e+01
3.287100000000000000e+04,-1.000000000000000082e-05,0.000000000000000000e+00,2.000000000000000164e-05,2.000000000000000164e-05,2.000000000000000164e-05,2.999999999999999737e-05,-1.000000000000000082e-05,0.000000000000000000e+00,1.000000000000000000e+00,1.300000000000000000e+01
3.287200000000000000e+04,-1.000000000000000082e-05,0.000000000000000000e+00,2.000000000000000164e-05,2.000000000000000164e-05,2.000000000000000164e-05,2.999999999999999737e-05,-1.000000000000000082e-05,0.000000000000000000e+00,1.000000000000000000e+00,1.300000000000000000e+01
3.287300000000000000e+04,-1.000000000000000082e-05,0.000000000000000000e+00,2.000000000000000164e-05,2.000000000000000164e-05,2.000000000000000164e-05,2.999999999999999737e-05,-1.000000000000000082e-05,0.000000000000000000e+00,1.000000000000000000e+00,1.300000000000000000e+01
3.287400000000000000e+04,-1.000000000000000082e-05,0.000000000000000000e+00,2.000000000000000164e-05,2.000000000000000164e-05,2.000000000000000164e-05,2.999999999999999737e-05,-1.000000000000000082e-05,0.000000000000000000e+00,1.000000000000000000e+00,1.300000000000000000e+01
3.287500000000000000e+04,-1.000000000000000082e-05,0.000000000000000000e+00,2.000000000000000164e-05,2.000000000000000164e-05,2.000000000000000164e-05,2.999999999999999737e-05,-1.000000000000000082e-05,0.000000000000000000e+00,1.000000000000000000e+00,1.300000000000000000e+01
3.287600000000000000e+04,-1.000000000000000082e-05,0.000000000000000000e+00,2.000000000000000164e-05,2.000000000000000164e-05,2.000000000000000164e-05,2.999999999999999737e-05,-1.000000000000000082e-05,0.000000000000000000e+00,1.000000000000000000e+00,1.300000000000000000e+01
3.287700000000000000e+04,-1.000000000000000082e-05,0.000000000000000000e+00,2.000000000000000164e-05,2.000000000000000164e-05,2.000000000000000164e-05,2.999999999999999737e-05,-1.000000000000000082e-05,0.000000000000000000e+00,1.000000000000000000e+00,1.300000000000000000e+01
3.287800000000000000e+04,-1.000000000000000082e-05,0.000000000000000000e+00,2.000000000000000164e-05,2.000000000000000164e-05,2.000000000000000164e-05,2.999999999999999737e-05,-1.000000000000000082e-05,0.000000000000000000e+00,1.000000000000000000e+00,1.300000000000000000e+01
3.287900000000000000e+04,-1.000000000000000082e-05,0.000000000000000000e+00,2.000000000000000164e-05,2.000000000000000164e-05,2.000000000000000164e-05,2.999999999999999737e-05,-1.000000000000000082e-05,0.000000000000000000e+00,1.000000000000000000e+00,1.300000000000000000e+01
3.288000000000000000e+04,-1.000000000000000082e-05,0.000000000000000000e+00,2.000000000000000164e-05,2.000000000000000164e-05,2.000000000000000164e-05,2.999999999999999737e-05,-1.000000000000000082e-05,0.000000000000000000e+00,1.000000000000000000e+00,1.300000000000000000e+01
3.288100000000000000e+04,-1.000000000000000082e-05,0.000000000000000000e+00,2.000000000000000164e-05,2.000000000000000164e-05,2.000000000000000164e-05,2.999999999999999737e-05,-1.000000000000000082e-05,0.000000000000000000e+00,1.000000000000000000e+00,1.300000000000000000e+01
3.288200000000000000e+04,-1.000000000000000082e-05,0.000000000000000000e+00,2.000000000000000164e-05,2.000000000000000164e-05,2.000000000000000164e-05,2.999999999999999737e-05,-1.000000000000000082e-05,0.000000000000000000e+00,1.000000000000000000e+00,1.300000000000000000e+01
3.288300000000000000e+04,0.000000000000000000e+00,-1.000000000000000082e-05,-2.999999999999999737e-05,-2.999999999999999737e-05,-2.000000000000000164e-05,-2.999999999999999737e-05,-1.000000000000000082e-05,0.000000000000000000e+00,1.000000000000000000e+00,1.300000000000000000e+01
3.288400000000000000e+04,-1.000000000000000082e-05,0.000000000000000000e+00,-2.999999999999999737e-05,0.000000000000000000e+00,-2.999999999999999737e-05,-2.000000000000000164e-05,-2.999999999999999737e-05,-2.000000000000000164e-05,1.000000000000000000e+00,1.300000000000000000e+01
3.288500000000000000e+04,1.000000000000000082e-05,-1.000000000000000082e-05,-2.299999999999999799e-04,-9.000000000000000567e-05,-1.000000000000000082e-05,-1.000000000000000082e-05,-1.000000000000000082e-05,1.000000000000000082e-05,1.000000000000000000e+00,1.300000000000000000e+01
3.288600000000000000e+04,1.000000000000000082e-05,-1.000000000000000082e-05,-2.299999999999999799e-04,-9.000000000000000567e-05,-1.000000000000000082e-05,-1.000000000000000082e-05,-1.000000000000000082e-05,1.000000000000000082e-05,1.000000000000000000e+00,1.300000000000000000e+01
3.288800000000000000e+04,1.000000000000000082e-05,-1.000000000000000082e-05,-2.299999999999999799e-04,-9.000000000000000567e-05,-1.000000000000000082e-05,-1.000000000000000082e-05,-1.000000000000000082e-05,1.000000000000000082e-05,1.000000000000000000e+00,1.300000000000000000e+01
3.288900000000000000e+04,1.000000000000000082e-05,-1.000000000000000082e-05,-2.299999999999999799e-04,-9.000000000000000567e-05,-1.000000000000000082e-05,-1.000000000000000082e-05,-1.000000000000000082e-05,1.000000000000000082e-05,1.000000000000000000e+00,1.300000000000000000e+01
3.289000000000000000e+04,1.000000000000000082e-05,-1.000000000000000082e-05,-2.299999999999999799e-04,-9.000000000000000567e-05,-1.000000000000000082e-05,-1.000000000000000082e-05,-1.000000000000000082e-05,1.000000000000000082e-05,1.000000000000000000e+00,1.300000000000000000e+01
3.289100000000000000e+04,1.000000000000000082e-05,-1.000000000000000082e-05,-2.299999999999999799e-04,-9.000000000000000567e-05,-1.000000000000000082e-05,-1.000000000000000082e-05,-1.000000000000000082e-05,1.000000000000000082e-05,1.000000000000000000e+00,1.300000000000000000e+01
3.289200000000000000e+04,1.000000000000000082e-05,-1.000000000000000082e-05,-2.299999999999999799e-04,-9.000000000000000567e-05,-1.000000000000000082e-05,-1.000000000000000082e-05,-1.000000000000000082e-05,1.000000000000000082e-05,1.000000000000000000e+00,1.300000000000000000e+01
3.289300000000000000e+04,1.000000000000000082e-05,-1.000000000000000082e-05,-2.299999999999999799e-04,-9.000000000000000567e-05,-1.000000000000000082e-05,-1.000000000000000082e-05,-1.000000000000000082e-05,1.000000000000000082e-05,1.000000000000000000e+00,1.300000000000000000e+01
3.289400000000000000e+04,1.000000000000000082e-05,-1.000000000000000082e-05,-2.299999999999999799e-04,-9.000000000000000567e-05,-1.000000000000000082e-05,-1.000000000000000082e-05,-1.000000000000000082e-05,1.000000000000000082e-05,1.000000000000000000e+00,1.300000000000000000e+01
3.289500000000000000e+04,1.000000000000000082e-05,-1.000000000000000082e-05,-2.299999999999999799e-04,-9.000000000000000567e-05,-1.000000000000000082e-05,-1.000000000000000082e-05,-1.000000000000000082e-05,1.000000000000000082e-05,1.000000000000000000e+00,1.300000000000000000e+01
3.289600000000000000e+04,1.000000000000000082e-05,-1.000000000000000082e-05,-2.299999999999999799e-04,-9.000000000000000567e-05,-1.000000000000000082e-05,-1.000000000000000082e-05,-1.000000000000000082e-05,1.000000000000000082e-05,1.000000000000000000e+00,1.300000000000000000e+01
3.289700000000000000e+04,1.000000000000000082e-05,-1.000000000000000082e-05,-2.299999999999999799e-04,-9.000000000000000567e-05,-1.000000000000000082e-05,-1.000000000000000082e-05,-1.000000000000000082e-05,1.000000000000000082e-05,1.000000000000000000e+00,1.300000000000000000e+01
3.289800000000000000e+04,1.000000000000000082e-05,-1.000000000000000082e-05,-2.299999999999999799e-04,-9.000000000000000567e-05,-1.000000000000000082e-05,-1.000000000000000082e-05,-1.000000000000000082e-05,1.000000000000000082e-05,1.000000000000000000e+00,1.300000000000000000e+01
3.289900000000000000e+04,1.000000000000000082e-05,-1.000000000000000082e-05,-2.299999999999999799e-04,-9.000000000000000567e-05,-1.000000000000000082e-05,-1.000000000000000082e-05,-1.000000000000000082e-05,1.000000000000000082e-05,1.000000000000000000e+00,1.300000000000000000e+01
3.290000000000000000e+04,1.000000000000000082e-05,-1.000000000000000082e-05,-2.299999999999999799e-04,-9.000000000000000567e-05,-1.000000000000000082e-05,-1.000000000000000082e-05,-1.000000000000000082e-05,1.000000000000000082e-05,1.000000000000000000e+00,1.300000000000000000e+01
3.290100000000000000e+04,1.000000000000000082e-05,-1.000000000000000082e-05,-2.299999999999999799e-04,-9.000000000000000567e-05,-1.000000000000000082e-05,-1.000000000000000082e-05,-1.000000000000000082e-05,1.000000000000000082e-05,1.000000000000000000e+00,1.300000000000000000e+01
3.290200000000000000e+04,1.000000000000000082e-05,-1.000000000000000082e-05,-2.299999999999999799e-04,-9.000000000000000567e-05,-1.000000000000000082e-05,-1.000000000000000082e-05,-1.000000000000000082e-05,1.000000000000000082e-05,1.000000000000000000e+00,1.300000000000000000e+01
3.290300000000000000e+04,1.000000000000000082e-05,-1.000000000000000082e-05,-2.299999999999999799e-04,-9.000000000000000567e-05,-1.000000000000000082e-05,-1.000000000000000082e-05,-1.000000000000000082e-05,1.000000000000000082e-05,1.000000000000000000e+00,1.300000000000000000e+01
3.290400000000000000e+04,1.000000000000000082e-05,-1.000000000000000082e-05,-2.299999999999999799e-04,-9.000000000000000567e-05,-1.000000000000000082e-05,-1.000000000000000082e-05,-1.000000000000000082e-05,1.000000000000000082e-05,1.000000000000000000e+00,1.300000000000000000e+01
3.290500000000000000e+04,-1.000000000000000082e-05,-1.000000000000000082e-05,0.000000000000000000e+00,2.000000000000000164e-05,-1.000000000000000082e-05,1.000000000000000082e-05,0.000000000000000000e+00,-1.000000000000000082e-05,1.000000000000000000e+00,1.300000000000000000e+01
3.290600000000000000e+04,1.000000000000000082e-05,2.000000000000000164e-05,8.000000000000000654e-05,6.999999999999999387e-05,-2.000000000000000164e-05,0.000000000000000000e+00,-1.000000000000000082e-05,-2.000000000000000164e-05,1.000000000000000000e+00,1.300000000000000000e+01
3.290700000000000000e+04,1.000000000000000082e-05,2.000000000000000164e-05,8.000000000000000654e-05,6.999999999999999387e-05,-2.000000000000000164e-05,0.000000000000000000e+00,-1.000000000000000082e-05,-2.000000000000000164e-05,1.000000000000000000e+00,1.300000000000000000e+01
3.290800000000000000e+04,1.000000000000000082e-05,2.000000000000000164e-05,8.000000000000000654e-05,6.999999999999999387e-05,-2.000000000000000164e-05,0.000000000000000000e+00,-1.000000000000000082e-05,-2.000000000000000164e-05,1.000000000000000000e+00,1.300000000000000000e+01
3.290900000000000000e+04,1.000000000000000082e-05,2.000000000000000164e-05,8.000000000000000654e-05,6.999999999999999387e-05,-2.000000000000000164e-05,0.000000000000000000e+00,-1.000000000000000082e-05,-2.000000000000000164e-05,1.000000000000000000e+00,1.300000000000000000e+01
3.291000000000000000e+04,1.000000000000000082e-05,2.000000000000000164e-05,8.000000000000000654e-05,6.999999999999999387e-05,-2.000000000000000164e-05,0.000000000000000000e+00,-1.000000000000000082e-05,-2.000000000000000164e-05,1.000000000000000000e+00,1.300000000000000000e+01
3.291100000000000000e+04,1.000000000000000082e-05,2.000000000000000164e-05,8.000000000000000654e-05,6.999999999999999387e-05,-2.000000000000000164e-05,0.000000000000000000e+00,-1.000000000000000082e-05,-2.000000000000000164e-05,1.000000000000000000e+00,1.300000000000000000e+01
3.291200000000000000e+04,1.000000000000000082e-05,2.000000000000000164e-05,8.000000000000000654e-05,6.999999999999999387e-05,-2.000000000000000164e-05,0.000000000000000000e+00,-1.000000000000000082e-05,-2.000000000000000164e-05,1.000000000000000000e+00,1.300000000000000000e+01
3.291300000000000000e+04,1.000000000000000082e-05,2.000000000000000164e-05,8.000000000000000654e-05,6.999999999999999387e-05,-2.000000000000000164e-05,0.000000000000000000e+00,-1.000000000000000082e-05,-2.000000000000000164e-05,1.000000000000000000e+00,1.300000000000000000e+01
3.291400000000000000e+04,1.000000000000000082e-05,2.000000000000000164e-05,8.000000000000000654e-05,6.999999999999999387e-05,-2.000000000000000164e-05,0.000000000000000000e+00,-1.000000000000000082e-05,-2.000000000000000164e-05,1.000000000000000000e+00,1.300000000000000000e+01
3.291500000000000000e+04,1.000000000000000082e-05,2.000000000000000164e-05,8.000000000000000654e-05,6.999999999999999387e-05,-2.000000000000000164e-05,0.000000000000000000e+00,-1.000000000000000082e-05,-2.000000000000000164e-05,1.000000000000000000e+00,1.300000000000000000e+01
3.291600000000000000e+04,1.000000000000000082e-05,2.000000000000000164e-05,8.000000000000000654e-05,6.999999999999999387e-05,-2.000000000000000164e-05,0.000000000000000000e+00,-1.000000000000000082e-05,-2.000000000000000164e-05,1.000000000000000000e+00,1.300000000000000000e+01
3.291700000000000000e+04,1.000000000000000082e-05,2.000000000000000164e-05,8.000000000000000654e-05,6.999999999999999387e-05,-2.000000000000000164e-05,0.000000000000000000e+00,-1.000000000000000082e-05,-2.000000000000000164e-05,1.000000000000000000e+00,1.300000000000000000e+01
3.291800000000000000e+04,1.000000000000000082e-05,2.000000000000000164e-05,8.000000000000000654e-05,6.999999999999999387e-05,-2.000000000000000164e-05,0.000000000000000000e+00,-1.000000000000000082e-05,-2.000000000000000164e-05,1.000000000000000000e+00,1.300000000000000000e+01
3.291900000000000000e+04,1.000000000000000082e-05,2.000000000000000164e-05,8.000000000000000654e-05,6.999999999999999387e-05,-2.000000000000000164e-05,0.000000000000000000e+00,-1.000000000000000082e-05,-2.000000000000000164e-05,1.000000000000000000e+00,1.300000000000000000e+01
3.292000000000000000e+04,1.000000000000000082e-05,2.000000000000000164e-05,8.000000000000000654e-05,6.999999999999999387e-05,-2.000000000000000164e-05,0.000000000000000000e+00,-1.000000000000000082e-05,-2.000000000000000164e-05,1.000000000000000000e+00,1.300000000000000000e+01
3.292100000000000000e+04,1.000000000000000082e-05,2.000000000000000164e-05,8.000000000000000654e-05,6.999999999999999387e-05,-2.000000000000000164e-05,0.000000000000000000e+00,-1.000000000000000082e-05,-2.000000000000000164e-05,1.000000000000000000e+00,1.300000000000000000e+01
3.292200000000000000e+04,1.000000000000000082e-05,2.000000000000000164e-05,8.000000000000000654e-05,6.999999999999999387e-05,-2.000000000000000164e-05,0.000000000000000000e+00,-1.000000000000000082e-05,-2.000000000000000164e-05,1.000000000000000000e+00,1.300000000000000000e+01
3.292300000000000000e+04,1.000000000000000082e-05,2.000000000000000164e-05,8.000000000000000654e-05,6.999999999999999387e-05,-2.000000000000000164e-05,0.000000000000000000e+00,-1.000000000000000082e-05,-2.000000000000000164e-05,1.000000000000000000e+00,1.300000000000000000e+01
3.292400000000000000e+04,1.000000000000000082e-05,2.000000000000000164e-05,8.000000000000000654e-05,6.999999999999999387e-05,-2.000000000000000164e-05,0.000000000000000000e+00,-1.000000000000000082e-05,-2.000000000000000164e-05,1.000000000000000000e+00,1.300000000000000000e+01
3.292500000000000000e+04,1.000000000000000082e-05,2.000000000000000164e-05,8.000000000000000654e-05,6.999999999999999387e-05,-2.000000000000000164e-05,0.000000000000000000e+00,-1.000000000000000082e-05,-2.000000000000000164e-05,1.000000000000000000e+00,1.300000000000000000e+01
3.292600000000000000e+04,1.000000000000000082e-05,2.000000000000000164e-05,8.000000000000000654e-05,6.999999999999999387e-05,-2.000000000000000164e-05,0.000000000000000000e+00,-1.000000000000000082e-05,-2.000000000000000164e-05,1.000000000000000000e+00,1.300000000000000000e+01
3.292700000000000000e+04,1.000000000000000082e-05,2.000000000000000164e-05,8.000000000000000654e-05,6.999999999999999387e-05,-2.000000000000000164e-05,0.000000000000000000e+00,-1.000000000000000082e-05,-2.000000000000000164e-05,1.000000000000000000e+00,1.300000000000000000e+01
3.292800000000000000e+04,-1.000000000000000082e-05,-1.000000000000000082e-05,1.000000000000000082e-05,-1.000000000000000082e-05,-2.999999999999999737e-05,-2.000000000000000164e-05,-2.000000000000000164e-05,-2.000000000000000164e-05,1.000000000000000000e+00,1.300000000000000000e+01
3.292900000000000000e+04,-1.000000000000000082e-05,-1.000000000000000082e-05,1.000000000000000082e-05,-1.000000000000000082e-05,-2.999999999999999737e-05,-2.000000000000000164e-05,-2.000000000000000164e-05,-2.000000000000000164e-05,1.000000000000000000e+00,1.300000000000000000e+01
3.293000000000000000e+04,-1.000000000000000082e-05,-1.000000000000000082e-05,1.000000000000000082e-05,-1.000000000000000082e-05,-2.999999999999999737e-05,-2.000000000000000164e-05,-2.000000000000000164e-05,-2.000000000000000164e-05,1.000000000000000000e+00,1.300000000000000000e+01
3.293100000000000000e+04,-1.000000000000000082e-05,-1.000000000000000082e-05,1.000000000000000082e-05,-1.000000000000000082e-05,-2.999999999999999737e-05,-2.000000000000000164e-05,-2.000000000000000164e-05,-2.000000000000000164e-05,1.000000000000000000e+00,1.300000000000000000e+01
3.293200000000000000e+04,-1.000000000000000082e-05,-1.000000000000000082e-05,1.000000000000000082e-05,-1.000000000000000082e-05,-2.999999999999999737e-05,-2.000000000000000164e-05,-2.000000000000000164e-05,-2.000000000000000164e-05,1.000000000000000000e+00,1.300000000000000000e+01
3.293300000000000000e+04,-1.000000000000000082e-05,-1.000000000000000082e-05,1.000000000000000082e-05,-1.000000000000000082e-05,-2.999999999999999737e-05,-2.000000000000000164e-05,-2.000000000000000164e-05,-2.000000000000000164e-05,1.000000000000000000e+00,1.300000000000000000e+01
3.293400000000000000e+04,-1.000000000000000082e-05,-1.000000000000000082e-05,1.000000000000000082e-05,-1.000000000000000082e-05,-2.999999999999999737e-05,-2.000000000000000164e-05,-2.000000000000000164e-05,-2.000000000000000164e-05,1.000000000000000000e+00,1.300000000000000000e+01
3.293500000000000000e+04,-1.000000000000000082e-05,-1.000000000000000082e-05,1.000000000000000082e-05,-1.000000000000000082e-05,-2.999999999999999737e-05,-2.000000000000000164e-05,-2.000000000000000164e-05,-2.000000000000000164e-05,1.000000000000000000e+00,1.300000000000000000e+01
3.293600000000000000e+04,-1.000000000000000082e-05,-1.000000000000000082e-05,1.000000000000000082e-05,-1.000000000000000082e-05,-2.999999999999999737e-05,-2.000000000000000164e-05,-2.000000000000000164e-05,-2.000000000000000164e-05,1.000000000000000000e+00,1.300000000000000000e+01
3.293800000000000000e+04,-1.000000000000000082e-05,-1.000000000000000082e-05,1.000000000000000082e-05,-1.000000000000000082e-05,-2.999999999999999737e-05,-2.000000000000000164e-05,-2.000000000000000164e-05,-2.000000000000000164e-05,1.000000000000000000e+00,1.300000000000000000e+01
3.293900000000000000e+04,-1.000000000000000082e-05,-1.000000000000000082e-05,1.000000000000000082e-05,-1.000000000000000082e-05,-2.999999999999999737e-05,-2.000000000000000164e-05,-2.000000000000000164e-05,-2.000000000000000164e-05,1.000000000000000000e+00,1.300000000000000000e+01
3.294000000000000000e+04,-1.000000000000000082e-05,-1.000000000000000082e-05,1.000000000000000082e-05,-1.000000000000000082e-05,-2.999999999999999737e-05,-2.000000000000000164e-05,-2.000000000000000164e-05,-2.000000000000000164e-05,1.000000000000000000e+00,1.300000000000000000e+01
3.294100000000000000e+04,-1.000000000000000082e-05,-1.000000000000000082e-05,1.000000000000000082e-05,-1.000000000000000082e-05,-2.999999999999999737e-05,-2.000000000000000164e-05,-2.000000000000000164e-05,-2.000000000000000164e-05,1.000000000000000000e+00,1.300000000000000000e+01
3.294200000000000000e+04,-1.000000000000000082e-05,-1.000000000000000082e-05,1.000000000000000082e-05,-1.000000000000000082e-05,-2.999999999999999737e-05,-2.000000000000000164e-05,-2.000000000000000164e-05,-2.000000000000000164e-05,1.000000000000000000e+00,1.300000000000000000e+01
3.294300000000000000e+04,0.000000000000000000e+00,-2.000000000000000164e-05,-1.000000000000000082e-05,-2.999999999999999737e-05,-2.000000000000000164e-05,-4.000000000000000327e-05,-1.000000000000000082e-05,0.000000000000000000e+00,1.000000000000000000e+00,1.300000000000000000e+01
3.294400000000000000e+04,0.000000000000000000e+00,-2.000000000000000164e-05,-1.000000000000000082e-05,-2.999999999999999737e-05,-2.000000000000000164e-05,-4.000000000000000327e-05,-1.000000000000000082e-05,0.000000000000000000e+00,1.000000000000000000e+00,1.300000000000000000e+01
3.294500000000000000e+04,0.000000000000000000e+00,-2.000000000000000164e-05,-1.000000000000000082e-05,-2.999999999999999737e-05,-2.000000000000000164e-05,-4.000000000000000327e-05,-1.000000000000000082e-05,0.000000000000000000e+00,1.000000000000000000e+00,1.300000000000000000e+01
3.294600000000000000e+04,0.000000000000000000e+00,-2.000000000000000164e-05,-1.000000000000000082e-05,-2.999999999999999737e-05,-2.000000000000000164e-05,-4.000000000000000327e-05,-1.000000000000000082e-05,0.000000000000000000e+00,1.000000000000000000e+00,1.300000000000000000e+01
3.294700000000000000e+04,0.000000000000000000e+00,-2.000000000000000164e-05,-1.000000000000000082e-05,-2.999999999999999737e-05,-2.000000000000000164e-05,-4.000000000000000327e-05,-1.000000000000000082e-05,0.000000000000000000e+00,1.000000000000000000e+00,1.300000000000000000e+01
3.294800000000000000e+04,0.000000000000000000e+00,-2.000000000000000164e-05,-1.000000000000000082e-05,-2.999999999999999737e-05,-2.000000000000000164e-05,-4.000000000000000327e-05,-1.000000000000000082e-05,0.000000000000000000e+00,1.000000000000000000e+00,1.300000000000000000e+01
3.294900000000000000e+04,0.000000000000000000e+00,-2.000000000000000164e-05,-1.000000000000000082e-05,-2.999999999999999737e-05,-2.000000000000000164e-05,-4.000000000000000327e-05,-1.000000000000000082e-05,0.000000000000000000e+00,1.000000000000000000e+00,1.300000000000000000e+01
3.295000000000000000e+04,0.000000000000000000e+00,-2.000000000000000164e-05,-1.000000000000000082e-05,-2.999999999999999737e-05,-2.000000000000000164e-05,-4.000000000000000327e-05,-1.000000000000000082e-05,0.000000000000000000e+00,1.000000000000000000e+00,1.300000000000000000e+01
3.295100000000000000e+04,0.000000000000000000e+00,-2.000000000000000164e-05,-1.000000000000000082e-05,-2.999999999999999737e-05,-2.000000000000000164e-05,-4.000000000000000327e-05,-1.000000000000000082e-05,0.000000000000000000e+00,1.000000000000000000e+00,1.300000000000000000e+01
3.295200000000000000e+04,0.000000000000000000e+00,-2.000000000000000164e-05,-1.000000000000000082e-05,-2.999999999999999737e-05,-2.000000000000000164e-05,-4.000000000000000327e-05,-1.000000000000000082e-05,0.000000000000000000e+00,1.000000000000000000e+00,1.300000000000000000e+01
3.295300000000000000e+04,0.000000000000000000e+00,-2.000000000000000164e-05,-1.000000000000000082e-05,-2.999999999999999737e-05,-2.000000000000000164e-05,-4.000000000000000327e-05,-1.000000000000000082e-05,0.000000000000000000e+00,1.000000000000000000e+00,1.300000000000000000e+01
3.295400000000000000e+04,0.000000000000000000e+00,-2.000000000000000164e-05,-1.000000000000000082e-05,-2.999999999999999737e-05,-2.000000000000000164e-05,-4.000000000000000327e-05,-1.000000000000000082e-05,0.000000000000000000e+00,1.000000000000000000e+00,1.300000000000000000e+01
3.295500000000000000e+04,0.000000000000000000e+00,-2.000000000000000164e-05,-1.000000000000000082e-05,-2.999999999999999737e-05,-2.000000000000000164e-05,-4.000000000000000327e-05,-1.000000000000000082e-05,0.000000000000000000e+00,1.000000000000000000e+00,1.300000000000000000e+01
3.295600000000000000e+04,0.000000000000000000e+00,-2.000000000000000164e-05,-1.000000000000000082e-05,-2.999999999999999737e-05,-2.000000000000000164e-05,-4.000000000000000327e-05,-1.000000000000000082e-05,0.000000000000000000e+00,1.000000000000000000e+00,1.300000000000000000e+01
3.295700000000000000e+04,0.000000000000000000e+00,-2.000000000000000164e-05,-1.000000000000000082e-05,-2.999999999999999737e-05,-2.000000000000000164e-05,-4.000000000000000327e-05,-1.000000000000000082e-05,0.000000000000000000e+00,1.000000000000000000e+00,1.300000000000000000e+01
3.295800000000000000e+04,0.000000000000000000e+00,-2.000000000000000164e-05,-1.000000000000000082e-05,-2.999999999999999737e-05,-2.000000000000000164e-05,-4.000000000000000327e-05,-1.000000000000000082e-05,0.000000000000000000e+00,1.000000000000000000e+00,1.300000000000000000e+01
3.295900000000000000e+04,0.000000000000000000e+00,-2.000000000000000164e-05,-1.000000000000000082e-05,-2.999999999999999737e-05,-2.000000000000000164e-05,-4.000000000000000327e-05,-1.000000000000000082e-05,0.000000000000000000e+00,1.000000000000000000e+00,1.300000000000000000e+01
3.296000000000000000e+04,0.000000000000000000e+00,-2.000000000000000164e-05,-1.000000000000000082e-05,-2.999999999999999737e-05,-2.000000000000000164e-05,-4.000000000000000327e-05,-1.000000000000000082e-05,0.000000000000000000e+00,1.000000000000000000e+00,1.300000000000000000e+01
3.296100000000000000e+04,0.000000000000000000e+00,-2.000000000000000164e-05,-1.000000000000000082e-05,-2.999999999999999737e-05,-2.000000000000000164e-05,-4.000000000000000327e-05,-1.000000000000000082e-05,0.000000000000000000e+00,1.000000000000000000e+00,1.300000000000000000e+01
3.296200000000000000e+04,0.000000000000000000e+00,-2.000000000000000164e-05,-1.000000000000000082e-05,-2.999999999999999737e-05,-2.000000000000000164e-05,-4.000000000000000327e-05,-1.000000000000000082e-05,0.000000000000000000e+00,1.000000000000000000e+00,1.300000000000000000e+01
3.296300000000000000e+04,0.000000000000000000e+00,-2.000000000000000164e-05,-1.000000000000000082e-05,-2.999999999999999737e-05,-2.000000000000000164e-05,-4.000000000000000327e-05,-1.000000000000000082e-05,0.000000000000000000e+00,1.000000000000000000e+00,1.300000000000000000e+01
3.296400000000000000e+04,0.000000000000000000e+00,-2.000000000000000164e-05,-1.000000000000000082e-05,-2.999999999999999737e-05,-2.000000000000000164e-05,-4.000000000000000327e-05,-1.000000000000000082e-05,0.000000000000000000e+00,1.000000000000000000e+00,1.300000000000000000e+01
3.296500000000000000e+04,-2.000000000000000164e-05,1.000000000000000082e-05,-5.999999999999999474e-05,0.000000000000000000e+00,0.000000000000000000e+00,-1.000000000000000082e-05,0.000000000000000000e+00,0.000000000000000000e+00,1.000000000000000000e+00,1.300000000000000000e+01
3.296600000000000000e+04,-2.000000000000000164e-05,-1.000000000000000082e-05,1.199999999999999895e-04,2.999999999999999737e-05,2.000000000000000164e-05,1.000000000000000082e-05,0.000000000000000000e+00,0.000000000000000000e+00,1.000000000000000000e+00,1.300000000000000000e+01
3.296700000000000000e+04,-2.000000000000000164e-05,-1.000000000000000082e-05,1.199999999999999895e-04,2.999999999999999737e-05,2.000000000000000164e-05,1.000000000000000082e-05,0.000000000000000000e+00,0.000000000000000000e+00,1.000000000000000000e+00,1.300000000000000000e+01
3.296900000000000000e+04,-2.000000000000000164e-05,-1.000000000000000082e-05,1.199999999999999895e-04,2.999999999999999737e-05,2.000000000000000164e-05,1.000000000000000082e-05,0.000000000000000000e+00,0.000000000000000000e+00,1.000000000000000000e+00,1.300000000000000000e+01
3.297000000000000000e+04,-2.000000000000000164e-05,-1.000000000000000082e-05,1.199999999999999895e-04,2.999999999999999737e-05,2.000000000000000164e-05,1.000000000000000082e-05,0.000000000000000000e+00,0.000000000000000000e+00,1.000000000000000000e+00,1.300000000000000000e+01
3.297100000000000000e+04,-2.000000000000000164e-05,-1.000000000000000082e-05,1.199999999999999895e-04,2.999999999999999737e-05,2.000000000000000164e-05,1.000000000000000082e-05,0.000000000000000000e+00,0.000000000000000000e+00,1.000000000000000000e+00,1.300000000000000000e+01
3.297200000000000000e+04,-2.000000000000000164e-05,-1.000000000000000082e-05,1.199999999999999895e-04,2.999999999999999737e-05,2.000000000000000164e-05,1.000000000000000082e-05,0.000000000000000000e+00,0.000000000000000000e+00,1.000000000000000000e+00,1.300000000000000000e+01
3.297300000000000000e+04,-2.000000000000000164e-05,-1.000000000000000082e-05,1.199999999999999895e-04,2.999999999999999737e-05,2.000000000000000164e-05,1.000000000000000082e-05,0.000000000000000000e+00,0.000000000000000000e+00,1.000000000000000000e+00,1.300000000000000000e+01
3.297400000000000000e+04,-2.000000000000000164e-05,-1.000000000000000082e-05,1.199999999999999895e-04,2.999999999999999737e-05,2.000000000000000164e-05,1.000000000000000082e-05,0.000000000000000000e+00,0.000000000000000000e+00,1.000000000000000000e+00,1.300000000000000000e+01
3.297500000000000000e+04,-2.000000000000000164e-05,-1.000000000000000082e-05,1.199999999999999895e-04,2.999999999999999737e-05,2.000000000000000164e-05,1.000000000000000082e-05,0.000000000000000000e+00,0.000000000000000000e+00,1.000000000000000000e+00,1.300000000000000000e+01
3.297600000000000000e+04,-2.000000000000000164e-05,-1.000000000000000082e-05,1.199999999999999895e-04,2.999999999999999737e-05,2.000000000000000164e-05,1.000000000000000082e-05,0.000000000000000000e+00,0.000000000000000000e+00,1.000000000000000000e+00,1.300000000000000000e+01
3.297700000000000000e+04,-2.000000000000000164e-05,-1.000000000000000082e-05,1.199999999999999895e-04,2.999999999999999737e-05,2.000000000000000164e-05,1.000000000000000082e-05,0.000000000000000000e+00,0.000000000000000000e+00,1.000000000000000000e+00,1.300000000000000000e+01
3.297800000000000000e+04,-2.000000000000000164e-05,-1.000000000000000082e-05,1.199999999999999895e-04,2.999999999999999737e-05,2.000000000000000164e-05,1.000000000000000082e-05,0.000000000000000000e+00,0.000000000000000000e+00,1.000000000000000000e+00,1.300000000000000000e+01
3.297900000000000000e+04,-2.000000000000000164e-05,-1.000000000000000082e-05,1.199999999999999895e-04,2.999999999999999737e-05,2.000000000000000164e-05,1.000000000000000082e-05,0.000000000000000000e+00,0.000000000000000000e+00,1.000000000000000000e+00,1.300000000000000000e+01
3.298000000000000000e+04,-2.000000000000000164e-05,-1.000000000000000082e-05,1.199999999999999895e-04,2.999999999999999737e-05,2.000000000000000164e-05,1.000000000000000082e-05,0.000000000000000000e+00,0.000000000000000000e+00,1.000000000000000000e+00,1.300000000000000000e+01
3.298100000000000000e+04,-2.000000000000000164e-05,-1.000000000000000082e-05,1.199999999999999895e-04,2.999999999999999737e-05,2.000000000000000164e-05,1.000000000000000082e-05,0.000000000000000000e+00,0.000000000000000000e+00,1.000000000000000000e+00,1.300000000000000000e+01
3.298200000000000000e+04,-2.000000000000000164e-05,-1.000000000000000082e-05,1.199999999999999895e-04,2.999999999999999737e-05,2.000000000000000164e-05,1.000000000000000082e-05,0.000000000000000000e+00,0.000000000000000000e+00,1.000000000000000000e+00,1.300000000000000000e+01
3.298300000000000000e+04,-2.000000000000000164e-05,-1.000000000000000082e-05,1.199999999999999895e-04,2.999999999999999737e-05,2.000000000000000164e-05,1.000000000000000082e-05,0.000000000000000000e+00,0.000000000000000000e+00,1.000000000000000000e+00,1.300000000000000000e+01
3.298400000000000000e+04,-2.000000000000000164e-05,-1.000000000000000082e-05,1.199999999999999895e-04,2.999999999999999737e-05,2.000000000000000164e-05,1.000000000000000082e-05,0.000000000000000000e+00,0.000000000000000000e+00,1.000000000000000000e+00,1.300000000000000000e+01
3.298500000000000000e+04,-2.000000000000000164e-05,-1.000000000000000082e-05,1.199999999999999895e-04,2.999999999999999737e-05,2.000000000000000164e-05,1.000000000000000082e-05,0.000000000000000000e+00,0.000000000000000000e+00,1.000000000000000000e+00,1.300000000000000000e+01
3.298600000000000000e+04,-2.000000000000000164e-05,-1.000000000000000082e-05,1.199999999999999895e-04,2.999999999999999737e-05,2.000000000000000164e-05,1.000000000000000082e-05,0.000000000000000000e+00,0.000000000000000000e+00,1.000000000000000000e+00,1.300000000000000000e+01
3.298800000000000000e+04,0.000000000000000000e+00,0.000000000000000000e+00,-2.000000000000000164e-05,-5.000000000000000240e-05,-2.000000000000000164e-05,-2.999999999999999737e-05,-2.000000000000000164e-05,0.000000000000000000e+00,1.000000000000000000e+00,1.300000000000000000e+01
3.298900000000000000e+04,-2.999999999999999737e-05,-1.000000000000000082e-05,2.000000000000000164e-05,0.000000000000000000e+00,1.000000000000000082e-05,1.000000000000000082e-05,0.000000000000000000e+00,-1.000000000000000082e-05,1.000000000000000000e+00,1.300000000000000000e+01
3.299000000000000000e+04,-2.999999999999999737e-05,-1.000000000000000082e-05,2.000000000000000164e-05,0.000000000000000000e+00,1.000000000000000082e-05,1.000000000000000082e-05,0.000000000000000000e+00,-1.000000000000000082e-05,1.000000000000000000e+00,1.300000000000000000e+01
3.299100000000000000e+04,-2.999999999999999737e-05,-1.000000000000000082e-05,2.000000000000000164e-05,0.000000000000000000e+00,1.000000000000000082e-05,1.000000000000000082e-05,0.000000000000000000e+00,-1.000000000000000082e-05,1.000000000000000000e+00,1.300000000000000000e+01
3.299200000000000000e+04,-2.999999999999999737e-05,-1.000000000000000082e-05,2.000000000000000164e-05,0.000000000000000000e+00,1.000000000000000082e-05,1.000000000000000082e-05,0.000000000000000000e+00,-1.000000000000000082e-05,1.000000000000000000e+00,1.300000000000000000e+01
3.299300000000000000e+04,-2.999999999999999737e-05,-1.000000000000000082e-05,2.000000000000000164e-05,0.000000000000000000e+00,1.000000000000000082e-05,1.000000000000000082e-05,0.000000000000000000e+00,-1.000000000000000082e-05,1.000000000000000000e+00,1.300000000000000000e+01
3.299400000000000000e+04,-2.999999999999999737e-05,-1.000000000000000082e-05,2.000000000000000164e-05,0.000000000000000000e+00,1.000000000000000082e-05,1.000000000000000082e-05,0.000000000000000000e+00,-1.000000000000000082e-05,1.000000000000000000e+00,1.300000000000000000e+01
3.299500000000000000e+04,-2.999999999999999737e-05,-1.000000000000000082e-05,2.000000000000000164e-05,0.000000000000000000e+00,1.000000000000000082e-05,1.000000000000000082e-05,0.000000000000000000e+00,-1.000000000000000082e-05,1.000000000000000000e+00,1.300000000000000000e+01
3.299600000000000000e+04,-2.999999999999999737e-05,-1.000000000000000082e-05,2.000000000000000164e-05,0.000000000000000000e+00,1.000000000000000082e-05,1.000000000000000082e-05,0.000000000000000000e+00,-1.000000000000000082e-05,1.000000000000000000e+00,1.300000000000000000e+01
3.299700000000000000e+04,-2.999999999999999737e-05,-1.000000000000000082e-05,2.000000000000000164e-05,0.000000000000000000e+00,1.000000000000000082e-05,1.000000000000000082e-05,0.000000000000000000e+00,-1.000000000000000082e-05,1.000000000000000000e+00,1.300000000000000000e+01
3.299800000000000000e+04,-2.999999999999999737e-05,-1.000000000000000082e-05,2.000000000000000164e-05,0.000000000000000000e+00,1.000000000000000082e-05,1.000000000000000082e-05,0.000000000000000000e+00,-1.000000000000000082e-05,1.000000000000000000e+00,1.300000000000000000e+01
3.299900000000000000e+04,-2.999999999999999737e-05,-1.000000000000000082e-05,2.000000000000000164e-05,0.000000000000000000e+00,1.000000000000000082e-05,1.000000000000000082e-05,0.000000000000000000e+00,-1.000000000000000082e-05,1.000000000000000000e+00,1.300000000000000000e+01
3.300000000000000000e+04,-2.999999999999999737e-05,-1.000000000000000082e-05,2.000000000000000164e-05,0.000000000000000000e+00,1.000000000000000082e-05,1.000000000000000082e-05,0.000000000000000000e+00,-1.000000000000000082e-05,1.000000000000000000e+00,1.300000000000000000e+01
3.300100000000000000e+04,-2.999999999999999737e-05,-1.000000000000000082e-05,2.000000000000000164e-05,0.000000000000000000e+00,1.000000000000000082e-05,1.000000000000000082e-05,0.000000000000000000e+00,-1.000000000000000082e-05,1.000000000000000000e+00,1.300000000000000000e+01
3.300200000000000000e+04,-2.999999999999999737e-05,-1.000000000000000082e-05,2.000000000000000164e-05,0.000000000000000000e+00,1.000000000000000082e-05,1.000000000000000082e-05,0.000000000000000000e+00,-1.000000000000000082e-05,1.000000000000000000e+00,1.300000000000000000e+01
3.300300000000000000e+04,1.000000000000000082e-05,1.000000000000000082e-05,0.000000000000000000e+00,1.000000000000000082e-05,2.000000000000000164e-05,2.000000000000000164e-05,0.000000000000000000e+00,0.000000000000000000e+00,1.000000000000000000e+00,1.300000000000000000e+01
3.300400000000000000e+04,-2.999999999999999737e-05,-2.000000000000000164e-05,-1.100000000000000039e-04,-2.999999999999999737e-05,-2.000000000000000164e-05,-1.000000000000000082e-05,-1.000000000000000082e-05,-2.000000000000000164e-05,1.000000000000000000e+00,1.300000000000000000e+01
3.300500000000000000e+04,-2.999999999999999737e-05,-2.000000000000000164e-05,-1.100000000000000039e-04,-2.999999999999999737e-05,-2.000000000000000164e-05,-1.000000000000000082e-05,-1.000000000000000082e-05,-2.000000000000000164e-05,1.000000000000000000e+00,1.300000000000000000e+01
3.300600000000000000e+04,-2.999999999999999737e-05,-2.000000000000000164e-05,-1.100000000000000039e-04,-2.999999999999999737e-05,-2.000000000000000164e-05,-1.000000000000000082e-05,-1.000000000000000082e-05,-2.000000000000000164e-05,1.000000000000000000e+00,1.300000000000000000e+01
3.300700000000000000e+04,-2.999999999999999737e-05,-2.000000000000000164e-05,-1.100000000000000039e-04,-2.999999999999999737e-05,-2.000000000000000164e-05,-1.000000000000000082e-05,-1.000000000000000082e-05,-2.000000000000000164e-05,1.000000000000000000e+00,1.300000000000000000e+01
3.300800000000000000e+04,-2.999999999999999737e-05,-2.000000000000000164e-05,-1.100000000000000039e-04,-2.999999999999999737e-05,-2.000000000000000164e-05,-1.000000000000000082e-05,-1.000000000000000082e-05,-2.000000000000000164e-05,1.000000000000000000e+00,1.300000000000000000e+01
3.300900000000000000e+04,-2.999999999999999737e-05,-2.000000000000000164e-05,-1.100000000000000039e-04,-2.999999999999999737e-05,-2.000000000000000164e-05,-1.000000000000000082e-05,-1.000000000000000082e-05,-2.000000000000000164e-05,1.000000000000000000e+00,1.300000000000000000e+01
3.301000000000000000e+04,-2.999999999999999737e-05,-2.000000000000000164e-05,-1.100000000000000039e-04,-2.999999999999999737e-05,-2.000000000000000164e-05,-1.000000000000000082e-05,-1.000000000000000082e-05,-2.000000000000000164e-05,1.000000000000000000e+00,1.300000000000000000e+01
3.301100000000000000e+04,-2.999999999999999737e-05,-2.000000000000000164e-05,-1.100000000000000039e-04,-2.999999999999999737e-05,-2.000000000000000164e-05,-1.000000000000000082e-05,-1.000000000000000082e-05,-2.000000000000000164e-05,1.000000000000000000e+00,1.300000000000000000e+01
3.301200000000000000e+04,-2.999999999999999737e-05,-2.000000000000000164e-05,-1.100000000000000039e-04,-2.999999999999999737e-05,-2.000000000000000164e-05,-1.000000000000000082e-05,-1.000000000000000082e-05,-2.000000000000000164e-05,1.000000000000000000e+00,1.300000000000000000e+01
3.301300000000000000e+04,-2.999999999999999737e-05,-2.000000000000000164e-05,-1.100000000000000039e-04,-2.999999999999999737e-05,-2.000000000000000164e-05,-1.000000000000000082e-05,-1.000000000000000082e-05,-2.000000000000000164e-05,1.000000000000000000e+00,1.300000000000000000e+01
3.301400000000000000e+04,-2.999999999999999737e-05,-2.000000000000000164e-05,-1.100000000000000039e-04,-2.999999999999999737e-05,-2.000000000000000164e-05,-1.000000000000000082e-05,-1.000000000000000082e-05,-2.000000000000000164e-05,1.000000000000000000e+00,1.300000000000000000e+01
3.301500000000000000e+04,-2.999999999999999737e-05,-2.000000000000000164e-05,-1.100000000000000039e-04,-2.999999999999999737e-05,-2.000000000000000164e-05,-1.000000000000000082e-05,-1.000000000000000082e-05,-2.000000000000000164e-05,1.000000000000000000e+00,1.300000000000000000e+01
3.301600000000000000e+04,-2.999999999999999737e-05,-2.000000000000000164e-05,-1.100000000000000039e-04,-2.999999999999999737e-05,-2.000000000000000164e-05,-1.000000000000000082e-05,-1.000000000000000082e-05,-2.000000000000000164e-05,1.000000000000000000e+00,1.300000000000000000e+01
3.301700000000000000e+04,-2.999999999999999737e-05,-2.000000000000000164e-05,-1.100000000000000039e-04,-2.999999999999999737e-05,-2.000000000000000164e-05,-1.000000000000000082e-05,-1.000000000000000082e-05,-2.000000000000000164e-05,1.000000000000000000e+00,1.300000000000000000e+01
3.301800000000000000e+04,-2.999999999999999737e-05,-2.000000000000000164e-05,-1.100000000000000039e-04,-2.999999999999999737e-05,-2.000000000000000164e-05,-1.000000000000000082e-05,-1.000000000000000082e-05,-2.000000000000000164e-05,1.000000000000000000e+00,1.300000000000000000e+01
3.301900000000000000e+04,-2.999999999999999737e-05,-2.000000000000000164e-05,-1.100000000000000039e-04,-2.999999999999999737e-05,-2.000000000000000164e-05,-1.000000000000000082e-05,-1.000000000000000082e-05,-2.000000000000000164e-05,1.000000000000000000e+00,1.300000000000000000e+01
3.302000000000000000e+04,-2.999999999999999737e-05,-2.000000000000000164e-05,-1.100000000000000039e-04,-2.999999999999999737e-05,-2.000000000000000164e-05,-1.000000000000000082e-05,-1.000000000000000082e-05,-2.000000000000000164e-05,1.000000000000000000e+00,1.300000000000000000e+01
3.302100000000000000e+04,-2.999999999999999737e-05,-2.000000000000000164e-05,-1.100000000000000039e-04,-2.999999999999999737e-05,-2.000000000000000164e-05,-1.000000000000000082e-05,-1.000000000000000082e-05,-2.000000000000000164e-05,1.000000000000000000e+00,1.300000000000000000e+01
3.302200000000000000e+04,-2.999999999999999737e-05,-2.000000000000000164e-05,-1.100000000000000039e-04,-2.999999999999999737e-05,-2.000000000000000164e-05,-1.000000000000000082e-05,-1.000000000000000082e-05,-2.000000000000000164e-05,1.000000000000000000e+00,1.300000000000000000e+01
3.302300000000000000e+04,-2.999999999999999737e-05,-2.000000000000000164e-05,-1.100000000000000039e-04,-2.999999999999999737e-05,-2.000000000000000164e-05,-1.000000000000000082e-05,-1.000000000000000082e-05,-2.000000000000000164e-05,1.000000000000000000e+00,1.300000000000000000e+01
3.302400000000000000e+04,-2.999999999999999737e-05,-2.000000000000000164e-05,-1.100000000000000039e-04,-2.999999999999999737e-05,-2.000000000000000164e-05,-1.000000000000000082e-05,-1.000000000000000082e-05,-2.000000000000000164e-05,1.000000000000000000e+00,1.300000000000000000e+01
3.302500000000000000e+04,-1.000000000000000082e-05,-1.000000000000000082e-05,-2.000000000000000164e-05,-1.000000000000000082e-05,1.000000000000000082e-05,-1.000000000000000082e-05,-1.000000000000000082e-05,-2.999999999999999737e-05,1.000000000000000000e+00,1.300000000000000000e+01
3.302600000000000000e+04,-2.000000000000000164e-05,-2.000000000000000164e-05,-1.000000000000000082e-05,-2.000000000000000164e-05,-2.999999999999999737e-05,-4.000000000000000327e-05,-2.999999999999999737e-05,-2.000000000000000164e-05,1.000000000000000000e+00,1.300000000000000000e+01
3.302700000000000000e+04,-2.000000000000000164e-05,-2.000000000000000164e-05,-1.000000000000000082e-05,-2.000000000000000164e-05,-2.999999999999999737e-05,-4.000000000000000327e-05,-2.999999999999999737e-05,-2.000000000000000164e-05,1.000000000000000000e+00,1.300000000000000000e+01
3.302800000000000000e+04,-2.000000000000000164e-05,-2.000000000000000164e-05,-1.000000000000000082e-05,-2.000000000000000164e-05,-2.999999999999999737e-05,-4.000000000000000327e-05,-2.999999999999999737e-05,-2.000000000000000164e-05,1.000000000000000000e+00,1.300000000000000000e+01
3.302900000000000000e+04,-2.000000000000000164e-05,-2.000000000000000164e-05,-1.000000000000000082e-05,-2.000000000000000164e-05,-2.999999999999999737e-05,-4.000000000000000327e-05,-2.999999999999999737e-05,-2.000000000000000164e-05,1.000000000000000000e+00,1.300000000000000000e+01
3.303000000000000000e+04,-2.000000000000000164e-05,-2.000000000000000164e-05,-1.000000000000000082e-05,-2.000000000000000164e-05,-2.999999999999999737e-05,-4.000000000000000327e-05,-2.999999999999999737e-05,-2.000000000000000164e-05,1.000000000000000000e+00,1.300000000000000000e+01
3.303100000000000000e+04,-2.000000000000000164e-05,-2.000000000000000164e-05,-1.000000000000000082e-05,-2.000000000000000164e-05,-2.999999999999999737e-05,-4.000000000000000327e-05,-2.999999999999999737e-05,-2.000000000000000164e-05,1.000000000000000000e+00,1.300000000000000000e+01
3.303200000000000000e+04,-2.000000000000000164e-05,-2.000000000000000164e-05,-1.000000000000000082e-05,-2.000000000000000164e-05,-2.999999999999999737e-05,-4.000000000000000327e-05,-2.999999999999999737e-05,-2.000000000000000164e-05,1.000000000000000000e+00,1.300000000000000000e+01
3.303300000000000000e+04,-2.000000000000000164e-05,-2.000000000000000164e-05,-1.000000000000000082e-05,-2.000000000000000164e-05,-2.999999999999999737e-05,-4.000000000000000327e-05,-2.999999999999999737e-05,-2.000000000000000164e-05,1.000000000000000000e+00,1.300000000000000000e+01
3.303400000000000000e+04,-2.000000000000000164e-05,-2.000000000000000164e-05,-1.000000000000000082e-05,-2.000000000000000164e-05,-2.999999999999999737e-05,-4.000000000000000327e-05,-2.999999999999999737e-05,-2.000000000000000164e-05,1.000000000000000000e+00,1.300000000000000000e+01
3.303500000000000000e+04,-2.000000000000000164e-05,-2.000000000000000164e-05,-1.000000000000000082e-05,-2.000000000000000164e-05,-2.999999999999999737e-05,-4.000000000000000327e-05,-2.999999999999999737e-05,-2.000000000000000164e-05,1.000000000000000000e+00,1.300000000000000000e+01
3.303600000000000000e+04,-2.000000000000000164e-05,-2.000000000000000164e-05,-1.000000000000000082e-05,-2.000000000000000164e-05,-2.999999999999999737e-05,-4.000000000000000327e-05,-2.999999999999999737e-05,-2.000000000000000164e-05,1.000000000000000000e+00,1.300000000000000000e+01
3.303800000000000000e+04,-2.000000000000000164e-05,-2.000000000000000164e-05,-1.000000000000000082e-05,-2.000000000000000164e-05,-2.999999999999999737e-05,-4.000000000000000327e-05,-2.999999999999999737e-05,-2.000000000000000164e-05,1.000000000000000000e+00,1.300000000000000000e+01
3.303900000000000000e+04,-2.000000000000000164e-05,-2.000000000000000164e-05,-1.000000000000000082e-05,-2.000000000000000164e-05,-2.999999999999999737e-05,-4.000000000000000327e-05,-2.999999999999999737e-05,-2.000000000000000164e-05,1.000000000000000000e+00,1.300000000000000000e+01
3.304000000000000000e+04,-2.000000000000000164e-05,-2.000000000000000164e-05,-1.000000000000000082e-05,-2.000000000000000164e-05,-2.999999999999999737e-05,-4.000000000000000327e-05,-2.999999999999999737e-05,-2.000000000000000164e-05,1.000000000000000000e+00,1.300000000000000000e+01
3.304100000000000000e+04,-2.000000000000000164e-05,-2.000000000000000164e-05,-1.000000000000000082e-05,-2.000000000000000164e-05,-2.999999999999999737e-05,-4.000000000000000327e-05,-2.999999999999999737e-05,-2.000000000000000164e-05,1.000000000000000000e+00,1.300000000000000000e+01
3.304200000000000000e+04,-2.000000000000000164e-05,-2.000000000000000164e-05,-1.000000000000000082e-05,-2.000000000000000164e-05,-2.999999999999999737e-05,-4.000000000000000327e-05,-2.999999999999999737e-05,-2.000000000000000164e-05,1.000000000000000000e+00,1.300000000000000000e+01
3.304300000000000000e+04,-2.000000000000000164e-05,-2.000000000000000164e-05,-1.000000000000000082e-05,-2.000000000000000164e-05,-2.999999999999999737e-05,-4.000000000000000327e-05,-2.999999999999999737e-05,-2.000000000000000164e-05,1.000000000000000000e+00,1.300000000000000000e+01
3.304400000000000000e+04,-2.000000000000000164e-05,-2.000000000000000164e-05,-1.000000000000000082e-05,-2.000000000000000164e-05,-2.999999999999999737e-05,-4.000000000000000327e-05,-2.999999999999999737e-05,-2.000000000000000164e-05,1.000000000000000000e+00,1.300000000000000000e+01
3.304500000000000000e+04,-2.000000000000000164e-05,-2.000000000000000164e-05,-1.000000000000000082e-05,-2.000000000000000164e-05,-2.999999999999999737e-05,-4.000000000000000327e-05,-2.999999999999999737e-05,-2.000000000000000164e-05,1.000000000000000000e+00,1.300000000000000000e+01
3.304600000000000000e+04,-2.000000000000000164e-05,-2.000000000000000164e-05,-1.000000000000000082e-05,-2.000000000000000164e-05,-2.999999999999999737e-05,-4.000000000000000327e-05,-2.999999999999999737e-05,-2.000000000000000164e-05,1.000000000000000000e+00,1.300000000000000000e+01
3.304700000000000000e+04,-2.000000000000000164e-05,-2.000000000000000164e-05,-1.000000000000000082e-05,-2.000000000000000164e-05,-2.999999999999999737e-05,-4.000000000000000327e-05,-2.999999999999999737e-05,-2.000000000000000164e-05,1.000000000000000000e+00,1.300000000000000000e+01
3.304800000000000000e+04,-1.000000000000000082e-05,-1.000000000000000082e-05,0.000000000000000000e+00,-1.000000000000000082e-05,-2.000000000000000164e-05,-1.000000000000000082e-05,-1.000000000000000082e-05,0.000000000000000000e+00,1.000000000000000000e+00,1.300000000000000000e+01
3.304900000000000000e+04,-1.000000000000000082e-05,-1.000000000000000082e-05,0.000000000000000000e+00,-1.000000000000000082e-05,-2.000000000000000164e-05,-1.000000000000000082e-05,-1.000000000000000082e-05,0.000000000000000000e+00,1.000000000000000000e+00,1.300000000000000000e+01
3.305000000000000000e+04,-1.000000000000000082e-05,-1.000000000000000082e-05,0.000000000000000000e+00,-1.000000000000000082e-05,-2.000000000000000164e-05,-1.000000000000000082e-05,-1.000000000000000082e-05,0.000000000000000000e+00,1.000000000000000000e+00,1.300000000000000000e+01
3.305100000000000000e+04,-1.000000000000000082e-05,-1.000000000000000082e-05,0.000000000000000000e+00,-1.000000000000000082e-05,-2.000000000000000164e-05,-1.000000000000000082e-05,-1.000000000000000082e-05,0.000000000000000000e+00,1.000000000000000000e+00,1.300000000000000000e+01
3.305200000000000000e+04,-1.000000000000000082e-05,-1.000000000000000082e-05,0.000000000000000000e+00,-1.000000000000000082e-05,-2.000000000000000164e-05,-1.000000000000000082e-05,-1.000000000000000082e-05,0.000000000000000000e+00,1.000000000000000000e+00,1.300000000000000000e+01
3.305300000000000000e+04,-1.000000000000000082e-05,-1.000000000000000082e-05,0.000000000000000000e+00,-1.000000000000000082e-05,-2.000000000000000164e-05,-1.000000000000000082e-05,-1.000000000000000082e-05,0.000000000000000000e+00,1.000000000000000000e+00,1.300000000000000000e+01
3.305400000000000000e+04,-1.000000000000000082e-05,-1.000000000000000082e-05,0.000000000000000000e+00,-1.000000000000000082e-05,-2.000000000000000164e-05,-1.000000000000000082e-05,-1.000000000000000082e-05,0.000000000000000000e+00,1.000000000000000000e+00,1.300000000000000000e+01
3.305500000000000000e+04,-1.000000000000000082e-05,-1.000000000000000082e-05,0.000000000000000000e+00,-1.000000000000000082e-05,-2.000000000000000164e-05,-1.000000000000000082e-05,-1.000000000000000082e-05,0.000000000000000000e+00,1.000000000000000000e+00,1.300000000000000000e+01
3.305600000000000000e+04,-1.000000000000000082e-05,-1.000000000000000082e-05,0.000000000000000000e+00,-1.000000000000000082e-05,-2.000000000000000164e-05,-1.000000000000000082e-05,-1.000000000000000082e-05,0.000000000000000000e+00,1.000000000000000000e+00,1.300000000000000000e+01
3.305700000000000000e+04,-1.000000000000000082e-05,-1.000000000000000082e-05,0.000000000000000000e+00,-1.000000000000000082e-05,-2.000000000000000164e-05,-1.000000000000000082e-05,-1.000000000000000082e-05,0.000000000000000000e+00,1.000000000000000000e+00,1.300000000000000000e+01
3.305800000000000000e+04,-1.000000000000000082e-05,-1.000000000000000082e-05,0.000000000000000000e+00,-1.000000000000000082e-05,-2.000000000000000164e-05,-1.000000000000000082e-05,-1.000000000000000082e-05,0.000000000000000000e+00,1.000000000000000000e+00,1.300000000000000000e+01
3.305900000000000000e+04,-1.000000000000000082e-05,-1.000000000000000082e-05,0.000000000000000000e+00,-1.000000000000000082e-05,-2.000000000000000164e-05,-1.000000000000000082e-05,-1.000000000000000082e-05,0.000000000000000000e+00,1.000000000000000000e+00,1.300000000000000000e+01
3.306000000000000000e+04,-1.000000000000000082e-05,-1.000000000000000082e-05,0.000000000000000000e+00,-1.000000000000000082e-05,-2.000000000000000164e-05,-1.000000000000000082e-05,-1.000000000000000082e-05,0.000000000000000000e+00,1.000000000000000000e+00,1.300000000000000000e+01
3.306100000000000000e+04,-1.000000000000000082e-05,-1.000000000000000082e-05,0.000000000000000000e+00,-1.000000000000000082e-05,-2.000000000000000164e-05,-1.000000000000000082e-05,-1.000000000000000082e-05,0.000000000000000000e+00,1.000000000000000000e+00,1.300000000000000000e+01
3.306200000000000000e+04,-1.000000000000000082e-05,-1.000000000000000082e-05,0.000000000000000000e+00,-1.000000000000000082e-05,-2.000000000000000164e-05,-1.000000000000000082e-05,-1.000000000000000082e-05,0.000000000000000000e+00,1.000000000000000000e+00,1.300000000000000000e+01
3.306300000000000000e+04,1.000000000000000082e-05,-1.000000000000000082e-05,8.000000000000000654e-05,2.999999999999999737e-05,1.000000000000000082e-05,0.000000000000000000e+00,-1.000000000000000082e-05,-1.000000000000000082e-05,1.000000000000000000e+00,1.300000000000000000e+01
3.306400000000000000e+04,1.000000000000000082e-05,-1.000000000000000082e-05,8.000000000000000654e-05,2.999999999999999737e-05,1.000000000000000082e-05,0.000000000000000000e+00,-1.000000000000000082e-05,-1.000000000000000082e-05,1.000000000000000000e+00,1.300000000000000000e+01
3.306500000000000000e+04,1.000000000000000082e-05,-1.000000000000000082e-05,8.000000000000000654e-05,2.999999999999999737e-05,1.000000000000000082e-05,0.000000000000000000e+00,-1.000000000000000082e-05,-1.000000000000000082e-05,1.000000000000000000e+00,1.300000000000000000e+01
3.306600000000000000e+04,1.000000000000000082e-05,-1.000000000000000082e-05,8.000000000000000654e-05,2.999999999999999737e-05,1.000000000000000082e-05,0.000000000000000000e+00,-1.000000000000000082e-05,-1.000000000000000082e-05,1.000000000000000000e+00,1.300000000000000000e+01
3.306700000000000000e+04,1.000000000000000082e-05,-1.000000000000000082e-05,8.000000000000000654e-05,2.999999999999999737e-05,1.000000000000000082e-05,0.000000000000000000e+00,-1.000000000000000082e-05,-1.000000000000000082e-05,1.000000000000000000e+00,1.300000000000000000e+01
3.306800000000000000e+04,1.000000000000000082e-05,-1.000000000000000082e-05,8.000000000000000654e-05,2.999999999999999737e-05,1.000000000000000082e-05,0.000000000000000000e+00,-1.000000000000000082e-05,-1.000000000000000082e-05,1.000000000000000000e+00,1.300000000000000000e+01
3.306900000000000000e+04,1.000000000000000082e-05,-1.000000000000000082e-05,8.000000000000000654e-05,2.999999999999999737e-05,1.000000000000000082e-05,0.000000000000000000e+00,-1.000000000000000082e-05,-1.000000000000000082e-05,1.000000000000000000e+00,1.300000000000000000e+01
3.307000000000000000e+04,1.000000000000000082e-05,-1.000000000000000082e-05,8.000000000000000654e-05,2.999999999999999737e-05,1.000000000000000082e-05,0.000000000000000000e+00,-1.000000000000000082e-05,-1.000000000000000082e-05,1.000000000000000000e+00,1.300000000000000000e+01
3.307100000000000000e+04,1.000000000000000082e-05,-1.000000000000000082e-05,8.000000000000000654e-05,2.999999999999999737e-05,1.000000000000000082e-05,0.000000000000000000e+00,-1.000000000000000082e-05,-1.000000000000000082e-05,1.000000000000000000e+00,1.300000000000000000e+01
3.307200000000000000e+04,1.000000000000000082e-05,-1.000000000000000082e-05,8.000000000000000654e-05,2.999999999999999737e-05,1.000000000000000082e-05,0.000000000000000000e+00,-1.000000000000000082e-05,-1.000000000000000082e-05,1.000000000000000000e+00,1.300000000000000000e+01
3.307300000000000000e+04,1.000000000000000082e-05,-1.000000000000000082e-05,8.000000000000000654e-05,2.999999999999999737e-05,1.000000000000000082e-05,0.000000000000000000e+00,-1.000000000000000082e-05,-1.000000000000000082e-05,1.000000000000000000e+00,1.300000000000000000e+01
3.307400000000000000e+04,1.000000000000000082e-05,-1.000000000000000082e-05,8.000000000000000654e-05,2.999999999999999737e-05,1.000000000000000082e-05,0.000000000000000000e+00,-1.000000000000000082e-05,-1.000000000000000082e-05,1.000000000000000000e+00,1.300000000000000000e+01
3.307500000000000000e+04,1.000000000000000082e-05,-1.000000000000000082e-05,8.000000000000000654e-05,2.999999999999999737e-05,1.000000000000000082e-05,0.000000000000000000e+00,-1.000000000000000082e-05,-1.000000000000000082e-05,1.000000000000000000e+00,1.300000000000000000e+01
3.307600000000000000e+04,1.000000000000000082e-05,-1.000000000000000082e-05,8.000000000000000654e-05,2.999999999999999737e-05,1.000000000000000082e-05,0.000000000000000000e+00,-1.000000000000000082e-05,-1.000000000000000082e-05,1.000000000000000000e+00,1.300000000000000000e+01
