5.548100000000000000e+04,1.100000000000000039e-04,9.000000000000000567e-05,4.000000000000000327e-05,2.200000000000000078e-04,9.499999999999999981e-04,4.599999999999999597e-04,2.999999999999999737e-05,0.000000000000000000e+00,6.000000000000000000e+00,2.300000000000000000e+01
5.548200000000000000e+04,1.100000000000000039e-04,9.000000000000000567e-05,4.000000000000000327e-05,2.200000000000000078e-04,9.499999999999999981e-04,4.599999999999999597e-04,2.999999999999999737e-05,0.000000000000000000e+00,6.000000000000000000e+00,2.300000000000000000e+01
5.548300000000000000e+04,1.100000000000000039e-04,9.000000000000000567e-05,4.000000000000000327e-05,2.200000000000000078e-04,9.499999999999999981e-04,4.599999999999999597e-04,2.999999999999999737e-05,0.000000000000000000e+00,6.000000000000000000e+00,2.300000000000000000e+01
5.548400000000000000e+04,1.100000000000000039e-04,9.000000000000000567e-05,4.000000000000000327e-05,2.200000000000000078e-04,9.499999999999999981e-04,4.599999999999999597e-04,2.999999999999999737e-05,0.000000000000000000e+00,6.000000000000000000e+00,2.300000000000000000e+01
5.548500000000000000e+04,1.100000000000000039e-04,9.000000000000000567e-05,4.000000000000000327e-05,2.200000000000000078e-04,9.499999999999999981e-04,4.599999999999999597e-04,2.999999999999999737e-05,0.000000000000000000e+00,6.000000000000000000e+00,2.300000000000000000e+01
5.548700000000000000e+04,1.100000000000000039e-04,9.000000000000000567e-05,4.000000000000000327e-05,2.200000000000000078e-04,9.499999999999999981e-04,4.599999999999999597e-04,2.999999999999999737e-05,0.000000000000000000e+00,6.000000000000000000e+00,2.300000000000000000e+01
5.548900000000000000e+04,1.100000000000000039e-04,9.000000000000000567e-05,4.000000000000000327e-05,2.200000000000000078e-04,9.499999999999999981e-04,4.599999999999999597e-04,2.999999999999999737e-05,0.000000000000000000e+00,6.000000000000000000e+00,2.300000000000000000e+01
5.549000000000000000e+04,1.100000000000000039e-04,9.000000000000000567e-05,4.000000000000000327e-05,2.200000000000000078e-04,9.499999999999999981e-04,4.599999999999999597e-04,2.999999999999999737e-05,0.000000000000000000e+00,6.000000000000000000e+00,2.300000000000000000e+01
5.549100000000000000e+04,1.100000000000000039e-04,9.000000000000000567e-05,4.000000000000000327e-05,2.200000000000000078e-04,9.499999999999999981e-04,4.599999999999999597e-04,2.999999999999999737e-05,0.000000000000000000e+00,6.000000000000000000e+00,2.300000000000000000e+01
5.549200000000000000e+04,1.100000000000000039e-04,9.000000000000000567e-05,4.000000000000000327e-05,2.200000000000000078e-04,9.499999999999999981e-04,4.599999999999999597e-04,2.999999999999999737e-05,0.000000000000000000e+00,6.000000000000000000e+00,2.300000000000000000e+01
5.549300000000000000e+04,1.100000000000000039e-04,9.000000000000000567e-05,4.000000000000000327e-05,2.200000000000000078e-04,9.499999999999999981e-04,4.599999999999999597e-04,2.999999999999999737e-05,0.000000000000000000e+00,6.000000000000000000e+00,2.300000000000000000e+01
5.549400000000000000e+04,1.100000000000000039e-04,9.000000000000000567e-05,4.000000000000000327e-05,2.200000000000000078e-04,9.499999999999999981e-04,4.599999999999999597e-04,2.999999999999999737e-05,0.000000000000000000e+00,6.000000000000000000e+00,2.300000000000000000e+01
5.549500000000000000e+04,1.100000000000000039e-04,9.000000000000000567e-05,4.000000000000000327e-05,2.200000000000000078e-04,9.499999999999999981e-04,4.599999999999999597e-04,2.999999999999999737e-05,0.000000000000000000e+00,6.000000000000000000e+00,2.300000000000000000e+01
5.549600000000000000e+04,1.100000000000000039e-04,9.000000000000000567e-05,4.000000000000000327e-05,2.200000000000000078e-04,9.499999999999999981e-04,4.599999999999999597e-04,2.999999999999999737e-05,0.000000000000000000e+00,6.000000000000000000e+00,2.300000000000000000e+01
5.549700000000000000e+04,1.100000000000000039e-04,9.000000000000000567e-05,4.000000000000000327e-05,2.200000000000000078e-04,9.499999999999999981e-04,4.599999999999999597e-04,2.999999999999999737e-05,0.000000000000000000e+00,6.000000000000000000e+00,2.300000000000000000e+01
5.549800000000000000e+04,1.100000000000000039e-04,9.000000000000000567e-05,4.000000000000000327e-05,2.200000000000000078e-04,9.499999999999999981e-04,4.599999999999999597e-04,2.999999999999999737e-05,0.000000000000000000e+00,6.000000000000000000e+00,2.300000000000000000e+01
5.549900000000000000e+04,-2.000000000000000164e-05,5.000000000000000240e-05,-6.999999999999999387e-05,-8.000000000000000654e-05,-2.900000000000000017e-04,-3.499999999999999964e-04,8.000000000000000654e-05,1.040000000000000126e-03,6.000000000000000000e+00,2.300000000000000000e+01
5.550000000000000000e+04,-2.000000000000000164e-05,5.000000000000000240e-05,-6.999999999999999387e-05,-8.000000000000000654e-05,-2.900000000000000017e-04,-3.499999999999999964e-04,8.000000000000000654e-05,1.040000000000000126e-03,6.000000000000000000e+00,2.300000000000000000e+01
5.550100000000000000e+04,2.700000000000000035e-04,-6.999999999999999387e-05,1.000000000000000082e-05,2.999999999999999737e-05,4.299999999999999894e-04,-8.300000000000001170e-04,-5.099999999999999282e-04,1.000000000000000048e-04,6.000000000000000000e+00,2.300000000000000000e+01
5.550200000000000000e+04,2.700000000000000035e-04,-6.999999999999999387e-05,1.000000000000000082e-05,2.999999999999999737e-05,4.299999999999999894e-04,-8.300000000000001170e-04,-5.099999999999999282e-04,1.000000000000000048e-04,6.000000000000000000e+00,2.300000000000000000e+01
5.550300000000000000e+04,2.700000000000000035e-04,-6.999999999999999387e-05,1.000000000000000082e-05,2.999999999999999737e-05,4.299999999999999894e-04,-8.300000000000001170e-04,-5.099999999999999282e-04,1.000000000000000048e-04,6.000000000000000000e+00,2.300000000000000000e+01
5.550400000000000000e+04,2.700000000000000035e-04,-6.999999999999999387e-05,1.000000000000000082e-05,2.999999999999999737e-05,4.299999999999999894e-04,-8.300000000000001170e-04,-5.099999999999999282e-04,1.000000000000000048e-04,6.000000000000000000e+00,2.300000000000000000e+01
5.550500000000000000e+04,2.700000000000000035e-04,-6.999999999999999387e-05,1.000000000000000082e-05,2.999999999999999737e-05,4.299999999999999894e-04,-8.300000000000001170e-04,-5.099999999999999282e-04,1.000000000000000048e-04,6.000000000000000000e+00,2.300000000000000000e+01
5.550600000000000000e+04,2.700000000000000035e-04,-6.999999999999999387e-05,1.000000000000000082e-05,2.999999999999999737e-05,4.299999999999999894e-04,-8.300000000000001170e-04,-5.099999999999999282e-04,1.000000000000000048e-04,6.000000000000000000e+00,2.300000000000000000e+01
5.550700000000000000e+04,2.700000000000000035e-04,-6.999999999999999387e-05,1.000000000000000082e-05,2.999999999999999737e-05,4.299999999999999894e-04,-8.300000000000001170e-04,-5.099999999999999282e-04,1.000000000000000048e-04,6.000000000000000000e+00,2.300000000000000000e+01
5.550800000000000000e+04,2.700000000000000035e-04,-6.999999999999999387e-05,1.000000000000000082e-05,2.999999999999999737e-05,4.299999999999999894e-04,-8.300000000000001170e-04,-5.099999999999999282e-04,1.000000000000000048e-04,6.000000000000000000e+00,2.300000000000000000e+01
5.550900000000000000e+04,2.700000000000000035e-04,-6.999999999999999387e-05,1.000000000000000082e-05,2.999999999999999737e-05,4.299999999999999894e-04,-8.300000000000001170e-04,-5.099999999999999282e-04,1.000000000000000048e-04,6.000000000000000000e+00,2.300000000000000000e+01
5.551000000000000000e+04,2.700000000000000035e-04,-6.999999999999999387e-05,1.000000000000000082e-05,2.999999999999999737e-05,4.299999999999999894e-04,-8.300000000000001170e-04,-5.099999999999999282e-04,1.000000000000000048e-04,6.000000000000000000e+00,2.300000000000000000e+01
5.551100000000000000e+04,2.700000000000000035e-04,-6.999999999999999387e-05,1.000000000000000082e-05,2.999999999999999737e-05,4.299999999999999894e-04,-8.300000000000001170e-04,-5.099999999999999282e-04,1.000000000000000048e-04,6.000000000000000000e+00,2.300000000000000000e+01
5.551200000000000000e+04,2.700000000000000035e-04,-6.999999999999999387e-05,1.000000000000000082e-05,2.999999999999999737e-05,4.299999999999999894e-04,-8.300000000000001170e-04,-5.099999999999999282e-04,1.000000000000000048e-04,6.000000000000000000e+00,2.300000000000000000e+01
5.551300000000000000e+04,2.000000000000000096e-04,1.000000000000000082e-05,2.999999999999999737e-05,8.000000000000000654e-05,1.269999999999999862e-03,1.170000000000000033e-03,4.099999999999999912e-04,-5.500000000000000331e-04,6.000000000000000000e+00,2.300000000000000000e+01
5.551400000000000000e+04,2.000000000000000096e-04,1.000000000000000082e-05,2.999999999999999737e-05,8.000000000000000654e-05,1.269999999999999862e-03,1.170000000000000033e-03,4.099999999999999912e-04,-5.500000000000000331e-04,6.000000000000000000e+00,2.300000000000000000e+01
5.551500000000000000e+04,2.000000000000000096e-04,1.000000000000000082e-05,2.999999999999999737e-05,8.000000000000000654e-05,1.269999999999999862e-03,1.170000000000000033e-03,4.099999999999999912e-04,-5.500000000000000331e-04,6.000000000000000000e+00,2.300000000000000000e+01
5.551600000000000000e+04,2.000000000000000096e-04,1.000000000000000082e-05,2.999999999999999737e-05,8.000000000000000654e-05,1.269999999999999862e-03,1.170000000000000033e-03,4.099999999999999912e-04,-5.500000000000000331e-04,6.000000000000000000e+00,2.300000000000000000e+01
5.551700000000000000e+04,2.000000000000000096e-04,1.000000000000000082e-05,2.999999999999999737e-05,8.000000000000000654e-05,1.269999999999999862e-03,1.170000000000000033e-03,4.099999999999999912e-04,-5.500000000000000331e-04,6.000000000000000000e+00,2.300000000000000000e+01
5.551800000000000000e+04,2.000000000000000096e-04,1.000000000000000082e-05,2.999999999999999737e-05,8.000000000000000654e-05,1.269999999999999862e-03,1.170000000000000033e-03,4.099999999999999912e-04,-5.500000000000000331e-04,6.000000000000000000e+00,2.300000000000000000e+01
5.551900000000000000e+04,2.000000000000000096e-04,1.000000000000000082e-05,2.999999999999999737e-05,8.000000000000000654e-05,1.269999999999999862e-03,1.170000000000000033e-03,4.099999999999999912e-04,-5.500000000000000331e-04,6.000000000000000000e+00,2.300000000000000000e+01
5.552000000000000000e+04,2.000000000000000096e-04,1.000000000000000082e-05,2.999999999999999737e-05,8.000000000000000654e-05,1.269999999999999862e-03,1.170000000000000033e-03,4.099999999999999912e-04,-5.500000000000000331e-04,6.000000000000000000e+00,2.300000000000000000e+01
5.552100000000000000e+04,2.000000000000000096e-04,1.000000000000000082e-05,2.999999999999999737e-05,8.000000000000000654e-05,1.269999999999999862e-03,1.170000000000000033e-03,4.099999999999999912e-04,-5.500000000000000331e-04,6.000000000000000000e+00,2.300000000000000000e+01
5.552200000000000000e+04,-2.799999999999999755e-04,-5.999999999999999474e-05,-2.999999999999999737e-05,-4.000000000000000327e-05,-9.000000000000000567e-05,-1.399999999999999877e-04,-5.699999999999999772e-04,8.000000000000000654e-05,6.000000000000000000e+00,2.300000000000000000e+01
5.552300000000000000e+04,-2.799999999999999755e-04,-5.999999999999999474e-05,-2.999999999999999737e-05,-4.000000000000000327e-05,-9.000000000000000567e-05,-1.399999999999999877e-04,-5.699999999999999772e-04,8.000000000000000654e-05,6.000000000000000000e+00,2.300000000000000000e+01
5.552400000000000000e+04,-2.799999999999999755e-04,-5.999999999999999474e-05,-2.999999999999999737e-05,-4.000000000000000327e-05,-9.000000000000000567e-05,-1.399999999999999877e-04,-5.699999999999999772e-04,8.000000000000000654e-05,6.000000000000000000e+00,2.300000000000000000e+01
5.552500000000000000e+04,-2.799999999999999755e-04,-5.999999999999999474e-05,-2.999999999999999737e-05,-4.000000000000000327e-05,-9.000000000000000567e-05,-1.399999999999999877e-04,-5.699999999999999772e-04,8.000000000000000654e-05,6.000000000000000000e+00,2.300000000000000000e+01
5.552600000000000000e+04,-2.799999999999999755e-04,-5.999999999999999474e-05,-2.999999999999999737e-05,-4.000000000000000327e-05,-9.000000000000000567e-05,-1.399999999999999877e-04,-5.699999999999999772e-04,8.000000000000000654e-05,6.000000000000000000e+00,2.300000000000000000e+01
5.552700000000000000e+04,-2.799999999999999755e-04,-5.999999999999999474e-05,-2.999999999999999737e-05,-4.000000000000000327e-05,-9.000000000000000567e-05,-1.399999999999999877e-04,-5.699999999999999772e-04,8.000000000000000654e-05,6.000000000000000000e+00,2.300000000000000000e+01
5.552800000000000000e+04,-2.799999999999999755e-04,-5.999999999999999474e-05,-2.999999999999999737e-05,-4.000000000000000327e-05,-9.000000000000000567e-05,-1.399999999999999877e-04,-5.699999999999999772e-04,8.000000000000000654e-05,6.000000000000000000e+00,2.300000000000000000e+01
5.552900000000000000e+04,-2.799999999999999755e-04,-5.999999999999999474e-05,-2.999999999999999737e-05,-4.000000000000000327e-05,-9.000000000000000567e-05,-1.399999999999999877e-04,-5.699999999999999772e-04,8.000000000000000654e-05,6.000000000000000000e+00,2.300000000000000000e+01
5.553000000000000000e+04,-2.799999999999999755e-04,-5.999999999999999474e-05,-2.999999999999999737e-05,-4.000000000000000327e-05,-9.000000000000000567e-05,-1.399999999999999877e-04,-5.699999999999999772e-04,8.000000000000000654e-05,6.000000000000000000e+00,2.300000000000000000e+01
5.553100000000000000e+04,-2.799999999999999755e-04,-5.999999999999999474e-05,-2.999999999999999737e-05,-4.000000000000000327e-05,-9.000000000000000567e-05,-1.399999999999999877e-04,-5.699999999999999772e-04,8.000000000000000654e-05,6.000000000000000000e+00,2.300000000000000000e+01
5.553200000000000000e+04,-2.799999999999999755e-04,-5.999999999999999474e-05,-2.999999999999999737e-05,-4.000000000000000327e-05,-9.000000000000000567e-05,-1.399999999999999877e-04,-5.699999999999999772e-04,8.000000000000000654e-05,6.000000000000000000e+00,2.300000000000000000e+01
5.553300000000000000e+04,-2.799999999999999755e-04,-5.999999999999999474e-05,-2.999999999999999737e-05,-4.000000000000000327e-05,-9.000000000000000567e-05,-1.399999999999999877e-04,-5.699999999999999772e-04,8.000000000000000654e-05,6.000000000000000000e+00,2.300000000000000000e+01
5.553400000000000000e+04,-2.799999999999999755e-04,-5.999999999999999474e-05,-2.999999999999999737e-05,-4.000000000000000327e-05,-9.000000000000000567e-05,-1.399999999999999877e-04,-5.699999999999999772e-04,8.000000000000000654e-05,6.000000000000000000e+00,2.300000000000000000e+01
5.553500000000000000e+04,-2.799999999999999755e-04,-5.999999999999999474e-05,-2.999999999999999737e-05,-4.000000000000000327e-05,-9.000000000000000567e-05,-1.399999999999999877e-04,-5.699999999999999772e-04,8.000000000000000654e-05,6.000000000000000000e+00,2.300000000000000000e+01
5.553700000000000000e+04,-1.199999999999999895e-04,-5.000000000000000240e-05,-9.000000000000000567e-05,-2.399999999999999790e-04,-8.900000000000000576e-04,-6.900000000000000751e-04,-4.000000000000000327e-05,-2.900000000000000017e-04,6.000000000000000000e+00,2.300000000000000000e+01
5.553900000000000000e+04,-9.400000000000000803e-04,-1.000000000000000048e-04,0.000000000000000000e+00,-4.000000000000000327e-05,-2.200000000000000078e-04,-2.000000000000000096e-04,-1.199999999999999895e-04,-5.000000000000000240e-05,6.000000000000000000e+00,2.300000000000000000e+01
5.554000000000000000e+04,-9.400000000000000803e-04,-1.000000000000000048e-04,0.000000000000000000e+00,-4.000000000000000327e-05,-2.200000000000000078e-04,-2.000000000000000096e-04,-1.199999999999999895e-04,-5.000000000000000240e-05,6.000000000000000000e+00,2.300000000000000000e+01
5.554100000000000000e+04,-9.400000000000000803e-04,-1.000000000000000048e-04,0.000000000000000000e+00,-4.000000000000000327e-05,-2.200000000000000078e-04,-2.000000000000000096e-04,-1.199999999999999895e-04,-5.000000000000000240e-05,6.000000000000000000e+00,2.300000000000000000e+01
5.554200000000000000e+04,-9.400000000000000803e-04,-1.000000000000000048e-04,0.000000000000000000e+00,-4.000000000000000327e-05,-2.200000000000000078e-04,-2.000000000000000096e-04,-1.199999999999999895e-04,-5.000000000000000240e-05,6.000000000000000000e+00,2.300000000000000000e+01
5.554300000000000000e+04,-9.400000000000000803e-04,-1.000000000000000048e-04,0.000000000000000000e+00,-4.000000000000000327e-05,-2.200000000000000078e-04,-2.000000000000000096e-04,-1.199999999999999895e-04,-5.000000000000000240e-05,6.000000000000000000e+00,2.300000000000000000e+01
5.554400000000000000e+04,-9.400000000000000803e-04,-1.000000000000000048e-04,0.000000000000000000e+00,-4.000000000000000327e-05,-2.200000000000000078e-04,-2.000000000000000096e-04,-1.199999999999999895e-04,-5.000000000000000240e-05,6.000000000000000000e+00,2.300000000000000000e+01
5.554500000000000000e+04,-9.400000000000000803e-04,-1.000000000000000048e-04,0.000000000000000000e+00,-4.000000000000000327e-05,-2.200000000000000078e-04,-2.000000000000000096e-04,-1.199999999999999895e-04,-5.000000000000000240e-05,6.000000000000000000e+00,2.300000000000000000e+01
5.554600000000000000e+04,-9.400000000000000803e-04,-1.000000000000000048e-04,0.000000000000000000e+00,-4.000000000000000327e-05,-2.200000000000000078e-04,-2.000000000000000096e-04,-1.199999999999999895e-04,-5.000000000000000240e-05,6.000000000000000000e+00,2.300000000000000000e+01
5.554700000000000000e+04,-9.400000000000000803e-04,-1.000000000000000048e-04,0.000000000000000000e+00,-4.000000000000000327e-05,-2.200000000000000078e-04,-2.000000000000000096e-04,-1.199999999999999895e-04,-5.000000000000000240e-05,6.000000000000000000e+00,2.300000000000000000e+01
5.554800000000000000e+04,-9.400000000000000803e-04,-1.000000000000000048e-04,0.000000000000000000e+00,-4.000000000000000327e-05,-2.200000000000000078e-04,-2.000000000000000096e-04,-1.199999999999999895e-04,-5.000000000000000240e-05,6.000000000000000000e+00,2.300000000000000000e+01
5.554900000000000000e+04,-9.400000000000000803e-04,-1.000000000000000048e-04,0.000000000000000000e+00,-4.000000000000000327e-05,-2.200000000000000078e-04,-2.000000000000000096e-04,-1.199999999999999895e-04,-5.000000000000000240e-05,6.000000000000000000e+00,2.300000000000000000e+01
5.555000000000000000e+04,-9.400000000000000803e-04,-1.000000000000000048e-04,0.000000000000000000e+00,-4.000000000000000327e-05,-2.200000000000000078e-04,-2.000000000000000096e-04,-1.199999999999999895e-04,-5.000000000000000240e-05,6.000000000000000000e+00,2.300000000000000000e+01
5.555100000000000000e+04,-9.400000000000000803e-04,-1.000000000000000048e-04,0.000000000000000000e+00,-4.000000000000000327e-05,-2.200000000000000078e-04,-2.000000000000000096e-04,-1.199999999999999895e-04,-5.000000000000000240e-05,6.000000000000000000e+00,2.300000000000000000e+01
5.555200000000000000e+04,-9.400000000000000803e-04,-1.000000000000000048e-04,0.000000000000000000e+00,-4.000000000000000327e-05,-2.200000000000000078e-04,-2.000000000000000096e-04,-1.199999999999999895e-04,-5.000000000000000240e-05,6.000000000000000000e+00,2.300000000000000000e+01
5.555300000000000000e+04,-9.400000000000000803e-04,-1.000000000000000048e-04,0.000000000000000000e+00,-4.000000000000000327e-05,-2.200000000000000078e-04,-2.000000000000000096e-04,-1.199999999999999895e-04,-5.000000000000000240e-05,6.000000000000000000e+00,2.300000000000000000e+01
5.555400000000000000e+04,-9.400000000000000803e-04,-1.000000000000000048e-04,0.000000000000000000e+00,-4.000000000000000327e-05,-2.200000000000000078e-04,-2.000000000000000096e-04,-1.199999999999999895e-04,-5.000000000000000240e-05,6.000000000000000000e+00,2.300000000000000000e+01
5.555500000000000000e+04,-9.400000000000000803e-04,-1.000000000000000048e-04,0.000000000000000000e+00,-4.000000000000000327e-05,-2.200000000000000078e-04,-2.000000000000000096e-04,-1.199999999999999895e-04,-5.000000000000000240e-05,6.000000000000000000e+00,2.300000000000000000e+01
5.555600000000000000e+04,-9.400000000000000803e-04,-1.000000000000000048e-04,0.000000000000000000e+00,-4.000000000000000327e-05,-2.200000000000000078e-04,-2.000000000000000096e-04,-1.199999999999999895e-04,-5.000000000000000240e-05,6.000000000000000000e+00,2.300000000000000000e+01
5.555700000000000000e+04,-9.400000000000000803e-04,-1.000000000000000048e-04,0.000000000000000000e+00,-4.000000000000000327e-05,-2.200000000000000078e-04,-2.000000000000000096e-04,-1.199999999999999895e-04,-5.000000000000000240e-05,6.000000000000000000e+00,2.300000000000000000e+01
5.555800000000000000e+04,-9.400000000000000803e-04,-1.000000000000000048e-04,0.000000000000000000e+00,-4.000000000000000327e-05,-2.200000000000000078e-04,-2.000000000000000096e-04,-1.199999999999999895e-04,-5.000000000000000240e-05,6.000000000000000000e+00,2.300000000000000000e+01
5.555900000000000000e+04,5.099999999999999282e-04,4.000000000000000327e-05,0.000000000000000000e+00,-4.000000000000000327e-05,2.000000000000000164e-05,1.100000000000000039e-04,-8.599999999999999789e-04,6.999999999999999387e-05,6.000000000000000000e+00,2.300000000000000000e+01
5.556000000000000000e+04,6.999999999999999387e-05,4.000000000000000327e-05,-2.000000000000000164e-05,0.000000000000000000e+00,-3.200000000000000262e-04,-9.000000000000000567e-05,-4.200000000000000174e-04,5.999999999999999474e-05,6.000000000000000000e+00,2.300000000000000000e+01
5.556100000000000000e+04,-5.699999999999999772e-04,-9.000000000000000567e-05,-4.000000000000000327e-05,1.600000000000000131e-04,2.600000000000000314e-04,6.599999999999999964e-04,5.099999999999999282e-04,4.099999999999999912e-04,6.000000000000000000e+00,2.300000000000000000e+01
5.556200000000000000e+04,-5.699999999999999772e-04,-9.000000000000000567e-05,-4.000000000000000327e-05,1.600000000000000131e-04,2.600000000000000314e-04,6.599999999999999964e-04,5.099999999999999282e-04,4.099999999999999912e-04,6.000000000000000000e+00,2.300000000000000000e+01
5.556300000000000000e+04,-5.699999999999999772e-04,-9.000000000000000567e-05,-4.000000000000000327e-05,1.600000000000000131e-04,2.600000000000000314e-04,6.599999999999999964e-04,5.099999999999999282e-04,4.099999999999999912e-04,6.000000000000000000e+00,2.300000000000000000e+01
5.556400000000000000e+04,-5.699999999999999772e-04,-9.000000000000000567e-05,-4.000000000000000327e-05,1.600000000000000131e-04,2.600000000000000314e-04,6.599999999999999964e-04,5.099999999999999282e-04,4.099999999999999912e-04,6.000000000000000000e+00,2.300000000000000000e+01
5.556500000000000000e+04,-5.699999999999999772e-04,-9.000000000000000567e-05,-4.000000000000000327e-05,1.600000000000000131e-04,2.600000000000000314e-04,6.599999999999999964e-04,5.099999999999999282e-04,4.099999999999999912e-04,6.000000000000000000e+00,2.300000000000000000e+01
5.556600000000000000e+04,-5.699999999999999772e-04,-9.000000000000000567e-05,-4.000000000000000327e-05,1.600000000000000131e-04,2.600000000000000314e-04,6.599999999999999964e-04,5.099999999999999282e-04,4.099999999999999912e-04,6.000000000000000000e+00,2.300000000000000000e+01
5.556700000000000000e+04,-5.699999999999999772e-04,-9.000000000000000567e-05,-4.000000000000000327e-05,1.600000000000000131e-04,2.600000000000000314e-04,6.599999999999999964e-04,5.099999999999999282e-04,4.099999999999999912e-04,6.000000000000000000e+00,2.300000000000000000e+01
5.556800000000000000e+04,-5.699999999999999772e-04,-9.000000000000000567e-05,-4.000000000000000327e-05,1.600000000000000131e-04,2.600000000000000314e-04,6.599999999999999964e-04,5.099999999999999282e-04,4.099999999999999912e-04,6.000000000000000000e+00,2.300000000000000000e+01
5.556900000000000000e+04,-5.699999999999999772e-04,-9.000000000000000567e-05,-4.000000000000000327e-05,1.600000000000000131e-04,2.600000000000000314e-04,6.599999999999999964e-04,5.099999999999999282e-04,4.099999999999999912e-04,6.000000000000000000e+00,2.300000000000000000e+01
5.557000000000000000e+04,-5.699999999999999772e-04,-9.000000000000000567e-05,-4.000000000000000327e-05,1.600000000000000131e-04,2.600000000000000314e-04,6.599999999999999964e-04,5.099999999999999282e-04,4.099999999999999912e-04,6.000000000000000000e+00,2.300000000000000000e+01
5.557100000000000000e+04,-5.699999999999999772e-04,-9.000000000000000567e-05,-4.000000000000000327e-05,1.600000000000000131e-04,2.600000000000000314e-04,6.599999999999999964e-04,5.099999999999999282e-04,4.099999999999999912e-04,6.000000000000000000e+00,2.300000000000000000e+01
5.557200000000000000e+04,-5.699999999999999772e-04,-9.000000000000000567e-05,-4.000000000000000327e-05,1.600000000000000131e-04,2.600000000000000314e-04,6.599999999999999964e-04,5.099999999999999282e-04,4.099999999999999912e-04,6.000000000000000000e+00,2.300000000000000000e+01
5.557300000000000000e+04,-9.100000000000000016e-04,-1.199999999999999895e-04,2.000000000000000164e-05,1.100000000000000039e-04,2.999999999999999737e-04,-1.600000000000000131e-04,-2.999999999999999737e-04,2.000000000000000164e-05,6.000000000000000000e+00,2.300000000000000000e+01
5.557400000000000000e+04,-9.100000000000000016e-04,-1.199999999999999895e-04,2.000000000000000164e-05,1.100000000000000039e-04,2.999999999999999737e-04,-1.600000000000000131e-04,-2.999999999999999737e-04,2.000000000000000164e-05,6.000000000000000000e+00,2.300000000000000000e+01
5.557500000000000000e+04,-9.100000000000000016e-04,-1.199999999999999895e-04,2.000000000000000164e-05,1.100000000000000039e-04,2.999999999999999737e-04,-1.600000000000000131e-04,-2.999999999999999737e-04,2.000000000000000164e-05,6.000000000000000000e+00,2.300000000000000000e+01
5.557600000000000000e+04,-9.100000000000000016e-04,-1.199999999999999895e-04,2.000000000000000164e-05,1.100000000000000039e-04,2.999999999999999737e-04,-1.600000000000000131e-04,-2.999999999999999737e-04,2.000000000000000164e-05,6.000000000000000000e+00,2.300000000000000000e+01
5.557700000000000000e+04,-9.100000000000000016e-04,-1.199999999999999895e-04,2.000000000000000164e-05,1.100000000000000039e-04,2.999999999999999737e-04,-1.600000000000000131e-04,-2.999999999999999737e-04,2.000000000000000164e-05,6.000000000000000000e+00,2.300000000000000000e+01
5.557800000000000000e+04,-9.100000000000000016e-04,-1.199999999999999895e-04,2.000000000000000164e-05,1.100000000000000039e-04,2.999999999999999737e-04,-1.600000000000000131e-04,-2.999999999999999737e-04,2.000000000000000164e-05,6.000000000000000000e+00,2.300000000000000000e+01
5.557900000000000000e+04,-9.100000000000000016e-04,-1.199999999999999895e-04,2.000000000000000164e-05,1.100000000000000039e-04,2.999999999999999737e-04,-1.600000000000000131e-04,-2.999999999999999737e-04,2.000000000000000164e-05,6.000000000000000000e+00,2.300000000000000000e+01
5.558000000000000000e+04,-9.100000000000000016e-04,-1.199999999999999895e-04,2.000000000000000164e-05,1.100000000000000039e-04,2.999999999999999737e-04,-1.600000000000000131e-04,-2.999999999999999737e-04,2.000000000000000164e-05,6.000000000000000000e+00,2.300000000000000000e+01
5.558100000000000000e+04,-9.100000000000000016e-04,-1.199999999999999895e-04,2.000000000000000164e-05,1.100000000000000039e-04,2.999999999999999737e-04,-1.600000000000000131e-04,-2.999999999999999737e-04,2.000000000000000164e-05,6.000000000000000000e+00,2.300000000000000000e+01
5.558200000000000000e+04,0.000000000000000000e+00,1.000000000000000082e-05,-2.000000000000000164e-05,-1.199999999999999895e-04,-3.899999999999999929e-04,4.200000000000000174e-04,-2.399999999999999790e-04,2.700000000000000035e-04,6.000000000000000000e+00,2.300000000000000000e+01
5.558300000000000000e+04,0.000000000000000000e+00,1.000000000000000082e-05,-2.000000000000000164e-05,-1.199999999999999895e-04,-3.899999999999999929e-04,4.200000000000000174e-04,-2.399999999999999790e-04,2.700000000000000035e-04,6.000000000000000000e+00,2.300000000000000000e+01
5.558400000000000000e+04,0.000000000000000000e+00,1.000000000000000082e-05,-2.000000000000000164e-05,-1.199999999999999895e-04,-3.899999999999999929e-04,4.200000000000000174e-04,-2.399999999999999790e-04,2.700000000000000035e-04,6.000000000000000000e+00,2.300000000000000000e+01
5.558500000000000000e+04,0.000000000000000000e+00,1.000000000000000082e-05,-2.000000000000000164e-05,-1.199999999999999895e-04,-3.899999999999999929e-04,4.200000000000000174e-04,-2.399999999999999790e-04,2.700000000000000035e-04,6.000000000000000000e+00,2.300000000000000000e+01
5.558700000000000000e+04,0.000000000000000000e+00,1.000000000000000082e-05,-2.000000000000000164e-05,-1.199999999999999895e-04,-3.899999999999999929e-04,4.200000000000000174e-04,-2.399999999999999790e-04,2.700000000000000035e-04,6.000000000000000000e+00,2.300000000000000000e+01
5.558900000000000000e+04,0.000000000000000000e+00,1.000000000000000082e-05,-2.000000000000000164e-05,-1.199999999999999895e-04,-3.899999999999999929e-04,4.200000000000000174e-04,-2.399999999999999790e-04,2.700000000000000035e-04,6.000000000000000000e+00,2.300000000000000000e+01
5.559000000000000000e+04,0.000000000000000000e+00,1.000000000000000082e-05,-2.000000000000000164e-05,-1.199999999999999895e-04,-3.899999999999999929e-04,4.200000000000000174e-04,-2.399999999999999790e-04,2.700000000000000035e-04,6.000000000000000000e+00,2.300000000000000000e+01
5.559100000000000000e+04,0.000000000000000000e+00,1.000000000000000082e-05,-2.000000000000000164e-05,-1.199999999999999895e-04,-3.899999999999999929e-04,4.200000000000000174e-04,-2.399999999999999790e-04,2.700000000000000035e-04,6.000000000000000000e+00,2.300000000000000000e+01
5.559200000000000000e+04,0.000000000000000000e+00,1.000000000000000082e-05,-2.000000000000000164e-05,-1.199999999999999895e-04,-3.899999999999999929e-04,4.200000000000000174e-04,-2.399999999999999790e-04,2.700000000000000035e-04,6.000000000000000000e+00,2.300000000000000000e+01
5.559300000000000000e+04,0.000000000000000000e+00,1.000000000000000082e-05,-2.000000000000000164e-05,-1.199999999999999895e-04,-3.899999999999999929e-04,4.200000000000000174e-04,-2.399999999999999790e-04,2.700000000000000035e-04,6.000000000000000000e+00,2.300000000000000000e+01
5.559400000000000000e+04,0.000000000000000000e+00,1.000000000000000082e-05,-2.000000000000000164e-05,-1.199999999999999895e-04,-3.899999999999999929e-04,4.200000000000000174e-04,-2.399999999999999790e-04,2.700000000000000035e-04,6.000000000000000000e+00,2.300000000000000000e+01
5.559500000000000000e+04,0.000000000000000000e+00,1.000000000000000082e-05,-2.000000000000000164e-05,-1.199999999999999895e-04,-3.899999999999999929e-04,4.200000000000000174e-04,-2.399999999999999790e-04,2.700000000000000035e-04,6.000000000000000000e+00,2.300000000000000000e+01
5.559600000000000000e+04,0.000000000000000000e+00,1.000000000000000082e-05,-2.000000000000000164e-05,-1.199999999999999895e-04,-3.899999999999999929e-04,4.200000000000000174e-04,-2.399999999999999790e-04,2.700000000000000035e-04,6.000000000000000000e+00,2.300000000000000000e+01
5.559700000000000000e+04,9.000000000000000567e-05,5.999999999999999474e-05,2.000000000000000164e-05,-2.000000000000000164e-05,5.999999999999999474e-05,4.000000000000000327e-05,6.999999999999999387e-05,5.500000000000000331e-04,6.000000000000000000e+00,2.300000000000000000e+01
5.559800000000000000e+04,5.999999999999999474e-04,1.100000000000000039e-04,1.000000000000000082e-05,-1.000000000000000082e-05,4.000000000000000327e-05,-2.500000000000000052e-04,3.899999999999999929e-04,-1.699999999999999851e-04,6.000000000000000000e+00,2.300000000000000000e+01
5.559900000000000000e+04,5.999999999999999474e-04,1.100000000000000039e-04,1.000000000000000082e-05,-1.000000000000000082e-05,4.000000000000000327e-05,-2.500000000000000052e-04,3.899999999999999929e-04,-1.699999999999999851e-04,6.000000000000000000e+00,2.300000000000000000e+01
5.560000000000000000e+04,5.999999999999999474e-04,1.100000000000000039e-04,1.000000000000000082e-05,-1.000000000000000082e-05,4.000000000000000327e-05,-2.500000000000000052e-04,3.899999999999999929e-04,-1.699999999999999851e-04,6.000000000000000000e+00,2.300000000000000000e+01
5.560100000000000000e+04,5.999999999999999474e-04,1.100000000000000039e-04,1.000000000000000082e-05,-1.000000000000000082e-05,4.000000000000000327e-05,-2.500000000000000052e-04,3.899999999999999929e-04,-1.699999999999999851e-04,6.000000000000000000e+00,2.300000000000000000e+01
5.560200000000000000e+04,5.999999999999999474e-04,1.100000000000000039e-04,1.000000000000000082e-05,-1.000000000000000082e-05,4.000000000000000327e-05,-2.500000000000000052e-04,3.899999999999999929e-04,-1.699999999999999851e-04,6.000000000000000000e+00,2.300000000000000000e+01
5.560300000000000000e+04,5.999999999999999474e-04,1.100000000000000039e-04,1.000000000000000082e-05,-1.000000000000000082e-05,4.000000000000000327e-05,-2.500000000000000052e-04,3.899999999999999929e-04,-1.699999999999999851e-04,6.000000000000000000e+00,2.300000000000000000e+01
5.560400000000000000e+04,5.999999999999999474e-04,1.100000000000000039e-04,1.000000000000000082e-05,-1.000000000000000082e-05,4.000000000000000327e-05,-2.500000000000000052e-04,3.899999999999999929e-04,-1.699999999999999851e-04,6.000000000000000000e+00,2.300000000000000000e+01
5.560500000000000000e+04,5.999999999999999474e-04,1.100000000000000039e-04,1.000000000000000082e-05,-1.000000000000000082e-05,4.000000000000000327e-05,-2.500000000000000052e-04,3.899999999999999929e-04,-1.699999999999999851e-04,6.000000000000000000e+00,2.300000000000000000e+01
5.560600000000000000e+04,5.999999999999999474e-04,1.100000000000000039e-04,1.000000000000000082e-05,-1.000000000000000082e-05,4.000000000000000327e-05,-2.500000000000000052e-04,3.899999999999999929e-04,-1.699999999999999851e-04,6.000000000000000000e+00,2.300000000000000000e+01
5.560700000000000000e+04,5.999999999999999474e-04,1.100000000000000039e-04,1.000000000000000082e-05,-1.000000000000000082e-05,4.000000000000000327e-05,-2.500000000000000052e-04,3.899999999999999929e-04,-1.699999999999999851e-04,6.000000000000000000e+00,2.300000000000000000e+01
5.560800000000000000e+04,5.999999999999999474e-04,1.100000000000000039e-04,1.000000000000000082e-05,-1.000000000000000082e-05,4.000000000000000327e-05,-2.500000000000000052e-04,3.899999999999999929e-04,-1.699999999999999851e-04,6.000000000000000000e+00,2.300000000000000000e+01
5.560900000000000000e+04,5.999999999999999474e-04,1.100000000000000039e-04,1.000000000000000082e-05,-1.000000000000000082e-05,4.000000000000000327e-05,-2.500000000000000052e-04,3.899999999999999929e-04,-1.699999999999999851e-04,6.000000000000000000e+00,2.300000000000000000e+01
5.561000000000000000e+04,5.999999999999999474e-04,1.100000000000000039e-04,1.000000000000000082e-05,-1.000000000000000082e-05,4.000000000000000327e-05,-2.500000000000000052e-04,3.899999999999999929e-04,-1.699999999999999851e-04,6.000000000000000000e+00,2.300000000000000000e+01
5.561100000000000000e+04,5.999999999999999474e-04,1.100000000000000039e-04,1.000000000000000082e-05,-1.000000000000000082e-05,4.000000000000000327e-05,-2.500000000000000052e-04,3.899999999999999929e-04,-1.699999999999999851e-04,6.000000000000000000e+00,2.300000000000000000e+01
5.561200000000000000e+04,5.999999999999999474e-04,1.100000000000000039e-04,1.000000000000000082e-05,-1.000000000000000082e-05,4.000000000000000327e-05,-2.500000000000000052e-04,3.899999999999999929e-04,-1.699999999999999851e-04,6.000000000000000000e+00,2.300000000000000000e+01
5.561300000000000000e+04,5.999999999999999474e-04,1.100000000000000039e-04,1.000000000000000082e-05,-1.000000000000000082e-05,4.000000000000000327e-05,-2.500000000000000052e-04,3.899999999999999929e-04,-1.699999999999999851e-04,6.000000000000000000e+00,2.300000000000000000e+01
5.561400000000000000e+04,5.999999999999999474e-04,1.100000000000000039e-04,1.000000000000000082e-05,-1.000000000000000082e-05,4.000000000000000327e-05,-2.500000000000000052e-04,3.899999999999999929e-04,-1.699999999999999851e-04,6.000000000000000000e+00,2.300000000000000000e+01
5.561500000000000000e+04,5.999999999999999474e-04,1.100000000000000039e-04,1.000000000000000082e-05,-1.000000000000000082e-05,4.000000000000000327e-05,-2.500000000000000052e-04,3.899999999999999929e-04,-1.699999999999999851e-04,6.000000000000000000e+00,2.300000000000000000e+01
5.561600000000000000e+04,5.999999999999999474e-04,1.100000000000000039e-04,1.000000000000000082e-05,-1.000000000000000082e-05,4.000000000000000327e-05,-2.500000000000000052e-04,3.899999999999999929e-04,-1.699999999999999851e-04,6.000000000000000000e+00,2.300000000000000000e+01
5.561700000000000000e+04,5.999999999999999474e-04,1.100000000000000039e-04,1.000000000000000082e-05,-1.000000000000000082e-05,4.000000000000000327e-05,-2.500000000000000052e-04,3.899999999999999929e-04,-1.699999999999999851e-04,6.000000000000000000e+00,2.300000000000000000e+01
5.561800000000000000e+04,5.999999999999999474e-04,1.100000000000000039e-04,1.000000000000000082e-05,-1.000000000000000082e-05,4.000000000000000327e-05,-2.500000000000000052e-04,3.899999999999999929e-04,-1.699999999999999851e-04,6.000000000000000000e+00,2.300000000000000000e+01
5.561900000000000000e+04,5.099999999999999282e-04,1.699999999999999851e-04,0.000000000000000000e+00,-1.000000000000000082e-05,1.899999999999999834e-04,5.400000000000000069e-04,4.899999999999999842e-04,5.099999999999999282e-04,6.000000000000000000e+00,2.300000000000000000e+01
5.562000000000000000e+04,5.099999999999999282e-04,1.699999999999999851e-04,0.000000000000000000e+00,-1.000000000000000082e-05,1.899999999999999834e-04,5.400000000000000069e-04,4.899999999999999842e-04,5.099999999999999282e-04,6.000000000000000000e+00,2.300000000000000000e+01
5.562100000000000000e+04,4.899999999999999842e-04,-2.000000000000000164e-05,-5.000000000000000240e-05,-6.999999999999999387e-05,-2.700000000000000035e-04,-3.200000000000000262e-04,1.000000000000000082e-05,1.000000000000000082e-05,6.000000000000000000e+00,2.300000000000000000e+01
5.562200000000000000e+04,4.899999999999999842e-04,-2.000000000000000164e-05,-5.000000000000000240e-05,-6.999999999999999387e-05,-2.700000000000000035e-04,-3.200000000000000262e-04,1.000000000000000082e-05,1.000000000000000082e-05,6.000000000000000000e+00,2.300000000000000000e+01
5.562300000000000000e+04,4.899999999999999842e-04,-2.000000000000000164e-05,-5.000000000000000240e-05,-6.999999999999999387e-05,-2.700000000000000035e-04,-3.200000000000000262e-04,1.000000000000000082e-05,1.000000000000000082e-05,6.000000000000000000e+00,2.300000000000000000e+01
5.562400000000000000e+04,4.899999999999999842e-04,-2.000000000000000164e-05,-5.000000000000000240e-05,-6.999999999999999387e-05,-2.700000000000000035e-04,-3.200000000000000262e-04,1.000000000000000082e-05,1.000000000000000082e-05,6.000000000000000000e+00,2.300000000000000000e+01
5.562500000000000000e+04,4.899999999999999842e-04,-2.000000000000000164e-05,-5.000000000000000240e-05,-6.999999999999999387e-05,-2.700000000000000035e-04,-3.200000000000000262e-04,1.000000000000000082e-05,1.000000000000000082e-05,6.000000000000000000e+00,2.300000000000000000e+01
5.562600000000000000e+04,4.899999999999999842e-04,-2.000000000000000164e-05,-5.000000000000000240e-05,-6.999999999999999387e-05,-2.700000000000000035e-04,-3.200000000000000262e-04,1.000000000000000082e-05,1.000000000000000082e-05,6.000000000000000000e+00,2.300000000000000000e+01
5.562700000000000000e+04,4.899999999999999842e-04,-2.000000000000000164e-05,-5.000000000000000240e-05,-6.999999999999999387e-05,-2.700000000000000035e-04,-3.200000000000000262e-04,1.000000000000000082e-05,1.000000000000000082e-05,6.000000000000000000e+00,2.300000000000000000e+01
5.562800000000000000e+04,4.899999999999999842e-04,-2.000000000000000164e-05,-5.000000000000000240e-05,-6.999999999999999387e-05,-2.700000000000000035e-04,-3.200000000000000262e-04,1.000000000000000082e-05,1.000000000000000082e-05,6.000000000000000000e+00,2.300000000000000000e+01
5.562900000000000000e+04,4.899999999999999842e-04,-2.000000000000000164e-05,-5.000000000000000240e-05,-6.999999999999999387e-05,-2.700000000000000035e-04,-3.200000000000000262e-04,1.000000000000000082e-05,1.000000000000000082e-05,6.000000000000000000e+00,2.300000000000000000e+01
5.563000000000000000e+04,4.899999999999999842e-04,-2.000000000000000164e-05,-5.000000000000000240e-05,-6.999999999999999387e-05,-2.700000000000000035e-04,-3.200000000000000262e-04,1.000000000000000082e-05,1.000000000000000082e-05,6.000000000000000000e+00,2.300000000000000000e+01
5.563100000000000000e+04,4.899999999999999842e-04,-2.000000000000000164e-05,-5.000000000000000240e-05,-6.999999999999999387e-05,-2.700000000000000035e-04,-3.200000000000000262e-04,1.000000000000000082e-05,1.000000000000000082e-05,6.000000000000000000e+00,2.300000000000000000e+01
5.563200000000000000e+04,4.899999999999999842e-04,-2.000000000000000164e-05,-5.000000000000000240e-05,-6.999999999999999387e-05,-2.700000000000000035e-04,-3.200000000000000262e-04,1.000000000000000082e-05,1.000000000000000082e-05,6.000000000000000000e+00,2.300000000000000000e+01
5.563300000000000000e+04,-2.799999999999999755e-04,-1.000000000000000082e-05,-2.999999999999999737e-05,-1.100000000000000039e-04,-3.299999999999999982e-04,6.999999999999999387e-05,1.100000000000000039e-04,-2.500000000000000052e-04,6.000000000000000000e+00,2.300000000000000000e+01
5.563400000000000000e+04,-2.799999999999999755e-04,-1.000000000000000082e-05,-2.999999999999999737e-05,-1.100000000000000039e-04,-3.299999999999999982e-04,6.999999999999999387e-05,1.100000000000000039e-04,-2.500000000000000052e-04,6.000000000000000000e+00,2.300000000000000000e+01
5.563500000000000000e+04,-2.799999999999999755e-04,-1.000000000000000082e-05,-2.999999999999999737e-05,-1.100000000000000039e-04,-3.299999999999999982e-04,6.999999999999999387e-05,1.100000000000000039e-04,-2.500000000000000052e-04,6.000000000000000000e+00,2.300000000000000000e+01
5.563700000000000000e+04,-2.799999999999999755e-04,-1.000000000000000082e-05,-2.999999999999999737e-05,-1.100000000000000039e-04,-3.299999999999999982e-04,6.999999999999999387e-05,1.100000000000000039e-04,-2.500000000000000052e-04,6.000000000000000000e+00,2.300000000000000000e+01
5.563900000000000000e+04,-2.799999999999999755e-04,-1.000000000000000082e-05,-2.999999999999999737e-05,-1.100000000000000039e-04,-3.299999999999999982e-04,6.999999999999999387e-05,1.100000000000000039e-04,-2.500000000000000052e-04,6.000000000000000000e+00,2.300000000000000000e+01
5.564000000000000000e+04,-2.799999999999999755e-04,-1.000000000000000082e-05,-2.999999999999999737e-05,-1.100000000000000039e-04,-3.299999999999999982e-04,6.999999999999999387e-05,1.100000000000000039e-04,-2.500000000000000052e-04,6.000000000000000000e+00,2.300000000000000000e+01
5.564100000000000000e+04,-2.799999999999999755e-04,-1.000000000000000082e-05,-2.999999999999999737e-05,-1.100000000000000039e-04,-3.299999999999999982e-04,6.999999999999999387e-05,1.100000000000000039e-04,-2.500000000000000052e-04,6.000000000000000000e+00,2.300000000000000000e+01
5.564200000000000000e+04,-2.200000000000000078e-04,2.000000000000000164e-05,4.000000000000000327e-05,5.000000000000000240e-05,9.000000000000000567e-05,-1.100000000000000039e-04,-1.600000000000000131e-04,-1.100000000000000039e-04,6.000000000000000000e+00,2.300000000000000000e+01
5.564300000000000000e+04,-2.200000000000000078e-04,2.000000000000000164e-05,4.000000000000000327e-05,5.000000000000000240e-05,9.000000000000000567e-05,-1.100000000000000039e-04,-1.600000000000000131e-04,-1.100000000000000039e-04,6.000000000000000000e+00,2.300000000000000000e+01
5.564400000000000000e+04,-2.200000000000000078e-04,2.000000000000000164e-05,4.000000000000000327e-05,5.000000000000000240e-05,9.000000000000000567e-05,-1.100000000000000039e-04,-1.600000000000000131e-04,-1.100000000000000039e-04,6.000000000000000000e+00,2.300000000000000000e+01
5.564500000000000000e+04,-2.200000000000000078e-04,2.000000000000000164e-05,4.000000000000000327e-05,5.000000000000000240e-05,9.000000000000000567e-05,-1.100000000000000039e-04,-1.600000000000000131e-04,-1.100000000000000039e-04,6.000000000000000000e+00,2.300000000000000000e+01
5.564600000000000000e+04,-2.200000000000000078e-04,2.000000000000000164e-05,4.000000000000000327e-05,5.000000000000000240e-05,9.000000000000000567e-05,-1.100000000000000039e-04,-1.600000000000000131e-04,-1.100000000000000039e-04,6.000000000000000000e+00,2.300000000000000000e+01
5.564700000000000000e+04,-2.200000000000000078e-04,2.000000000000000164e-05,4.000000000000000327e-05,5.000000000000000240e-05,9.000000000000000567e-05,-1.100000000000000039e-04,-1.600000000000000131e-04,-1.100000000000000039e-04,6.000000000000000000e+00,2.300000000000000000e+01
5.564800000000000000e+04,-2.200000000000000078e-04,2.000000000000000164e-05,4.000000000000000327e-05,5.000000000000000240e-05,9.000000000000000567e-05,-1.100000000000000039e-04,-1.600000000000000131e-04,-1.100000000000000039e-04,6.000000000000000000e+00,2.300000000000000000e+01
5.564900000000000000e+04,-2.200000000000000078e-04,2.000000000000000164e-05,4.000000000000000327e-05,5.000000000000000240e-05,9.000000000000000567e-05,-1.100000000000000039e-04,-1.600000000000000131e-04,-1.100000000000000039e-04,6.000000000000000000e+00,2.300000000000000000e+01
5.565000000000000000e+04,-2.200000000000000078e-04,2.000000000000000164e-05,4.000000000000000327e-05,5.000000000000000240e-05,9.000000000000000567e-05,-1.100000000000000039e-04,-1.600000000000000131e-04,-1.100000000000000039e-04,6.000000000000000000e+00,2.300000000000000000e+01
5.565100000000000000e+04,-2.200000000000000078e-04,2.000000000000000164e-05,4.000000000000000327e-05,5.000000000000000240e-05,9.000000000000000567e-05,-1.100000000000000039e-04,-1.600000000000000131e-04,-1.100000000000000039e-04,6.000000000000000000e+00,2.300000000000000000e+01
5.565200000000000000e+04,-2.200000000000000078e-04,2.000000000000000164e-05,4.000000000000000327e-05,5.000000000000000240e-05,9.000000000000000567e-05,-1.100000000000000039e-04,-1.600000000000000131e-04,-1.100000000000000039e-04,6.000000000000000000e+00,2.300000000000000000e+01
5.565300000000000000e+04,-2.200000000000000078e-04,2.000000000000000164e-05,4.000000000000000327e-05,5.000000000000000240e-05,9.000000000000000567e-05,-1.100000000000000039e-04,-1.600000000000000131e-04,-1.100000000000000039e-04,6.000000000000000000e+00,2.300000000000000000e+01
5.565400000000000000e+04,-2.200000000000000078e-04,2.000000000000000164e-05,4.000000000000000327e-05,5.000000000000000240e-05,9.000000000000000567e-05,-1.100000000000000039e-04,-1.600000000000000131e-04,-1.100000000000000039e-04,6.000000000000000000e+00,2.300000000000000000e+01
5.565500000000000000e+04,-2.200000000000000078e-04,2.000000000000000164e-05,4.000000000000000327e-05,5.000000000000000240e-05,9.000000000000000567e-05,-1.100000000000000039e-04,-1.600000000000000131e-04,-1.100000000000000039e-04,6.000000000000000000e+00,2.300000000000000000e+01
5.565600000000000000e+04,-2.200000000000000078e-04,2.000000000000000164e-05,4.000000000000000327e-05,5.000000000000000240e-05,9.000000000000000567e-05,-1.100000000000000039e-04,-1.600000000000000131e-04,-1.100000000000000039e-04,6.000000000000000000e+00,2.300000000000000000e+01
5.565700000000000000e+04,-2.700000000000000035e-04,-2.999999999999999737e-05,2.000000000000000164e-05,1.100000000000000039e-04,2.500000000000000052e-04,-4.499999999999999877e-04,1.600000000000000131e-04,-3.399999999999999702e-04,6.000000000000000000e+00,2.300000000000000000e+01
5.565800000000000000e+04,-2.399999999999999790e-04,-5.000000000000000240e-05,-1.000000000000000082e-05,1.000000000000000048e-04,1.000000000000000082e-05,-5.800000000000000034e-04,-1.399999999999999877e-04,-3.200000000000000262e-04,6.000000000000000000e+00,2.300000000000000000e+01
5.565900000000000000e+04,0.000000000000000000e+00,-5.000000000000000240e-05,-5.000000000000000240e-05,-2.999999999999999737e-05,1.399999999999999877e-04,-2.500000000000000052e-04,1.600000000000000131e-04,9.000000000000000567e-05,6.000000000000000000e+00,2.300000000000000000e+01
5.566000000000000000e+04,0.000000000000000000e+00,-5.000000000000000240e-05,-5.000000000000000240e-05,-2.999999999999999737e-05,1.399999999999999877e-04,-2.500000000000000052e-04,1.600000000000000131e-04,9.000000000000000567e-05,6.000000000000000000e+00,2.300000000000000000e+01
5.566100000000000000e+04,0.000000000000000000e+00,-5.000000000000000240e-05,-5.000000000000000240e-05,-2.999999999999999737e-05,1.399999999999999877e-04,-2.500000000000000052e-04,1.600000000000000131e-04,9.000000000000000567e-05,6.000000000000000000e+00,2.300000000000000000e+01
5.566200000000000000e+04,0.000000000000000000e+00,-5.000000000000000240e-05,-5.000000000000000240e-05,-2.999999999999999737e-05,1.399999999999999877e-04,-2.500000000000000052e-04,1.600000000000000131e-04,9.000000000000000567e-05,6.000000000000000000e+00,2.300000000000000000e+01
5.566300000000000000e+04,0.000000000000000000e+00,-5.000000000000000240e-05,-5.000000000000000240e-05,-2.999999999999999737e-05,1.399999999999999877e-04,-2.500000000000000052e-04,1.600000000000000131e-04,9.000000000000000567e-05,6.000000000000000000e+00,2.300000000000000000e+01
5.566400000000000000e+04,0.000000000000000000e+00,-5.000000000000000240e-05,-5.000000000000000240e-05,-2.999999999999999737e-05,1.399999999999999877e-04,-2.500000000000000052e-04,1.600000000000000131e-04,9.000000000000000567e-05,6.000000000000000000e+00,2.300000000000000000e+01
5.566500000000000000e+04,0.000000000000000000e+00,-5.000000000000000240e-05,-5.000000000000000240e-05,-2.999999999999999737e-05,1.399999999999999877e-04,-2.500000000000000052e-04,1.600000000000000131e-04,9.000000000000000567e-05,6.000000000000000000e+00,2.300000000000000000e+01
5.566600000000000000e+04,0.000000000000000000e+00,-5.000000000000000240e-05,-5.000000000000000240e-05,-2.999999999999999737e-05,1.399999999999999877e-04,-2.500000000000000052e-04,1.600000000000000131e-04,9.000000000000000567e-05,6.000000000000000000e+00,2.300000000000000000e+01
5.566700000000000000e+04,0.000000000000000000e+00,-5.000000000000000240e-05,-5.000000000000000240e-05,-2.999999999999999737e-05,1.399999999999999877e-04,-2.500000000000000052e-04,1.600000000000000131e-04,9.000000000000000567e-05,6.000000000000000000e+00,2.300000000000000000e+01
5.566800000000000000e+04,0.000000000000000000e+00,-5.000000000000000240e-05,-5.000000000000000240e-05,-2.999999999999999737e-05,1.399999999999999877e-04,-2.500000000000000052e-04,1.600000000000000131e-04,9.000000000000000567e-05,6.000000000000000000e+00,2.300000000000000000e+01
5.566900000000000000e+04,0.000000000000000000e+00,-5.000000000000000240e-05,-5.000000000000000240e-05,-2.999999999999999737e-05,1.399999999999999877e-04,-2.500000000000000052e-04,1.600000000000000131e-04,9.000000000000000567e-05,6.000000000000000000e+00,2.300000000000000000e+01
5.567000000000000000e+04,0.000000000000000000e+00,-5.000000000000000240e-05,-5.000000000000000240e-05,-2.999999999999999737e-05,1.399999999999999877e-04,-2.500000000000000052e-04,1.600000000000000131e-04,9.000000000000000567e-05,6.000000000000000000e+00,2.300000000000000000e+01
5.567100000000000000e+04,0.000000000000000000e+00,-5.000000000000000240e-05,-5.000000000000000240e-05,-2.999999999999999737e-05,1.399999999999999877e-04,-2.500000000000000052e-04,1.600000000000000131e-04,9.000000000000000567e-05,6.000000000000000000e+00,2.300000000000000000e+01
5.567200000000000000e+04,0.000000000000000000e+00,-5.000000000000000240e-05,-5.000000000000000240e-05,-2.999999999999999737e-05,1.399999999999999877e-04,-2.500000000000000052e-04,1.600000000000000131e-04,9.000000000000000567e-05,6.000000000000000000e+00,2.300000000000000000e+01
5.567300000000000000e+04,0.000000000000000000e+00,-5.000000000000000240e-05,-5.000000000000000240e-05,-2.999999999999999737e-05,1.399999999999999877e-04,-2.500000000000000052e-04,1.600000000000000131e-04,9.000000000000000567e-05,6.000000000000000000e+00,2.300000000000000000e+01
5.567400000000000000e+04,0.000000000000000000e+00,-5.000000000000000240e-05,-5.000000000000000240e-05,-2.999999999999999737e-05,1.399999999999999877e-04,-2.500000000000000052e-04,1.600000000000000131e-04,9.000000000000000567e-05,6.000000000000000000e+00,2.300000000000000000e+01
5.567500000000000000e+04,0.000000000000000000e+00,-5.000000000000000240e-05,-5.000000000000000240e-05,-2.999999999999999737e-05,1.399999999999999877e-04,-2.500000000000000052e-04,1.600000000000000131e-04,9.000000000000000567e-05,6.000000000000000000e+00,2.300000000000000000e+01
5.567600000000000000e+04,0.000000000000000000e+00,-5.000000000000000240e-05,-5.000000000000000240e-05,-2.999999999999999737e-05,1.399999999999999877e-04,-2.500000000000000052e-04,1.600000000000000131e-04,9.000000000000000567e-05,6.000000000000000000e+00,2.300000000000000000e+01
5.567700000000000000e+04,0.000000000000000000e+00,-5.000000000000000240e-05,-5.000000000000000240e-05,-2.999999999999999737e-05,1.399999999999999877e-04,-2.500000000000000052e-04,1.600000000000000131e-04,9.000000000000000567e-05,6.000000000000000000e+00,2.300000000000000000e+01
5.567800000000000000e+04,0.000000000000000000e+00,-5.000000000000000240e-05,-5.000000000000000240e-05,-2.999999999999999737e-05,1.399999999999999877e-04,-2.500000000000000052e-04,1.600000000000000131e-04,9.000000000000000567e-05,6.000000000000000000e+00,2.300000000000000000e+01
5.567900000000000000e+04,4.899999999999999842e-04,9.000000000000000567e-05,9.000000000000000567e-05,4.000000000000000327e-05,-4.499999999999999877e-04,1.800000000000000113e-04,-3.200000000000000262e-04,5.000000000000000240e-05,6.000000000000000000e+00,2.300000000000000000e+01
5.568000000000000000e+04,4.899999999999999842e-04,9.000000000000000567e-05,9.000000000000000567e-05,4.000000000000000327e-05,-4.499999999999999877e-04,1.800000000000000113e-04,-3.200000000000000262e-04,5.000000000000000240e-05,6.000000000000000000e+00,2.300000000000000000e+01
5.568100000000000000e+04,-6.999999999999999387e-05,5.000000000000000240e-05,5.999999999999999474e-05,5.000000000000000240e-05,-3.899999999999999929e-04,-3.499999999999999964e-04,1.800000000000000113e-04,-1.600000000000000131e-04,6.000000000000000000e+00,2.300000000000000000e+01
5.568200000000000000e+04,-6.999999999999999387e-05,5.000000000000000240e-05,5.999999999999999474e-05,5.000000000000000240e-05,-3.899999999999999929e-04,-3.499999999999999964e-04,1.800000000000000113e-04,-1.600000000000000131e-04,6.000000000000000000e+00,2.300000000000000000e+01
5.568300000000000000e+04,-6.999999999999999387e-05,5.000000000000000240e-05,5.999999999999999474e-05,5.000000000000000240e-05,-3.899999999999999929e-04,-3.499999999999999964e-04,1.800000000000000113e-04,-1.600000000000000131e-04,6.000000000000000000e+00,2.300000000000000000e+01
5.568400000000000000e+04,-6.999999999999999387e-05,5.000000000000000240e-05,5.999999999999999474e-05,5.000000000000000240e-05,-3.899999999999999929e-04,-3.499999999999999964e-04,1.800000000000000113e-04,-1.600000000000000131e-04,6.000000000000000000e+00,2.300000000000000000e+01
5.568500000000000000e+04,-6.999999999999999387e-05,5.000000000000000240e-05,5.999999999999999474e-05,5.000000000000000240e-05,-3.899999999999999929e-04,-3.499999999999999964e-04,1.800000000000000113e-04,-1.600000000000000131e-04,6.000000000000000000e+00,2.300000000000000000e+01
5.568700000000000000e+04,-6.999999999999999387e-05,5.000000000000000240e-05,5.999999999999999474e-05,5.000000000000000240e-05,-3.899999999999999929e-04,-3.499999999999999964e-04,1.800000000000000113e-04,-1.600000000000000131e-04,6.000000000000000000e+00,2.300000000000000000e+01
5.568900000000000000e+04,-6.999999999999999387e-05,5.000000000000000240e-05,5.999999999999999474e-05,5.000000000000000240e-05,-3.899999999999999929e-04,-3.499999999999999964e-04,1.800000000000000113e-04,-1.600000000000000131e-04,6.000000000000000000e+00,2.300000000000000000e+01
5.569000000000000000e+04,-6.999999999999999387e-05,5.000000000000000240e-05,5.999999999999999474e-05,5.000000000000000240e-05,-3.899999999999999929e-04,-3.499999999999999964e-04,1.800000000000000113e-04,-1.600000000000000131e-04,6.000000000000000000e+00,2.300000000000000000e+01
5.569100000000000000e+04,-6.999999999999999387e-05,5.000000000000000240e-05,5.999999999999999474e-05,5.000000000000000240e-05,-3.899999999999999929e-04,-3.499999999999999964e-04,1.800000000000000113e-04,-1.600000000000000131e-04,6.000000000000000000e+00,2.300000000000000000e+01
5.569200000000000000e+04,-6.999999999999999387e-05,5.000000000000000240e-05,5.999999999999999474e-05,5.000000000000000240e-05,-3.899999999999999929e-04,-3.499999999999999964e-04,1.800000000000000113e-04,-1.600000000000000131e-04,6.000000000000000000e+00,2.300000000000000000e+01
5.569300000000000000e+04,-4.299999999999999894e-04,2.000000000000000164e-05,2.000000000000000164e-05,-2.000000000000000164e-05,-2.299999999999999799e-04,-7.900000000000000121e-04,-4.000000000000000327e-05,-1.000000000000000048e-04,6.000000000000000000e+00,2.300000000000000000e+01
5.569400000000000000e+04,-4.299999999999999894e-04,2.000000000000000164e-05,2.000000000000000164e-05,-2.000000000000000164e-05,-2.299999999999999799e-04,-7.900000000000000121e-04,-4.000000000000000327e-05,-1.000000000000000048e-04,6.000000000000000000e+00,2.300000000000000000e+01
5.569500000000000000e+04,-4.299999999999999894e-04,2.000000000000000164e-05,2.000000000000000164e-05,-2.000000000000000164e-05,-2.299999999999999799e-04,-7.900000000000000121e-04,-4.000000000000000327e-05,-1.000000000000000048e-04,6.000000000000000000e+00,2.300000000000000000e+01
5.569600000000000000e+04,-4.299999999999999894e-04,2.000000000000000164e-05,2.000000000000000164e-05,-2.000000000000000164e-05,-2.299999999999999799e-04,-7.900000000000000121e-04,-4.000000000000000327e-05,-1.000000000000000048e-04,6.000000000000000000e+00,2.300000000000000000e+01
5.569700000000000000e+04,-4.299999999999999894e-04,2.000000000000000164e-05,2.000000000000000164e-05,-2.000000000000000164e-05,-2.299999999999999799e-04,-7.900000000000000121e-04,-4.000000000000000327e-05,-1.000000000000000048e-04,6.000000000000000000e+00,2.300000000000000000e+01
5.569800000000000000e+04,-4.299999999999999894e-04,2.000000000000000164e-05,2.000000000000000164e-05,-2.000000000000000164e-05,-2.299999999999999799e-04,-7.900000000000000121e-04,-4.000000000000000327e-05,-1.000000000000000048e-04,6.000000000000000000e+00,2.300000000000000000e+01
5.569900000000000000e+04,-4.299999999999999894e-04,2.000000000000000164e-05,2.000000000000000164e-05,-2.000000000000000164e-05,-2.299999999999999799e-04,-7.900000000000000121e-04,-4.000000000000000327e-05,-1.000000000000000048e-04,6.000000000000000000e+00,2.300000000000000000e+01
5.570000000000000000e+04,-4.299999999999999894e-04,2.000000000000000164e-05,2.000000000000000164e-05,-2.000000000000000164e-05,-2.299999999999999799e-04,-7.900000000000000121e-04,-4.000000000000000327e-05,-1.000000000000000048e-04,6.000000000000000000e+00,2.300000000000000000e+01
5.570100000000000000e+04,-4.299999999999999894e-04,2.000000000000000164e-05,2.000000000000000164e-05,-2.000000000000000164e-05,-2.299999999999999799e-04,-7.900000000000000121e-04,-4.000000000000000327e-05,-1.000000000000000048e-04,6.000000000000000000e+00,2.300000000000000000e+01
5.570200000000000000e+04,-5.099999999999999282e-04,5.000000000000000240e-05,0.000000000000000000e+00,-5.000000000000000240e-05,-2.100000000000000087e-04,-4.200000000000000174e-04,-4.400000000000000157e-04,1.000000000000000048e-04,6.000000000000000000e+00,2.300000000000000000e+01
5.570300000000000000e+04,-5.099999999999999282e-04,5.000000000000000240e-05,0.000000000000000000e+00,-5.000000000000000240e-05,-2.100000000000000087e-04,-4.200000000000000174e-04,-4.400000000000000157e-04,1.000000000000000048e-04,6.000000000000000000e+00,2.300000000000000000e+01
5.570400000000000000e+04,-5.099999999999999282e-04,5.000000000000000240e-05,0.000000000000000000e+00,-5.000000000000000240e-05,-2.100000000000000087e-04,-4.200000000000000174e-04,-4.400000000000000157e-04,1.000000000000000048e-04,6.000000000000000000e+00,2.300000000000000000e+01
5.570500000000000000e+04,-5.099999999999999282e-04,5.000000000000000240e-05,0.000000000000000000e+00,-5.000000000000000240e-05,-2.100000000000000087e-04,-4.200000000000000174e-04,-4.400000000000000157e-04,1.000000000000000048e-04,6.000000000000000000e+00,2.300000000000000000e+01
5.570600000000000000e+04,-5.099999999999999282e-04,5.000000000000000240e-05,0.000000000000000000e+00,-5.000000000000000240e-05,-2.100000000000000087e-04,-4.200000000000000174e-04,-4.400000000000000157e-04,1.000000000000000048e-04,6.000000000000000000e+00,2.300000000000000000e+01
5.570700000000000000e+04,-5.099999999999999282e-04,5.000000000000000240e-05,0.000000000000000000e+00,-5.000000000000000240e-05,-2.100000000000000087e-04,-4.200000000000000174e-04,-4.400000000000000157e-04,1.000000000000000048e-04,6.000000000000000000e+00,2.300000000000000000e+01
5.570800000000000000e+04,-5.099999999999999282e-04,5.000000000000000240e-05,0.000000000000000000e+00,-5.000000000000000240e-05,-2.100000000000000087e-04,-4.200000000000000174e-04,-4.400000000000000157e-04,1.000000000000000048e-04,6.000000000000000000e+00,2.300000000000000000e+01
5.570900000000000000e+04,-5.099999999999999282e-04,5.000000000000000240e-05,0.000000000000000000e+00,-5.000000000000000240e-05,-2.100000000000000087e-04,-4.200000000000000174e-04,-4.400000000000000157e-04,1.000000000000000048e-04,6.000000000000000000e+00,2.300000000000000000e+01
5.571000000000000000e+04,-5.099999999999999282e-04,5.000000000000000240e-05,0.000000000000000000e+00,-5.000000000000000240e-05,-2.100000000000000087e-04,-4.200000000000000174e-04,-4.400000000000000157e-04,1.000000000000000048e-04,6.000000000000000000e+00,2.300000000000000000e+01
5.571100000000000000e+04,-5.099999999999999282e-04,5.000000000000000240e-05,0.000000000000000000e+00,-5.000000000000000240e-05,-2.100000000000000087e-04,-4.200000000000000174e-04,-4.400000000000000157e-04,1.000000000000000048e-04,6.000000000000000000e+00,2.300000000000000000e+01
5.571200000000000000e+04,-5.099999999999999282e-04,5.000000000000000240e-05,0.000000000000000000e+00,-5.000000000000000240e-05,-2.100000000000000087e-04,-4.200000000000000174e-04,-4.400000000000000157e-04,1.000000000000000048e-04,6.000000000000000000e+00,2.300000000000000000e+01
5.571300000000000000e+04,-5.099999999999999282e-04,5.000000000000000240e-05,0.000000000000000000e+00,-5.000000000000000240e-05,-2.100000000000000087e-04,-4.200000000000000174e-04,-4.400000000000000157e-04,1.000000000000000048e-04,6.000000000000000000e+00,2.300000000000000000e+01
5.571400000000000000e+04,-5.099999999999999282e-04,5.000000000000000240e-05,0.000000000000000000e+00,-5.000000000000000240e-05,-2.100000000000000087e-04,-4.200000000000000174e-04,-4.400000000000000157e-04,1.000000000000000048e-04,6.000000000000000000e+00,2.300000000000000000e+01
5.571500000000000000e+04,-5.099999999999999282e-04,5.000000000000000240e-05,0.000000000000000000e+00,-5.000000000000000240e-05,-2.100000000000000087e-04,-4.200000000000000174e-04,-4.400000000000000157e-04,1.000000000000000048e-04,6.000000000000000000e+00,2.300000000000000000e+01
5.571600000000000000e+04,-5.099999999999999282e-04,5.000000000000000240e-05,0.000000000000000000e+00,-5.000000000000000240e-05,-2.100000000000000087e-04,-4.200000000000000174e-04,-4.400000000000000157e-04,1.000000000000000048e-04,6.000000000000000000e+00,2.300000000000000000e+01
5.571700000000000000e+04,3.899999999999999929e-04,4.000000000000000327e-05,0.000000000000000000e+00,-2.000000000000000164e-05,5.200000000000000629e-04,-4.700000000000000401e-04,9.000000000000000567e-05,-1.499999999999999869e-04,6.000000000000000000e+00,2.300000000000000000e+01
5.571800000000000000e+04,1.499999999999999869e-04,-1.000000000000000082e-05,2.999999999999999737e-05,-4.000000000000000327e-05,-2.000000000000000096e-04,3.399999999999999702e-04,6.999999999999999929e-04,-8.000000000000000654e-05,6.000000000000000000e+00,2.300000000000000000e+01
5.571900000000000000e+04,1.499999999999999869e-04,-1.000000000000000082e-05,2.999999999999999737e-05,-4.000000000000000327e-05,-2.000000000000000096e-04,3.399999999999999702e-04,6.999999999999999929e-04,-8.000000000000000654e-05,6.000000000000000000e+00,2.300000000000000000e+01
5.572000000000000000e+04,1.499999999999999869e-04,-1.000000000000000082e-05,2.999999999999999737e-05,-4.000000000000000327e-05,-2.000000000000000096e-04,3.399999999999999702e-04,6.999999999999999929e-04,-8.000000000000000654e-05,6.000000000000000000e+00,2.300000000000000000e+01
5.572100000000000000e+04,1.499999999999999869e-04,-1.000000000000000082e-05,2.999999999999999737e-05,-4.000000000000000327e-05,-2.000000000000000096e-04,3.399999999999999702e-04,6.999999999999999929e-04,-8.000000000000000654e-05,6.000000000000000000e+00,2.300000000000000000e+01
5.572200000000000000e+04,1.499999999999999869e-04,-1.000000000000000082e-05,2.999999999999999737e-05,-4.000000000000000327e-05,-2.000000000000000096e-04,3.399999999999999702e-04,6.999999999999999929e-04,-8.000000000000000654e-05,6.000000000000000000e+00,2.300000000000000000e+01
5.572300000000000000e+04,1.499999999999999869e-04,-1.000000000000000082e-05,2.999999999999999737e-05,-4.000000000000000327e-05,-2.000000000000000096e-04,3.399999999999999702e-04,6.999999999999999929e-04,-8.000000000000000654e-05,6.000000000000000000e+00,2.300000000000000000e+01
5.572400000000000000e+04,1.499999999999999869e-04,-1.000000000000000082e-05,2.999999999999999737e-05,-4.000000000000000327e-05,-2.000000000000000096e-04,3.399999999999999702e-04,6.999999999999999929e-04,-8.000000000000000654e-05,6.000000000000000000e+00,2.300000000000000000e+01
5.572500000000000000e+04,1.499999999999999869e-04,-1.000000000000000082e-05,2.999999999999999737e-05,-4.000000000000000327e-05,-2.000000000000000096e-04,3.399999999999999702e-04,6.999999999999999929e-04,-8.000000000000000654e-05,6.000000000000000000e+00,2.300000000000000000e+01
5.572600000000000000e+04,1.499999999999999869e-04,-1.000000000000000082e-05,2.999999999999999737e-05,-4.000000000000000327e-05,-2.000000000000000096e-04,3.399999999999999702e-04,6.999999999999999929e-04,-8.000000000000000654e-05,6.000000000000000000e+00,2.300000000000000000e+01
5.572700000000000000e+04,1.499999999999999869e-04,-1.000000000000000082e-05,2.999999999999999737e-05,-4.000000000000000327e-05,-2.000000000000000096e-04,3.399999999999999702e-04,6.999999999999999929e-04,-8.000000000000000654e-05,6.000000000000000000e+00,2.300000000000000000e+01
5.572800000000000000e+04,1.499999999999999869e-04,-1.000000000000000082e-05,2.999999999999999737e-05,-4.000000000000000327e-05,-2.000000000000000096e-04,3.399999999999999702e-04,6.999999999999999929e-04,-8.000000000000000654e-05,6.000000000000000000e+00,2.300000000000000000e+01
5.572900000000000000e+04,1.499999999999999869e-04,-1.000000000000000082e-05,2.999999999999999737e-05,-4.000000000000000327e-05,-2.000000000000000096e-04,3.399999999999999702e-04,6.999999999999999929e-04,-8.000000000000000654e-05,6.000000000000000000e+00,2.300000000000000000e+01
5.573000000000000000e+04,1.499999999999999869e-04,-1.000000000000000082e-05,2.999999999999999737e-05,-4.000000000000000327e-05,-2.000000000000000096e-04,3.399999999999999702e-04,6.999999999999999929e-04,-8.000000000000000654e-05,6.000000000000000000e+00,2.300000000000000000e+01
5.573100000000000000e+04,1.499999999999999869e-04,-1.000000000000000082e-05,2.999999999999999737e-05,-4.000000000000000327e-05,-2.000000000000000096e-04,3.399999999999999702e-04,6.999999999999999929e-04,-8.000000000000000654e-05,6.000000000000000000e+00,2.300000000000000000e+01
5.573200000000000000e+04,1.499999999999999869e-04,-1.000000000000000082e-05,2.999999999999999737e-05,-4.000000000000000327e-05,-2.000000000000000096e-04,3.399999999999999702e-04,6.999999999999999929e-04,-8.000000000000000654e-05,6.000000000000000000e+00,2.300000000000000000e+01
5.573300000000000000e+04,1.499999999999999869e-04,-1.000000000000000082e-05,2.999999999999999737e-05,-4.000000000000000327e-05,-2.000000000000000096e-04,3.399999999999999702e-04,6.999999999999999929e-04,-8.000000000000000654e-05,6.000000000000000000e+00,2.300000000000000000e+01
5.573400000000000000e+04,1.499999999999999869e-04,-1.000000000000000082e-05,2.999999999999999737e-05,-4.000000000000000327e-05,-2.000000000000000096e-04,3.399999999999999702e-04,6.999999999999999929e-04,-8.000000000000000654e-05,6.000000000000000000e+00,2.300000000000000000e+01
5.573500000000000000e+04,1.499999999999999869e-04,-1.000000000000000082e-05,2.999999999999999737e-05,-4.000000000000000327e-05,-2.000000000000000096e-04,3.399999999999999702e-04,6.999999999999999929e-04,-8.000000000000000654e-05,6.000000000000000000e+00,2.300000000000000000e+01
5.573700000000000000e+04,1.499999999999999869e-04,-1.000000000000000082e-05,2.999999999999999737e-05,-4.000000000000000327e-05,-2.000000000000000096e-04,3.399999999999999702e-04,6.999999999999999929e-04,-8.000000000000000654e-05,6.000000000000000000e+00,2.300000000000000000e+01
5.573900000000000000e+04,1.499999999999999869e-04,-1.000000000000000082e-05,2.999999999999999737e-05,-4.000000000000000327e-05,-2.000000000000000096e-04,3.399999999999999702e-04,6.999999999999999929e-04,-8.000000000000000654e-05,6.000000000000000000e+00,2.300000000000000000e+01
5.574000000000000000e+04,3.099999999999999999e-04,-2.000000000000000164e-05,-5.000000000000000240e-05,-1.100000000000000039e-04,-6.799999999999999404e-04,-5.099999999999999282e-04,-2.999999999999999737e-05,-2.600000000000000314e-04,6.000000000000000000e+00,2.300000000000000000e+01
5.574100000000000000e+04,-8.000000000000000654e-05,-2.000000000000000164e-05,-8.000000000000000654e-05,-1.000000000000000082e-05,5.400000000000000069e-04,4.799999999999999580e-04,2.000000000000000164e-05,-5.999999999999999474e-05,6.000000000000000000e+00,2.300000000000000000e+01
5.574200000000000000e+04,-8.000000000000000654e-05,-2.000000000000000164e-05,-8.000000000000000654e-05,-1.000000000000000082e-05,5.400000000000000069e-04,4.799999999999999580e-04,2.000000000000000164e-05,-5.999999999999999474e-05,6.000000000000000000e+00,2.300000000000000000e+01
5.574300000000000000e+04,-8.000000000000000654e-05,-2.000000000000000164e-05,-8.000000000000000654e-05,-1.000000000000000082e-05,5.400000000000000069e-04,4.799999999999999580e-04,2.000000000000000164e-05,-5.999999999999999474e-05,6.000000000000000000e+00,2.300000000000000000e+01
5.574400000000000000e+04,-8.000000000000000654e-05,-2.000000000000000164e-05,-8.000000000000000654e-05,-1.000000000000000082e-05,5.400000000000000069e-04,4.799999999999999580e-04,2.000000000000000164e-05,-5.999999999999999474e-05,6.000000000000000000e+00,2.300000000000000000e+01
5.574500000000000000e+04,-8.000000000000000654e-05,-2.000000000000000164e-05,-8.000000000000000654e-05,-1.000000000000000082e-05,5.400000000000000069e-04,4.799999999999999580e-04,2.000000000000000164e-05,-5.999999999999999474e-05,6.000000000000000000e+00,2.300000000000000000e+01
5.574600000000000000e+04,-8.000000000000000654e-05,-2.000000000000000164e-05,-8.000000000000000654e-05,-1.000000000000000082e-05,5.400000000000000069e-04,4.799999999999999580e-04,2.000000000000000164e-05,-5.999999999999999474e-05,6.000000000000000000e+00,2.300000000000000000e+01
5.574700000000000000e+04,-8.000000000000000654e-05,-2.000000000000000164e-05,-8.000000000000000654e-05,-1.000000000000000082e-05,5.400000000000000069e-04,4.799999999999999580e-04,2.000000000000000164e-05,-5.999999999999999474e-05,6.000000000000000000e+00,2.300000000000000000e+01
5.574800000000000000e+04,-8.000000000000000654e-05,-2.000000000000000164e-05,-8.000000000000000654e-05,-1.000000000000000082e-05,5.400000000000000069e-04,4.799999999999999580e-04,2.000000000000000164e-05,-5.999999999999999474e-05,6.000000000000000000e+00,2.300000000000000000e+01
5.574900000000000000e+04,-8.000000000000000654e-05,-2.000000000000000164e-05,-8.000000000000000654e-05,-1.000000000000000082e-05,5.400000000000000069e-04,4.799999999999999580e-04,2.000000000000000164e-05,-5.999999999999999474e-05,6.000000000000000000e+00,2.300000000000000000e+01
5.575000000000000000e+04,-8.000000000000000654e-05,-2.000000000000000164e-05,-8.000000000000000654e-05,-1.000000000000000082e-05,5.400000000000000069e-04,4.799999999999999580e-04,2.000000000000000164e-05,-5.999999999999999474e-05,6.000000000000000000e+00,2.300000000000000000e+01
5.575100000000000000e+04,-8.000000000000000654e-05,-2.000000000000000164e-05,-8.000000000000000654e-05,-1.000000000000000082e-05,5.400000000000000069e-04,4.799999999999999580e-04,2.000000000000000164e-05,-5.999999999999999474e-05,6.000000000000000000e+00,2.300000000000000000e+01
5.575200000000000000e+04,-8.000000000000000654e-05,-2.000000000000000164e-05,-8.000000000000000654e-05,-1.000000000000000082e-05,5.400000000000000069e-04,4.799999999999999580e-04,2.000000000000000164e-05,-5.999999999999999474e-05,6.000000000000000000e+00,2.300000000000000000e+01
5.575300000000000000e+04,-8.499999999999999526e-04,-1.600000000000000131e-04,-9.000000000000000567e-05,-5.999999999999999474e-05,2.399999999999999790e-04,5.400000000000000069e-04,-5.999999999999999474e-05,-2.799999999999999755e-04,6.000000000000000000e+00,2.300000000000000000e+01
5.575400000000000000e+04,-8.499999999999999526e-04,-1.600000000000000131e-04,-9.000000000000000567e-05,-5.999999999999999474e-05,2.399999999999999790e-04,5.400000000000000069e-04,-5.999999999999999474e-05,-2.799999999999999755e-04,6.000000000000000000e+00,2.300000000000000000e+01
5.575500000000000000e+04,-8.499999999999999526e-04,-1.600000000000000131e-04,-9.000000000000000567e-05,-5.999999999999999474e-05,2.399999999999999790e-04,5.400000000000000069e-04,-5.999999999999999474e-05,-2.799999999999999755e-04,6.000000000000000000e+00,2.300000000000000000e+01
5.575600000000000000e+04,-8.499999999999999526e-04,-1.600000000000000131e-04,-9.000000000000000567e-05,-5.999999999999999474e-05,2.399999999999999790e-04,5.400000000000000069e-04,-5.999999999999999474e-05,-2.799999999999999755e-04,6.000000000000000000e+00,2.300000000000000000e+01
5.575700000000000000e+04,-8.499999999999999526e-04,-1.600000000000000131e-04,-9.000000000000000567e-05,-5.999999999999999474e-05,2.399999999999999790e-04,5.400000000000000069e-04,-5.999999999999999474e-05,-2.799999999999999755e-04,6.000000000000000000e+00,2.300000000000000000e+01
5.575800000000000000e+04,-8.499999999999999526e-04,-1.600000000000000131e-04,-9.000000000000000567e-05,-5.999999999999999474e-05,2.399999999999999790e-04,5.400000000000000069e-04,-5.999999999999999474e-05,-2.799999999999999755e-04,6.000000000000000000e+00,2.300000000000000000e+01
5.575900000000000000e+04,-8.499999999999999526e-04,-1.600000000000000131e-04,-9.000000000000000567e-05,-5.999999999999999474e-05,2.399999999999999790e-04,5.400000000000000069e-04,-5.999999999999999474e-05,-2.799999999999999755e-04,6.000000000000000000e+00,2.300000000000000000e+01
5.576000000000000000e+04,-8.499999999999999526e-04,-1.600000000000000131e-04,-9.000000000000000567e-05,-5.999999999999999474e-05,2.399999999999999790e-04,5.400000000000000069e-04,-5.999999999999999474e-05,-2.799999999999999755e-04,6.000000000000000000e+00,2.300000000000000000e+01
5.576100000000000000e+04,-8.499999999999999526e-04,-1.600000000000000131e-04,-9.000000000000000567e-05,-5.999999999999999474e-05,2.399999999999999790e-04,5.400000000000000069e-04,-5.999999999999999474e-05,-2.799999999999999755e-04,6.000000000000000000e+00,2.300000000000000000e+01
5.576200000000000000e+04,-1.499999999999999869e-04,-2.999999999999999737e-05,9.000000000000000567e-05,2.500000000000000052e-04,2.200000000000000078e-04,1.000000000000000082e-05,4.000000000000000192e-04,2.900000000000000017e-04,6.000000000000000000e+00,2.300000000000000000e+01
5.576300000000000000e+04,-1.499999999999999869e-04,-2.999999999999999737e-05,9.000000000000000567e-05,2.500000000000000052e-04,2.200000000000000078e-04,1.000000000000000082e-05,4.000000000000000192e-04,2.900000000000000017e-04,6.000000000000000000e+00,2.300000000000000000e+01
5.576400000000000000e+04,-1.499999999999999869e-04,-2.999999999999999737e-05,9.000000000000000567e-05,2.500000000000000052e-04,2.200000000000000078e-04,1.000000000000000082e-05,4.000000000000000192e-04,2.900000000000000017e-04,6.000000000000000000e+00,2.300000000000000000e+01
5.576500000000000000e+04,-1.499999999999999869e-04,-2.999999999999999737e-05,9.000000000000000567e-05,2.500000000000000052e-04,2.200000000000000078e-04,1.000000000000000082e-05,4.000000000000000192e-04,2.900000000000000017e-04,6.000000000000000000e+00,2.300000000000000000e+01
5.576600000000000000e+04,-1.499999999999999869e-04,-2.999999999999999737e-05,9.000000000000000567e-05,2.500000000000000052e-04,2.200000000000000078e-04,1.000000000000000082e-05,4.000000000000000192e-04,2.900000000000000017e-04,6.000000000000000000e+00,2.300000000000000000e+01
5.576700000000000000e+04,-1.499999999999999869e-04,-2.999999999999999737e-05,9.000000000000000567e-05,2.500000000000000052e-04,2.200000000000000078e-04,1.000000000000000082e-05,4.000000000000000192e-04,2.900000000000000017e-04,6.000000000000000000e+00,2.300000000000000000e+01
5.576800000000000000e+04,-1.499999999999999869e-04,-2.999999999999999737e-05,9.000000000000000567e-05,2.500000000000000052e-04,2.200000000000000078e-04,1.000000000000000082e-05,4.000000000000000192e-04,2.900000000000000017e-04,6.000000000000000000e+00,2.300000000000000000e+01
5.576900000000000000e+04,-1.499999999999999869e-04,-2.999999999999999737e-05,9.000000000000000567e-05,2.500000000000000052e-04,2.200000000000000078e-04,1.000000000000000082e-05,4.000000000000000192e-04,2.900000000000000017e-04,6.000000000000000000e+00,2.300000000000000000e+01
5.577000000000000000e+04,-1.499999999999999869e-04,-2.999999999999999737e-05,9.000000000000000567e-05,2.500000000000000052e-04,2.200000000000000078e-04,1.000000000000000082e-05,4.000000000000000192e-04,2.900000000000000017e-04,6.000000000000000000e+00,2.300000000000000000e+01
5.577100000000000000e+04,-1.499999999999999869e-04,-2.999999999999999737e-05,9.000000000000000567e-05,2.500000000000000052e-04,2.200000000000000078e-04,1.000000000000000082e-05,4.000000000000000192e-04,2.900000000000000017e-04,6.000000000000000000e+00,2.300000000000000000e+01
5.577200000000000000e+04,-1.499999999999999869e-04,-2.999999999999999737e-05,9.000000000000000567e-05,2.500000000000000052e-04,2.200000000000000078e-04,1.000000000000000082e-05,4.000000000000000192e-04,2.900000000000000017e-04,6.000000000000000000e+00,2.300000000000000000e+01
5.577300000000000000e+04,-1.499999999999999869e-04,-2.999999999999999737e-05,9.000000000000000567e-05,2.500000000000000052e-04,2.200000000000000078e-04,1.000000000000000082e-05,4.000000000000000192e-04,2.900000000000000017e-04,6.000000000000000000e+00,2.300000000000000000e+01
5.577400000000000000e+04,-1.499999999999999869e-04,-2.999999999999999737e-05,9.000000000000000567e-05,2.500000000000000052e-04,2.200000000000000078e-04,1.000000000000000082e-05,4.000000000000000192e-04,2.900000000000000017e-04,6.000000000000000000e+00,2.300000000000000000e+01
5.577500000000000000e+04,-1.499999999999999869e-04,-2.999999999999999737e-05,9.000000000000000567e-05,2.500000000000000052e-04,2.200000000000000078e-04,1.000000000000000082e-05,4.000000000000000192e-04,2.900000000000000017e-04,6.000000000000000000e+00,2.300000000000000000e+01
5.577600000000000000e+04,-1.499999999999999869e-04,-2.999999999999999737e-05,9.000000000000000567e-05,2.500000000000000052e-04,2.200000000000000078e-04,1.000000000000000082e-05,4.000000000000000192e-04,2.900000000000000017e-04,6.000000000000000000e+00,2.300000000000000000e+01
5.577700000000000000e+04,-2.100000000000000087e-04,-9.000000000000000567e-05,-9.000000000000000567e-05,-2.999999999999999737e-05,-1.899999999999999834e-04,2.000000000000000096e-04,1.199999999999999895e-04,2.600000000000000314e-04,6.000000000000000000e+00,2.300000000000000000e+01
5.577800000000000000e+04,-9.000000000000000567e-05,-2.999999999999999737e-05,1.000000000000000082e-05,-9.000000000000000567e-05,-7.200000000000000453e-04,-7.900000000000000121e-04,-4.599999999999999597e-04,-1.100000000000000039e-04,6.000000000000000000e+00,2.300000000000000000e+01
5.577900000000000000e+04,-9.000000000000000567e-05,-2.999999999999999737e-05,1.000000000000000082e-05,-9.000000000000000567e-05,-7.200000000000000453e-04,-7.900000000000000121e-04,-4.599999999999999597e-04,-1.100000000000000039e-04,6.000000000000000000e+00,2.300000000000000000e+01
5.578000000000000000e+04,-9.000000000000000567e-05,-2.999999999999999737e-05,1.000000000000000082e-05,-9.000000000000000567e-05,-7.200000000000000453e-04,-7.900000000000000121e-04,-4.599999999999999597e-04,-1.100000000000000039e-04,6.000000000000000000e+00,2.300000000000000000e+01
5.578100000000000000e+04,-9.000000000000000567e-05,-2.999999999999999737e-05,1.000000000000000082e-05,-9.000000000000000567e-05,-7.200000000000000453e-04,-7.900000000000000121e-04,-4.599999999999999597e-04,-1.100000000000000039e-04,6.000000000000000000e+00,2.300000000000000000e+01
5.578200000000000000e+04,-9.000000000000000567e-05,-2.999999999999999737e-05,1.000000000000000082e-05,-9.000000000000000567e-05,-7.200000000000000453e-04,-7.900000000000000121e-04,-4.599999999999999597e-04,-1.100000000000000039e-04,6.000000000000000000e+00,2.300000000000000000e+01
5.578300000000000000e+04,-9.000000000000000567e-05,-2.999999999999999737e-05,1.000000000000000082e-05,-9.000000000000000567e-05,-7.200000000000000453e-04,-7.900000000000000121e-04,-4.599999999999999597e-04,-1.100000000000000039e-04,6.000000000000000000e+00,2.300000000000000000e+01
5.578400000000000000e+04,-9.000000000000000567e-05,-2.999999999999999737e-05,1.000000000000000082e-05,-9.000000000000000567e-05,-7.200000000000000453e-04,-7.900000000000000121e-04,-4.599999999999999597e-04,-1.100000000000000039e-04,6.000000000000000000e+00,2.300000000000000000e+01
5.578500000000000000e+04,-9.000000000000000567e-05,-2.999999999999999737e-05,1.000000000000000082e-05,-9.000000000000000567e-05,-7.200000000000000453e-04,-7.900000000000000121e-04,-4.599999999999999597e-04,-1.100000000000000039e-04,6.000000000000000000e+00,2.300000000000000000e+01
5.578700000000000000e+04,-9.000000000000000567e-05,-2.999999999999999737e-05,1.000000000000000082e-05,-9.000000000000000567e-05,-7.200000000000000453e-04,-7.900000000000000121e-04,-4.599999999999999597e-04,-1.100000000000000039e-04,6.000000000000000000e+00,2.300000000000000000e+01
5.578900000000000000e+04,-9.000000000000000567e-05,-2.999999999999999737e-05,1.000000000000000082e-05,-9.000000000000000567e-05,-7.200000000000000453e-04,-7.900000000000000121e-04,-4.599999999999999597e-04,-1.100000000000000039e-04,6.000000000000000000e+00,2.300000000000000000e+01
5.579000000000000000e+04,-9.000000000000000567e-05,-2.999999999999999737e-05,1.000000000000000082e-05,-9.000000000000000567e-05,-7.200000000000000453e-04,-7.900000000000000121e-04,-4.599999999999999597e-04,-1.100000000000000039e-04,6.000000000000000000e+00,2.300000000000000000e+01
5.579100000000000000e+04,-9.000000000000000567e-05,-2.999999999999999737e-05,1.000000000000000082e-05,-9.000000000000000567e-05,-7.200000000000000453e-04,-7.900000000000000121e-04,-4.599999999999999597e-04,-1.100000000000000039e-04,6.000000000000000000e+00,2.300000000000000000e+01
5.579200000000000000e+04,-9.000000000000000567e-05,-2.999999999999999737e-05,1.000000000000000082e-05,-9.000000000000000567e-05,-7.200000000000000453e-04,-7.900000000000000121e-04,-4.599999999999999597e-04,-1.100000000000000039e-04,6.000000000000000000e+00,2.300000000000000000e+01
5.579300000000000000e+04,-9.000000000000000567e-05,-2.999999999999999737e-05,1.000000000000000082e-05,-9.000000000000000567e-05,-7.200000000000000453e-04,-7.900000000000000121e-04,-4.599999999999999597e-04,-1.100000000000000039e-04,6.000000000000000000e+00,2.300000000000000000e+01
5.579400000000000000e+04,-9.000000000000000567e-05,-2.999999999999999737e-05,1.000000000000000082e-05,-9.000000000000000567e-05,-7.200000000000000453e-04,-7.900000000000000121e-04,-4.599999999999999597e-04,-1.100000000000000039e-04,6.000000000000000000e+00,2.300000000000000000e+01
5.579500000000000000e+04,-9.000000000000000567e-05,-2.999999999999999737e-05,1.000000000000000082e-05,-9.000000000000000567e-05,-7.200000000000000453e-04,-7.900000000000000121e-04,-4.599999999999999597e-04,-1.100000000000000039e-04,6.000000000000000000e+00,2.300000000000000000e+01
5.579600000000000000e+04,-9.000000000000000567e-05,-2.999999999999999737e-05,1.000000000000000082e-05,-9.000000000000000567e-05,-7.200000000000000453e-04,-7.900000000000000121e-04,-4.599999999999999597e-04,-1.100000000000000039e-04,6.000000000000000000e+00,2.300000000000000000e+01
5.579700000000000000e+04,-9.000000000000000567e-05,-2.999999999999999737e-05,1.000000000000000082e-05,-9.000000000000000567e-05,-7.200000000000000453e-04,-7.900000000000000121e-04,-4.599999999999999597e-04,-1.100000000000000039e-04,6.000000000000000000e+00,2.300000000000000000e+01
5.579800000000000000e+04,-9.000000000000000567e-05,-2.999999999999999737e-05,1.000000000000000082e-05,-9.000000000000000567e-05,-7.200000000000000453e-04,-7.900000000000000121e-04,-4.599999999999999597e-04,-1.100000000000000039e-04,6.000000000000000000e+00,2.300000000000000000e+01
5.579900000000000000e+04,-2.000000000000000164e-05,-5.000000000000000240e-05,4.000000000000000327e-05,-5.000000000000000240e-05,3.799999999999999667e-04,6.400000000000000524e-04,-4.000000000000000327e-05,-4.000000000000000327e-05,6.000000000000000000e+00,2.300000000000000000e+01
5.580000000000000000e+04,-2.000000000000000164e-05,-5.000000000000000240e-05,4.000000000000000327e-05,-5.000000000000000240e-05,3.799999999999999667e-04,6.400000000000000524e-04,-4.000000000000000327e-05,-4.000000000000000327e-05,6.000000000000000000e+00,2.300000000000000000e+01
5.580100000000000000e+04,8.699999999999998967e-04,6.999999999999999387e-05,5.000000000000000240e-05,3.200000000000000262e-04,8.000000000000000654e-05,6.499999999999999702e-04,3.099999999999999999e-04,4.000000000000000327e-05,6.000000000000000000e+00,2.300000000000000000e+01
5.580200000000000000e+04,8.699999999999998967e-04,6.999999999999999387e-05,5.000000000000000240e-05,3.200000000000000262e-04,8.000000000000000654e-05,6.499999999999999702e-04,3.099999999999999999e-04,4.000000000000000327e-05,6.000000000000000000e+00,2.300000000000000000e+01
5.580300000000000000e+04,8.699999999999998967e-04,6.999999999999999387e-05,5.000000000000000240e-05,3.200000000000000262e-04,8.000000000000000654e-05,6.499999999999999702e-04,3.099999999999999999e-04,4.000000000000000327e-05,6.000000000000000000e+00,2.300000000000000000e+01
5.580400000000000000e+04,8.699999999999998967e-04,6.999999999999999387e-05,5.000000000000000240e-05,3.200000000000000262e-04,8.000000000000000654e-05,6.499999999999999702e-04,3.099999999999999999e-04,4.000000000000000327e-05,6.000000000000000000e+00,2.300000000000000000e+01
5.580500000000000000e+04,8.699999999999998967e-04,6.999999999999999387e-05,5.000000000000000240e-05,3.200000000000000262e-04,8.000000000000000654e-05,6.499999999999999702e-04,3.099999999999999999e-04,4.000000000000000327e-05,6.000000000000000000e+00,2.300000000000000000e+01
5.580600000000000000e+04,8.699999999999998967e-04,6.999999999999999387e-05,5.000000000000000240e-05,3.200000000000000262e-04,8.000000000000000654e-05,6.499999999999999702e-04,3.099999999999999999e-04,4.000000000000000327e-05,6.000000000000000000e+00,2.300000000000000000e+01
5.580700000000000000e+04,8.699999999999998967e-04,6.999999999999999387e-05,5.000000000000000240e-05,3.200000000000000262e-04,8.000000000000000654e-05,6.499999999999999702e-04,3.099999999999999999e-04,4.000000000000000327e-05,6.000000000000000000e+00,2.300000000000000000e+01
5.580800000000000000e+04,8.699999999999998967e-04,6.999999999999999387e-05,5.000000000000000240e-05,3.200000000000000262e-04,8.000000000000000654e-05,6.499999999999999702e-04,3.099999999999999999e-04,4.000000000000000327e-05,6.000000000000000000e+00,2.300000000000000000e+01
5.580900000000000000e+04,8.699999999999998967e-04,6.999999999999999387e-05,5.000000000000000240e-05,3.200000000000000262e-04,8.000000000000000654e-05,6.499999999999999702e-04,3.099999999999999999e-04,4.000000000000000327e-05,6.000000000000000000e+00,2.300000000000000000e+01
5.581000000000000000e+04,8.699999999999998967e-04,6.999999999999999387e-05,5.000000000000000240e-05,3.200000000000000262e-04,8.000000000000000654e-05,6.499999999999999702e-04,3.099999999999999999e-04,4.000000000000000327e-05,6.000000000000000000e+00,2.300000000000000000e+01
5.581100000000000000e+04,8.699999999999998967e-04,6.999999999999999387e-05,5.000000000000000240e-05,3.200000000000000262e-04,8.000000000000000654e-05,6.499999999999999702e-04,3.099999999999999999e-04,4.000000000000000327e-05,6.000000000000000000e+00,2.300000000000000000e+01
5.581200000000000000e+04,8.699999999999998967e-04,6.999999999999999387e-05,5.000000000000000240e-05,3.200000000000000262e-04,8.000000000000000654e-05,6.499999999999999702e-04,3.099999999999999999e-04,4.000000000000000327e-05,6.000000000000000000e+00,2.300000000000000000e+01
5.581300000000000000e+04,8.699999999999998967e-04,6.999999999999999387e-05,5.000000000000000240e-05,3.200000000000000262e-04,8.000000000000000654e-05,6.499999999999999702e-04,3.099999999999999999e-04,4.000000000000000327e-05,6.000000000000000000e+00,2.300000000000000000e+01
5.581400000000000000e+04,8.699999999999998967e-04,6.999999999999999387e-05,5.000000000000000240e-05,3.200000000000000262e-04,8.000000000000000654e-05,6.499999999999999702e-04,3.099999999999999999e-04,4.000000000000000327e-05,6.000000000000000000e+00,2.300000000000000000e+01
5.581500000000000000e+04,8.699999999999998967e-04,6.999999999999999387e-05,5.000000000000000240e-05,3.200000000000000262e-04,8.000000000000000654e-05,6.499999999999999702e-04,3.099999999999999999e-04,4.000000000000000327e-05,6.000000000000000000e+00,2.300000000000000000e+01
5.581600000000000000e+04,8.699999999999998967e-04,6.999999999999999387e-05,5.000000000000000240e-05,3.200000000000000262e-04,8.000000000000000654e-05,6.499999999999999702e-04,3.099999999999999999e-04,4.000000000000000327e-05,6.000000000000000000e+00,2.300000000000000000e+01
5.581700000000000000e+04,8.699999999999998967e-04,6.999999999999999387e-05,5.000000000000000240e-05,3.200000000000000262e-04,8.000000000000000654e-05,6.499999999999999702e-04,3.099999999999999999e-04,4.000000000000000327e-05,6.000000000000000000e+00,2.300000000000000000e+01
5.581800000000000000e+04,8.699999999999998967e-04,6.999999999999999387e-05,5.000000000000000240e-05,3.200000000000000262e-04,8.000000000000000654e-05,6.499999999999999702e-04,3.099999999999999999e-04,4.000000000000000327e-05,6.000000000000000000e+00,2.300000000000000000e+01
5.581900000000000000e+04,8.699999999999998967e-04,6.999999999999999387e-05,5.000000000000000240e-05,3.200000000000000262e-04,8.000000000000000654e-05,6.499999999999999702e-04,3.099999999999999999e-04,4.000000000000000327e-05,6.000000000000000000e+00,2.300000000000000000e+01
5.582000000000000000e+04,8.699999999999998967e-04,6.999999999999999387e-05,5.000000000000000240e-05,3.200000000000000262e-04,8.000000000000000654e-05,6.499999999999999702e-04,3.099999999999999999e-04,4.000000000000000327e-05,6.000000000000000000e+00,2.300000000000000000e+01
5.582100000000000000e+04,8.699999999999998967e-04,6.999999999999999387e-05,5.000000000000000240e-05,3.200000000000000262e-04,8.000000000000000654e-05,6.499999999999999702e-04,3.099999999999999999e-04,4.000000000000000327e-05,6.000000000000000000e+00,2.300000000000000000e+01
5.582200000000000000e+04,3.699999999999999947e-04,-2.999999999999999737e-05,0.000000000000000000e+00,6.199999999999999999e-04,-1.399999999999999877e-04,-7.900000000000000121e-04,-2.900000000000000017e-04,-3.600000000000000227e-04,6.000000000000000000e+00,2.300000000000000000e+01
5.582300000000000000e+04,-4.799999999999999580e-04,-6.999999999999999387e-05,-1.000000000000000048e-04,-2.700000000000000035e-04,-3.299999999999999982e-04,-6.999999999999999387e-05,3.600000000000000227e-04,2.999999999999999737e-04,6.000000000000000000e+00,2.300000000000000000e+01
5.582400000000000000e+04,-1.800000000000000113e-04,2.999999999999999737e-05,0.000000000000000000e+00,-2.100000000000000087e-04,2.200000000000000078e-04,-4.599999999999999597e-04,5.999999999999999474e-05,-6.300000000000000261e-04,6.000000000000000000e+00,2.300000000000000000e+01
5.582500000000000000e+04,-1.800000000000000113e-04,2.999999999999999737e-05,0.000000000000000000e+00,-2.100000000000000087e-04,2.200000000000000078e-04,-4.599999999999999597e-04,5.999999999999999474e-05,-6.300000000000000261e-04,6.000000000000000000e+00,2.300000000000000000e+01
5.582600000000000000e+04,-1.800000000000000113e-04,2.999999999999999737e-05,0.000000000000000000e+00,-2.100000000000000087e-04,2.200000000000000078e-04,-4.599999999999999597e-04,5.999999999999999474e-05,-6.300000000000000261e-04,6.000000000000000000e+00,2.300000000000000000e+01
5.582700000000000000e+04,-1.800000000000000113e-04,2.999999999999999737e-05,0.000000000000000000e+00,-2.100000000000000087e-04,2.200000000000000078e-04,-4.599999999999999597e-04,5.999999999999999474e-05,-6.300000000000000261e-04,6.000000000000000000e+00,2.300000000000000000e+01
5.582800000000000000e+04,-1.800000000000000113e-04,2.999999999999999737e-05,0.000000000000000000e+00,-2.100000000000000087e-04,2.200000000000000078e-04,-4.599999999999999597e-04,5.999999999999999474e-05,-6.300000000000000261e-04,6.000000000000000000e+00,2.300000000000000000e+01
5.582900000000000000e+04,-1.800000000000000113e-04,2.999999999999999737e-05,0.000000000000000000e+00,-2.100000000000000087e-04,2.200000000000000078e-04,-4.599999999999999597e-04,5.999999999999999474e-05,-6.300000000000000261e-04,6.000000000000000000e+00,2.300000000000000000e+01
5.583000000000000000e+04,-1.800000000000000113e-04,2.999999999999999737e-05,0.000000000000000000e+00,-2.100000000000000087e-04,2.200000000000000078e-04,-4.599999999999999597e-04,5.999999999999999474e-05,-6.300000000000000261e-04,6.000000000000000000e+00,2.300000000000000000e+01
5.583100000000000000e+04,-1.800000000000000113e-04,2.999999999999999737e-05,0.000000000000000000e+00,-2.100000000000000087e-04,2.200000000000000078e-04,-4.599999999999999597e-04,5.999999999999999474e-05,-6.300000000000000261e-04,6.000000000000000000e+00,2.300000000000000000e+01
5.583200000000000000e+04,-1.800000000000000113e-04,2.999999999999999737e-05,0.000000000000000000e+00,-2.100000000000000087e-04,2.200000000000000078e-04,-4.599999999999999597e-04,5.999999999999999474e-05,-6.300000000000000261e-04,6.000000000000000000e+00,2.300000000000000000e+01
5.583300000000000000e+04,-1.800000000000000113e-04,2.999999999999999737e-05,0.000000000000000000e+00,-2.100000000000000087e-04,2.200000000000000078e-04,-4.599999999999999597e-04,5.999999999999999474e-05,-6.300000000000000261e-04,6.000000000000000000e+00,2.300000000000000000e+01
5.583400000000000000e+04,-1.800000000000000113e-04,2.999999999999999737e-05,0.000000000000000000e+00,-2.100000000000000087e-04,2.200000000000000078e-04,-4.599999999999999597e-04,5.999999999999999474e-05,-6.300000000000000261e-04,6.000000000000000000e+00,2.300000000000000000e+01
5.583500000000000000e+04,-1.800000000000000113e-04,2.999999999999999737e-05,0.000000000000000000e+00,-2.100000000000000087e-04,2.200000000000000078e-04,-4.599999999999999597e-04,5.999999999999999474e-05,-6.300000000000000261e-04,6.000000000000000000e+00,2.300000000000000000e+01
5.583700000000000000e+04,-1.000000000000000048e-04,2.999999999999999737e-05,1.000000000000000082e-05,-1.600000000000000131e-04,2.100000000000000087e-04,-2.900000000000000017e-04,-2.100000000000000087e-04,4.299999999999999894e-04,6.000000000000000000e+00,2.300000000000000000e+01
5.583900000000000000e+04,-2.700000000000000035e-04,-1.600000000000000131e-04,-1.199999999999999895e-04,-5.000000000000000240e-05,-7.200000000000000453e-04,-1.010000000000000047e-03,-3.499999999999999964e-04,2.999999999999999737e-04,6.000000000000000000e+00,2.300000000000000000e+01
5.584000000000000000e+04,-2.700000000000000035e-04,-1.600000000000000131e-04,-1.199999999999999895e-04,-5.000000000000000240e-05,-7.200000000000000453e-04,-1.010000000000000047e-03,-3.499999999999999964e-04,2.999999999999999737e-04,6.000000000000000000e+00,2.300000000000000000e+01
5.584100000000000000e+04,-2.700000000000000035e-04,-1.600000000000000131e-04,-1.199999999999999895e-04,-5.000000000000000240e-05,-7.200000000000000453e-04,-1.010000000000000047e-03,-3.499999999999999964e-04,2.999999999999999737e-04,6.000000000000000000e+00,2.300000000000000000e+01
5.584200000000000000e+04,-2.700000000000000035e-04,-1.600000000000000131e-04,-1.199999999999999895e-04,-5.000000000000000240e-05,-7.200000000000000453e-04,-1.010000000000000047e-03,-3.499999999999999964e-04,2.999999999999999737e-04,6.000000000000000000e+00,2.300000000000000000e+01
5.584300000000000000e+04,-2.700000000000000035e-04,-1.600000000000000131e-04,-1.199999999999999895e-04,-5.000000000000000240e-05,-7.200000000000000453e-04,-1.010000000000000047e-03,-3.499999999999999964e-04,2.999999999999999737e-04,6.000000000000000000e+00,2.300000000000000000e+01
5.584400000000000000e+04,-2.700000000000000035e-04,-1.600000000000000131e-04,-1.199999999999999895e-04,-5.000000000000000240e-05,-7.200000000000000453e-04,-1.010000000000000047e-03,-3.499999999999999964e-04,2.999999999999999737e-04,6.000000000000000000e+00,2.300000000000000000e+01
5.584500000000000000e+04,-2.700000000000000035e-04,-1.600000000000000131e-04,-1.199999999999999895e-04,-5.000000000000000240e-05,-7.200000000000000453e-04,-1.010000000000000047e-03,-3.499999999999999964e-04,2.999999999999999737e-04,6.000000000000000000e+00,2.300000000000000000e+01
5.584600000000000000e+04,-2.700000000000000035e-04,-1.600000000000000131e-04,-1.199999999999999895e-04,-5.000000000000000240e-05,-7.200000000000000453e-04,-1.010000000000000047e-03,-3.499999999999999964e-04,2.999999999999999737e-04,6.000000000000000000e+00,2.300000000000000000e+01
5.584700000000000000e+04,-2.700000000000000035e-04,-1.600000000000000131e-04,-1.199999999999999895e-04,-5.000000000000000240e-05,-7.200000000000000453e-04,-1.010000000000000047e-03,-3.499999999999999964e-04,2.999999999999999737e-04,6.000000000000000000e+00,2.300000000000000000e+01
5.584800000000000000e+04,-2.700000000000000035e-04,-1.600000000000000131e-04,-1.199999999999999895e-04,-5.000000000000000240e-05,-7.200000000000000453e-04,-1.010000000000000047e-03,-3.499999999999999964e-04,2.999999999999999737e-04,6.000000000000000000e+00,2.300000000000000000e+01
5.584900000000000000e+04,-2.700000000000000035e-04,-1.600000000000000131e-04,-1.199999999999999895e-04,-5.000000000000000240e-05,-7.200000000000000453e-04,-1.010000000000000047e-03,-3.499999999999999964e-04,2.999999999999999737e-04,6.000000000000000000e+00,2.300000000000000000e+01
5.585000000000000000e+04,-2.700000000000000035e-04,-1.600000000000000131e-04,-1.199999999999999895e-04,-5.000000000000000240e-05,-7.200000000000000453e-04,-1.010000000000000047e-03,-3.499999999999999964e-04,2.999999999999999737e-04,6.000000000000000000e+00,2.300000000000000000e+01
5.585100000000000000e+04,-2.700000000000000035e-04,-1.600000000000000131e-04,-1.199999999999999895e-04,-5.000000000000000240e-05,-7.200000000000000453e-04,-1.010000000000000047e-03,-3.499999999999999964e-04,2.999999999999999737e-04,6.000000000000000000e+00,2.300000000000000000e+01
5.585200000000000000e+04,-2.700000000000000035e-04,-1.600000000000000131e-04,-1.199999999999999895e-04,-5.000000000000000240e-05,-7.200000000000000453e-04,-1.010000000000000047e-03,-3.499999999999999964e-04,2.999999999999999737e-04,6.000000000000000000e+00,2.300000000000000000e+01
5.585300000000000000e+04,-2.700000000000000035e-04,-1.600000000000000131e-04,-1.199999999999999895e-04,-5.000000000000000240e-05,-7.200000000000000453e-04,-1.010000000000000047e-03,-3.499999999999999964e-04,2.999999999999999737e-04,6.000000000000000000e+00,2.300000000000000000e+01
5.585400000000000000e+04,-2.700000000000000035e-04,-1.600000000000000131e-04,-1.199999999999999895e-04,-5.000000000000000240e-05,-7.200000000000000453e-04,-1.010000000000000047e-03,-3.499999999999999964e-04,2.999999999999999737e-04,6.000000000000000000e+00,2.300000000000000000e+01
5.585500000000000000e+04,-2.700000000000000035e-04,-1.600000000000000131e-04,-1.199999999999999895e-04,-5.000000000000000240e-05,-7.200000000000000453e-04,-1.010000000000000047e-03,-3.499999999999999964e-04,2.999999999999999737e-04,6.000000000000000000e+00,2.300000000000000000e+01
5.585600000000000000e+04,-2.700000000000000035e-04,-1.600000000000000131e-04,-1.199999999999999895e-04,-5.000000000000000240e-05,-7.200000000000000453e-04,-1.010000000000000047e-03,-3.499999999999999964e-04,2.999999999999999737e-04,6.000000000000000000e+00,2.300000000000000000e+01
5.585700000000000000e+04,-2.700000000000000035e-04,-1.600000000000000131e-04,-1.199999999999999895e-04,-5.000000000000000240e-05,-7.200000000000000453e-04,-1.010000000000000047e-03,-3.499999999999999964e-04,2.999999999999999737e-04,6.000000000000000000e+00,2.300000000000000000e+01
5.585800000000000000e+04,-2.700000000000000035e-04,-1.600000000000000131e-04,-1.199999999999999895e-04,-5.000000000000000240e-05,-7.200000000000000453e-04,-1.010000000000000047e-03,-3.499999999999999964e-04,2.999999999999999737e-04,6.000000000000000000e+00,2.300000000000000000e+01
5.585900000000000000e+04,-5.299999999999999807e-04,-2.999999999999999737e-05,-4.000000000000000327e-05,-1.800000000000000113e-04,-5.999999999999999474e-04,-3.899999999999999929e-04,-1.800000000000000113e-04,5.500000000000000331e-04,6.000000000000000000e+00,2.300000000000000000e+01
5.586000000000000000e+04,4.799999999999999580e-04,-6.999999999999999387e-05,-5.999999999999999474e-05,-1.000000000000000048e-04,5.999999999999999474e-05,-2.799999999999999755e-04,1.199999999999999895e-04,-2.000000000000000164e-05,6.000000000000000000e+00,2.300000000000000000e+01
5.586100000000000000e+04,-1.300000000000000157e-04,-2.000000000000000164e-05,-1.000000000000000082e-05,-2.399999999999999790e-04,-3.099999999999999999e-04,-1.499999999999999869e-04,-5.299999999999999807e-04,-5.500000000000000331e-04,6.000000000000000000e+00,2.300000000000000000e+01
5.586200000000000000e+04,-1.300000000000000157e-04,-2.000000000000000164e-05,-1.000000000000000082e-05,-2.399999999999999790e-04,-3.099999999999999999e-04,-1.499999999999999869e-04,-5.299999999999999807e-04,-5.500000000000000331e-04,6.000000000000000000e+00,2.300000000000000000e+01
5.586300000000000000e+04,-1.300000000000000157e-04,-2.000000000000000164e-05,-1.000000000000000082e-05,-2.399999999999999790e-04,-3.099999999999999999e-04,-1.499999999999999869e-04,-5.299999999999999807e-04,-5.500000000000000331e-04,6.000000000000000000e+00,2.300000000000000000e+01
5.586400000000000000e+04,-1.300000000000000157e-04,-2.000000000000000164e-05,-1.000000000000000082e-05,-2.399999999999999790e-04,-3.099999999999999999e-04,-1.499999999999999869e-04,-5.299999999999999807e-04,-5.500000000000000331e-04,6.000000000000000000e+00,2.300000000000000000e+01
5.586500000000000000e+04,-1.300000000000000157e-04,-2.000000000000000164e-05,-1.000000000000000082e-05,-2.399999999999999790e-04,-3.099999999999999999e-04,-1.499999999999999869e-04,-5.299999999999999807e-04,-5.500000000000000331e-04,6.000000000000000000e+00,2.300000000000000000e+01
5.586600000000000000e+04,-1.300000000000000157e-04,-2.000000000000000164e-05,-1.000000000000000082e-05,-2.399999999999999790e-04,-3.099999999999999999e-04,-1.499999999999999869e-04,-5.299999999999999807e-04,-5.500000000000000331e-04,6.000000000000000000e+00,2.300000000000000000e+01
5.586700000000000000e+04,-1.300000000000000157e-04,-2.000000000000000164e-05,-1.000000000000000082e-05,-2.399999999999999790e-04,-3.099999999999999999e-04,-1.499999999999999869e-04,-5.299999999999999807e-04,-5.500000000000000331e-04,6.000000000000000000e+00,2.300000000000000000e+01
5.586800000000000000e+04,-1.300000000000000157e-04,-2.000000000000000164e-05,-1.000000000000000082e-05,-2.399999999999999790e-04,-3.099999999999999999e-04,-1.499999999999999869e-04,-5.299999999999999807e-04,-5.500000000000000331e-04,6.000000000000000000e+00,2.300000000000000000e+01
5.586900000000000000e+04,-1.300000000000000157e-04,-2.000000000000000164e-05,-1.000000000000000082e-05,-2.399999999999999790e-04,-3.099999999999999999e-04,-1.499999999999999869e-04,-5.299999999999999807e-04,-5.500000000000000331e-04,6.000000000000000000e+00,2.300000000000000000e+01
5.587000000000000000e+04,-1.300000000000000157e-04,-2.000000000000000164e-05,-1.000000000000000082e-05,-2.399999999999999790e-04,-3.099999999999999999e-04,-1.499999999999999869e-04,-5.299999999999999807e-04,-5.500000000000000331e-04,6.000000000000000000e+00,2.300000000000000000e+01
5.587100000000000000e+04,-1.300000000000000157e-04,-2.000000000000000164e-05,-1.000000000000000082e-05,-2.399999999999999790e-04,-3.099999999999999999e-04,-1.499999999999999869e-04,-5.299999999999999807e-04,-5.500000000000000331e-04,6.000000000000000000e+00,2.300000000000000000e+01
5.587200000000000000e+04,-1.300000000000000157e-04,-2.000000000000000164e-05,-1.000000000000000082e-05,-2.399999999999999790e-04,-3.099999999999999999e-04,-1.499999999999999869e-04,-5.299999999999999807e-04,-5.500000000000000331e-04,6.000000000000000000e+00,2.300000000000000000e+01
5.587400000000000000e+04,-1.300000000000000157e-04,-2.000000000000000164e-05,-1.000000000000000082e-05,-2.399999999999999790e-04,-3.099999999999999999e-04,-1.499999999999999869e-04,-5.299999999999999807e-04,-5.500000000000000331e-04,6.000000000000000000e+00,2.300000000000000000e+01
5.587500000000000000e+04,-1.300000000000000157e-04,-2.000000000000000164e-05,-1.000000000000000082e-05,-2.399999999999999790e-04,-3.099999999999999999e-04,-1.499999999999999869e-04,-5.299999999999999807e-04,-5.500000000000000331e-04,6.000000000000000000e+00,2.300000000000000000e+01
5.587600000000000000e+04,-1.300000000000000157e-04,-2.000000000000000164e-05,-1.000000000000000082e-05,-2.399999999999999790e-04,-3.099999999999999999e-04,-1.499999999999999869e-04,-5.299999999999999807e-04,-5.500000000000000331e-04,6.000000000000000000e+00,2.300000000000000000e+01
5.587700000000000000e+04,-1.300000000000000157e-04,-2.000000000000000164e-05,-1.000000000000000082e-05,-2.399999999999999790e-04,-3.099999999999999999e-04,-1.499999999999999869e-04,-5.299999999999999807e-04,-5.500000000000000331e-04,6.000000000000000000e+00,2.300000000000000000e+01
5.587800000000000000e+04,-1.300000000000000157e-04,-2.000000000000000164e-05,-1.000000000000000082e-05,-2.399999999999999790e-04,-3.099999999999999999e-04,-1.499999999999999869e-04,-5.299999999999999807e-04,-5.500000000000000331e-04,6.000000000000000000e+00,2.300000000000000000e+01
5.587900000000000000e+04,-1.300000000000000157e-04,-2.000000000000000164e-05,-1.000000000000000082e-05,-2.399999999999999790e-04,-3.099999999999999999e-04,-1.499999999999999869e-04,-5.299999999999999807e-04,-5.500000000000000331e-04,6.000000000000000000e+00,2.300000000000000000e+01
5.588000000000000000e+04,-1.300000000000000157e-04,-2.000000000000000164e-05,-1.000000000000000082e-05,-2.399999999999999790e-04,-3.099999999999999999e-04,-1.499999999999999869e-04,-5.299999999999999807e-04,-5.500000000000000331e-04,6.000000000000000000e+00,2.300000000000000000e+01
5.588100000000000000e+04,-1.300000000000000157e-04,-2.000000000000000164e-05,-1.000000000000000082e-05,-2.399999999999999790e-04,-3.099999999999999999e-04,-1.499999999999999869e-04,-5.299999999999999807e-04,-5.500000000000000331e-04,6.000000000000000000e+00,2.300000000000000000e+01
5.588200000000000000e+04,-5.699999999999999772e-04,2.999999999999999737e-05,4.000000000000000327e-05,2.200000000000000078e-04,4.799999999999999580e-04,3.699999999999999947e-04,1.300000000000000157e-04,-4.000000000000000327e-05,6.000000000000000000e+00,2.300000000000000000e+01
5.588300000000000000e+04,3.699999999999999947e-04,-1.000000000000000082e-05,-8.000000000000000654e-05,-1.699999999999999851e-04,-3.899999999999999929e-04,3.399999999999999702e-04,-4.000000000000000327e-05,-1.600000000000000131e-04,6.000000000000000000e+00,2.300000000000000000e+01
5.588400000000000000e+04,3.699999999999999947e-04,-1.000000000000000082e-05,-8.000000000000000654e-05,-1.699999999999999851e-04,-3.899999999999999929e-04,3.399999999999999702e-04,-4.000000000000000327e-05,-1.600000000000000131e-04,6.000000000000000000e+00,2.300000000000000000e+01
5.588500000000000000e+04,3.699999999999999947e-04,-1.000000000000000082e-05,-8.000000000000000654e-05,-1.699999999999999851e-04,-3.899999999999999929e-04,3.399999999999999702e-04,-4.000000000000000327e-05,-1.600000000000000131e-04,6.000000000000000000e+00,2.300000000000000000e+01
5.588700000000000000e+04,3.699999999999999947e-04,-1.000000000000000082e-05,-8.000000000000000654e-05,-1.699999999999999851e-04,-3.899999999999999929e-04,3.399999999999999702e-04,-4.000000000000000327e-05,-1.600000000000000131e-04,6.000000000000000000e+00,2.300000000000000000e+01
5.588900000000000000e+04,3.699999999999999947e-04,-1.000000000000000082e-05,-8.000000000000000654e-05,-1.699999999999999851e-04,-3.899999999999999929e-04,3.399999999999999702e-04,-4.000000000000000327e-05,-1.600000000000000131e-04,6.000000000000000000e+00,2.300000000000000000e+01
5.589000000000000000e+04,3.699999999999999947e-04,-1.000000000000000082e-05,-8.000000000000000654e-05,-1.699999999999999851e-04,-3.899999999999999929e-04,3.399999999999999702e-04,-4.000000000000000327e-05,-1.600000000000000131e-04,6.000000000000000000e+00,2.300000000000000000e+01
5.589100000000000000e+04,3.699999999999999947e-04,-1.000000000000000082e-05,-8.000000000000000654e-05,-1.699999999999999851e-04,-3.899999999999999929e-04,3.399999999999999702e-04,-4.000000000000000327e-05,-1.600000000000000131e-04,6.000000000000000000e+00,2.300000000000000000e+01
5.589200000000000000e+04,3.699999999999999947e-04,-1.000000000000000082e-05,-8.000000000000000654e-05,-1.699999999999999851e-04,-3.899999999999999929e-04,3.399999999999999702e-04,-4.000000000000000327e-05,-1.600000000000000131e-04,6.000000000000000000e+00,2.300000000000000000e+01
5.589300000000000000e+04,3.699999999999999947e-04,-1.000000000000000082e-05,-8.000000000000000654e-05,-1.699999999999999851e-04,-3.899999999999999929e-04,3.399999999999999702e-04,-4.000000000000000327e-05,-1.600000000000000131e-04,6.000000000000000000e+00,2.300000000000000000e+01
5.589400000000000000e+04,3.699999999999999947e-04,-1.000000000000000082e-05,-8.000000000000000654e-05,-1.699999999999999851e-04,-3.899999999999999929e-04,3.399999999999999702e-04,-4.000000000000000327e-05,-1.600000000000000131e-04,6.000000000000000000e+00,2.300000000000000000e+01
5.589500000000000000e+04,3.699999999999999947e-04,-1.000000000000000082e-05,-8.000000000000000654e-05,-1.699999999999999851e-04,-3.899999999999999929e-04,3.399999999999999702e-04,-4.000000000000000327e-05,-1.600000000000000131e-04,6.000000000000000000e+00,2.300000000000000000e+01
5.589600000000000000e+04,3.699999999999999947e-04,-1.000000000000000082e-05,-8.000000000000000654e-05,-1.699999999999999851e-04,-3.899999999999999929e-04,3.399999999999999702e-04,-4.000000000000000327e-05,-1.600000000000000131e-04,6.000000000000000000e+00,2.300000000000000000e+01
5.589700000000000000e+04,2.000000000000000164e-05,2.000000000000000164e-05,-5.999999999999999474e-05,-1.300000000000000157e-04,-4.599999999999999597e-04,1.049999999999999935e-03,-3.699999999999999947e-04,2.399999999999999790e-04,6.000000000000000000e+00,2.300000000000000000e+01
5.589800000000000000e+04,-1.059999999999999961e-03,-1.300000000000000157e-04,-5.999999999999999474e-05,-5.999999999999999474e-05,5.999999999999999474e-05,-1.399999999999999877e-04,-5.699999999999999772e-04,-2.299999999999999799e-04,6.000000000000000000e+00,2.300000000000000000e+01
5.589900000000000000e+04,-1.059999999999999961e-03,-1.300000000000000157e-04,-5.999999999999999474e-05,-5.999999999999999474e-05,5.999999999999999474e-05,-1.399999999999999877e-04,-5.699999999999999772e-04,-2.299999999999999799e-04,6.000000000000000000e+00,2.300000000000000000e+01
5.590000000000000000e+04,-1.059999999999999961e-03,-1.300000000000000157e-04,-5.999999999999999474e-05,-5.999999999999999474e-05,5.999999999999999474e-05,-1.399999999999999877e-04,-5.699999999999999772e-04,-2.299999999999999799e-04,6.000000000000000000e+00,2.300000000000000000e+01
5.590100000000000000e+04,-1.059999999999999961e-03,-1.300000000000000157e-04,-5.999999999999999474e-05,-5.999999999999999474e-05,5.999999999999999474e-05,-1.399999999999999877e-04,-5.699999999999999772e-04,-2.299999999999999799e-04,6.000000000000000000e+00,2.300000000000000000e+01
5.590200000000000000e+04,-1.059999999999999961e-03,-1.300000000000000157e-04,-5.999999999999999474e-05,-5.999999999999999474e-05,5.999999999999999474e-05,-1.399999999999999877e-04,-5.699999999999999772e-04,-2.299999999999999799e-04,6.000000000000000000e+00,2.300000000000000000e+01
5.590300000000000000e+04,-1.059999999999999961e-03,-1.300000000000000157e-04,-5.999999999999999474e-05,-5.999999999999999474e-05,5.999999999999999474e-05,-1.399999999999999877e-04,-5.699999999999999772e-04,-2.299999999999999799e-04,6.000000000000000000e+00,2.300000000000000000e+01
5.590400000000000000e+04,-1.059999999999999961e-03,-1.300000000000000157e-04,-5.999999999999999474e-05,-5.999999999999999474e-05,5.999999999999999474e-05,-1.399999999999999877e-04,-5.699999999999999772e-04,-2.299999999999999799e-04,6.000000000000000000e+00,2.300000000000000000e+01
5.590500000000000000e+04,-1.059999999999999961e-03,-1.300000000000000157e-04,-5.999999999999999474e-05,-5.999999999999999474e-05,5.999999999999999474e-05,-1.399999999999999877e-04,-5.699999999999999772e-04,-2.299999999999999799e-04,6.000000000000000000e+00,2.300000000000000000e+01
5.590600000000000000e+04,-1.059999999999999961e-03,-1.300000000000000157e-04,-5.999999999999999474e-05,-5.999999999999999474e-05,5.999999999999999474e-05,-1.399999999999999877e-04,-5.699999999999999772e-04,-2.299999999999999799e-04,6.000000000000000000e+00,2.300000000000000000e+01
5.590700000000000000e+04,-1.059999999999999961e-03,-1.300000000000000157e-04,-5.999999999999999474e-05,-5.999999999999999474e-05,5.999999999999999474e-05,-1.399999999999999877e-04,-5.699999999999999772e-04,-2.299999999999999799e-04,6.000000000000000000e+00,2.300000000000000000e+01
5.590800000000000000e+04,-1.059999999999999961e-03,-1.300000000000000157e-04,-5.999999999999999474e-05,-5.999999999999999474e-05,5.999999999999999474e-05,-1.399999999999999877e-04,-5.699999999999999772e-04,-2.299999999999999799e-04,6.000000000000000000e+00,2.300000000000000000e+01
5.590900000000000000e+04,-1.059999999999999961e-03,-1.300000000000000157e-04,-5.999999999999999474e-05,-5.999999999999999474e-05,5.999999999999999474e-05,-1.399999999999999877e-04,-5.699999999999999772e-04,-2.299999999999999799e-04,6.000000000000000000e+00,2.300000000000000000e+01
5.591000000000000000e+04,-1.059999999999999961e-03,-1.300000000000000157e-04,-5.999999999999999474e-05,-5.999999999999999474e-05,5.999999999999999474e-05,-1.399999999999999877e-04,-5.699999999999999772e-04,-2.299999999999999799e-04,6.000000000000000000e+00,2.300000000000000000e+01
5.591100000000000000e+04,-1.059999999999999961e-03,-1.300000000000000157e-04,-5.999999999999999474e-05,-5.999999999999999474e-05,5.999999999999999474e-05,-1.399999999999999877e-04,-5.699999999999999772e-04,-2.299999999999999799e-04,6.000000000000000000e+00,2.300000000000000000e+01
5.591200000000000000e+04,-1.059999999999999961e-03,-1.300000000000000157e-04,-5.999999999999999474e-05,-5.999999999999999474e-05,5.999999999999999474e-05,-1.399999999999999877e-04,-5.699999999999999772e-04,-2.299999999999999799e-04,6.000000000000000000e+00,2.300000000000000000e+01
5.591300000000000000e+04,-1.059999999999999961e-03,-1.300000000000000157e-04,-5.999999999999999474e-05,-5.999999999999999474e-05,5.999999999999999474e-05,-1.399999999999999877e-04,-5.699999999999999772e-04,-2.299999999999999799e-04,6.000000000000000000e+00,2.300000000000000000e+01
5.591400000000000000e+04,-1.059999999999999961e-03,-1.300000000000000157e-04,-5.999999999999999474e-05,-5.999999999999999474e-05,5.999999999999999474e-05,-1.399999999999999877e-04,-5.699999999999999772e-04,-2.299999999999999799e-04,6.000000000000000000e+00,2.300000000000000000e+01
5.591500000000000000e+04,-1.059999999999999961e-03,-1.300000000000000157e-04,-5.999999999999999474e-05,-5.999999999999999474e-05,5.999999999999999474e-05,-1.399999999999999877e-04,-5.699999999999999772e-04,-2.299999999999999799e-04,6.000000000000000000e+00,2.300000000000000000e+01
5.591600000000000000e+04,-1.059999999999999961e-03,-1.300000000000000157e-04,-5.999999999999999474e-05,-5.999999999999999474e-05,5.999999999999999474e-05,-1.399999999999999877e-04,-5.699999999999999772e-04,-2.299999999999999799e-04,6.000000000000000000e+00,2.300000000000000000e+01
5.591700000000000000e+04,-1.059999999999999961e-03,-1.300000000000000157e-04,-5.999999999999999474e-05,-5.999999999999999474e-05,5.999999999999999474e-05,-1.399999999999999877e-04,-5.699999999999999772e-04,-2.299999999999999799e-04,6.000000000000000000e+00,2.300000000000000000e+01
5.591800000000000000e+04,-1.059999999999999961e-03,-1.300000000000000157e-04,-5.999999999999999474e-05,-5.999999999999999474e-05,5.999999999999999474e-05,-1.399999999999999877e-04,-5.699999999999999772e-04,-2.299999999999999799e-04,6.000000000000000000e+00,2.300000000000000000e+01
5.591900000000000000e+04,5.699999999999999772e-04,9.000000000000000567e-05,5.999999999999999474e-05,9.000000000000000567e-05,7.700000000000000681e-04,4.099999999999999912e-04,1.800000000000000113e-04,2.000000000000000164e-05,6.000000000000000000e+00,2.300000000000000000e+01
5.592000000000000000e+04,5.699999999999999772e-04,9.000000000000000567e-05,5.999999999999999474e-05,9.000000000000000567e-05,7.700000000000000681e-04,4.099999999999999912e-04,1.800000000000000113e-04,2.000000000000000164e-05,6.000000000000000000e+00,2.300000000000000000e+01
5.592100000000000000e+04,2.900000000000000017e-04,-4.000000000000000327e-05,2.000000000000000164e-05,8.000000000000000654e-05,-1.100000000000000039e-04,6.999999999999999929e-04,1.699999999999999851e-04,8.400000000000000348e-04,6.000000000000000000e+00,2.300000000000000000e+01
5.592200000000000000e+04,2.900000000000000017e-04,-4.000000000000000327e-05,2.000000000000000164e-05,8.000000000000000654e-05,-1.100000000000000039e-04,6.999999999999999929e-04,1.699999999999999851e-04,8.400000000000000348e-04,6.000000000000000000e+00,2.300000000000000000e+01
5.592300000000000000e+04,2.900000000000000017e-04,-4.000000000000000327e-05,2.000000000000000164e-05,8.000000000000000654e-05,-1.100000000000000039e-04,6.999999999999999929e-04,1.699999999999999851e-04,8.400000000000000348e-04,6.000000000000000000e+00,2.300000000000000000e+01
5.592400000000000000e+04,2.900000000000000017e-04,-4.000000000000000327e-05,2.000000000000000164e-05,8.000000000000000654e-05,-1.100000000000000039e-04,6.999999999999999929e-04,1.699999999999999851e-04,8.400000000000000348e-04,6.000000000000000000e+00,2.300000000000000000e+01
5.592500000000000000e+04,2.900000000000000017e-04,-4.000000000000000327e-05,2.000000000000000164e-05,8.000000000000000654e-05,-1.100000000000000039e-04,6.999999999999999929e-04,1.699999999999999851e-04,8.400000000000000348e-04,6.000000000000000000e+00,2.300000000000000000e+01
5.592600000000000000e+04,2.900000000000000017e-04,-4.000000000000000327e-05,2.000000000000000164e-05,8.000000000000000654e-05,-1.100000000000000039e-04,6.999999999999999929e-04,1.699999999999999851e-04,8.400000000000000348e-04,6.000000000000000000e+00,2.300000000000000000e+01
5.592700000000000000e+04,2.900000000000000017e-04,-4.000000000000000327e-05,2.000000000000000164e-05,8.000000000000000654e-05,-1.100000000000000039e-04,6.999999999999999929e-04,1.699999999999999851e-04,8.400000000000000348e-04,6.000000000000000000e+00,2.300000000000000000e+01
5.592800000000000000e+04,2.900000000000000017e-04,-4.000000000000000327e-05,2.000000000000000164e-05,8.000000000000000654e-05,-1.100000000000000039e-04,6.999999999999999929e-04,1.699999999999999851e-04,8.400000000000000348e-04,6.000000000000000000e+00,2.300000000000000000e+01
