1.025400000000000000e+04,1.119999999999999902e-03,1.269999999999999862e-03,9.000000000000000567e-05,-5.999999999999999474e-05,-1.300000000000000157e-04,-1.800000000000000113e-04,-2.299999999999999799e-04,3.899999999999999929e-04,3.000000000000000000e+00,5.000000000000000000e+00
1.025500000000000000e+04,1.119999999999999902e-03,1.269999999999999862e-03,9.000000000000000567e-05,-5.999999999999999474e-05,-1.300000000000000157e-04,-1.800000000000000113e-04,-2.299999999999999799e-04,3.899999999999999929e-04,3.000000000000000000e+00,5.000000000000000000e+00
1.025600000000000000e+04,1.119999999999999902e-03,1.269999999999999862e-03,9.000000000000000567e-05,-5.999999999999999474e-05,-1.300000000000000157e-04,-1.800000000000000113e-04,-2.299999999999999799e-04,3.899999999999999929e-04,3.000000000000000000e+00,5.000000000000000000e+00
1.025700000000000000e+04,1.119999999999999902e-03,1.269999999999999862e-03,9.000000000000000567e-05,-5.999999999999999474e-05,-1.300000000000000157e-04,-1.800000000000000113e-04,-2.299999999999999799e-04,3.899999999999999929e-04,3.000000000000000000e+00,5.000000000000000000e+00
1.025800000000000000e+04,1.119999999999999902e-03,1.269999999999999862e-03,9.000000000000000567e-05,-5.999999999999999474e-05,-1.300000000000000157e-04,-1.800000000000000113e-04,-2.299999999999999799e-04,3.899999999999999929e-04,3.000000000000000000e+00,5.000000000000000000e+00
1.025900000000000000e+04,1.119999999999999902e-03,1.269999999999999862e-03,9.000000000000000567e-05,-5.999999999999999474e-05,-1.300000000000000157e-04,-1.800000000000000113e-04,-2.299999999999999799e-04,3.899999999999999929e-04,3.000000000000000000e+00,5.000000000000000000e+00
1.026000000000000000e+04,1.119999999999999902e-03,1.269999999999999862e-03,9.000000000000000567e-05,-5.999999999999999474e-05,-1.300000000000000157e-04,-1.800000000000000113e-04,-2.299999999999999799e-04,3.899999999999999929e-04,3.000000000000000000e+00,5.000000000000000000e+00
1.026100000000000000e+04,1.119999999999999902e-03,1.269999999999999862e-03,9.000000000000000567e-05,-5.999999999999999474e-05,-1.300000000000000157e-04,-1.800000000000000113e-04,-2.299999999999999799e-04,3.899999999999999929e-04,3.000000000000000000e+00,5.000000000000000000e+00
1.026300000000000000e+04,3.299999999999999982e-04,7.500000000000000156e-04,1.199999999999999895e-04,0.000000000000000000e+00,-6.999999999999999387e-05,-6.999999999999999387e-05,1.100000000000000039e-04,4.099999999999999912e-04,3.000000000000000000e+00,5.000000000000000000e+00
1.026400000000000000e+04,3.299999999999999982e-04,7.500000000000000156e-04,1.199999999999999895e-04,0.000000000000000000e+00,-6.999999999999999387e-05,-6.999999999999999387e-05,1.100000000000000039e-04,4.099999999999999912e-04,3.000000000000000000e+00,5.000000000000000000e+00
1.026500000000000000e+04,3.299999999999999982e-04,7.500000000000000156e-04,1.199999999999999895e-04,0.000000000000000000e+00,-6.999999999999999387e-05,-6.999999999999999387e-05,1.100000000000000039e-04,4.099999999999999912e-04,3.000000000000000000e+00,5.000000000000000000e+00
1.026600000000000000e+04,3.299999999999999982e-04,7.500000000000000156e-04,1.199999999999999895e-04,0.000000000000000000e+00,-6.999999999999999387e-05,-6.999999999999999387e-05,1.100000000000000039e-04,4.099999999999999912e-04,3.000000000000000000e+00,5.000000000000000000e+00
1.026700000000000000e+04,3.299999999999999982e-04,7.500000000000000156e-04,1.199999999999999895e-04,0.000000000000000000e+00,-6.999999999999999387e-05,-6.999999999999999387e-05,1.100000000000000039e-04,4.099999999999999912e-04,3.000000000000000000e+00,5.000000000000000000e+00
1.026800000000000000e+04,3.299999999999999982e-04,7.500000000000000156e-04,1.199999999999999895e-04,0.000000000000000000e+00,-6.999999999999999387e-05,-6.999999999999999387e-05,1.100000000000000039e-04,4.099999999999999912e-04,3.000000000000000000e+00,5.000000000000000000e+00
1.026900000000000000e+04,3.299999999999999982e-04,7.500000000000000156e-04,1.199999999999999895e-04,0.000000000000000000e+00,-6.999999999999999387e-05,-6.999999999999999387e-05,1.100000000000000039e-04,4.099999999999999912e-04,3.000000000000000000e+00,5.000000000000000000e+00
1.027000000000000000e+04,3.299999999999999982e-04,7.500000000000000156e-04,1.199999999999999895e-04,0.000000000000000000e+00,-6.999999999999999387e-05,-6.999999999999999387e-05,1.100000000000000039e-04,4.099999999999999912e-04,3.000000000000000000e+00,5.000000000000000000e+00
1.027100000000000000e+04,3.299999999999999982e-04,7.500000000000000156e-04,1.199999999999999895e-04,0.000000000000000000e+00,-6.999999999999999387e-05,-6.999999999999999387e-05,1.100000000000000039e-04,4.099999999999999912e-04,3.000000000000000000e+00,5.000000000000000000e+00
1.027200000000000000e+04,3.299999999999999982e-04,7.500000000000000156e-04,1.199999999999999895e-04,0.000000000000000000e+00,-6.999999999999999387e-05,-6.999999999999999387e-05,1.100000000000000039e-04,4.099999999999999912e-04,3.000000000000000000e+00,5.000000000000000000e+00
1.027300000000000000e+04,3.299999999999999982e-04,7.500000000000000156e-04,1.199999999999999895e-04,0.000000000000000000e+00,-6.999999999999999387e-05,-6.999999999999999387e-05,1.100000000000000039e-04,4.099999999999999912e-04,3.000000000000000000e+00,5.000000000000000000e+00
1.027400000000000000e+04,3.299999999999999982e-04,7.500000000000000156e-04,1.199999999999999895e-04,0.000000000000000000e+00,-6.999999999999999387e-05,-6.999999999999999387e-05,1.100000000000000039e-04,4.099999999999999912e-04,3.000000000000000000e+00,5.000000000000000000e+00
1.027500000000000000e+04,1.800000000000000113e-04,4.499999999999999877e-04,5.000000000000000240e-05,5.999999999999999474e-05,2.000000000000000164e-05,-5.000000000000000240e-05,-2.999999999999999737e-05,-1.300000000000000157e-04,3.000000000000000000e+00,5.000000000000000000e+00
1.027600000000000000e+04,1.800000000000000113e-04,4.499999999999999877e-04,5.000000000000000240e-05,5.999999999999999474e-05,2.000000000000000164e-05,-5.000000000000000240e-05,-2.999999999999999737e-05,-1.300000000000000157e-04,3.000000000000000000e+00,5.000000000000000000e+00
1.027700000000000000e+04,1.800000000000000113e-04,4.499999999999999877e-04,5.000000000000000240e-05,5.999999999999999474e-05,2.000000000000000164e-05,-5.000000000000000240e-05,-2.999999999999999737e-05,-1.300000000000000157e-04,3.000000000000000000e+00,5.000000000000000000e+00
1.027800000000000000e+04,1.800000000000000113e-04,4.499999999999999877e-04,5.000000000000000240e-05,5.999999999999999474e-05,2.000000000000000164e-05,-5.000000000000000240e-05,-2.999999999999999737e-05,-1.300000000000000157e-04,3.000000000000000000e+00,5.000000000000000000e+00
1.027900000000000000e+04,1.800000000000000113e-04,4.499999999999999877e-04,5.000000000000000240e-05,5.999999999999999474e-05,2.000000000000000164e-05,-5.000000000000000240e-05,-2.999999999999999737e-05,-1.300000000000000157e-04,3.000000000000000000e+00,5.000000000000000000e+00
1.028000000000000000e+04,1.800000000000000113e-04,4.499999999999999877e-04,5.000000000000000240e-05,5.999999999999999474e-05,2.000000000000000164e-05,-5.000000000000000240e-05,-2.999999999999999737e-05,-1.300000000000000157e-04,3.000000000000000000e+00,5.000000000000000000e+00
1.028100000000000000e+04,-5.400000000000000069e-04,-8.800000000000000313e-04,-1.899999999999999834e-04,-9.000000000000000567e-05,-6.999999999999999387e-05,1.000000000000000082e-05,-2.000000000000000164e-05,-8.000000000000000654e-05,3.000000000000000000e+00,5.000000000000000000e+00
1.028300000000000000e+04,-2.399999999999999790e-04,-4.400000000000000157e-04,-5.999999999999999474e-05,-9.000000000000000567e-05,-2.500000000000000052e-04,-2.000000000000000096e-04,1.399999999999999877e-04,-1.100000000000000039e-04,3.000000000000000000e+00,5.000000000000000000e+00
1.028400000000000000e+04,-2.399999999999999790e-04,-4.400000000000000157e-04,-5.999999999999999474e-05,-9.000000000000000567e-05,-2.500000000000000052e-04,-2.000000000000000096e-04,1.399999999999999877e-04,-1.100000000000000039e-04,3.000000000000000000e+00,5.000000000000000000e+00
1.028500000000000000e+04,-2.399999999999999790e-04,-4.400000000000000157e-04,-5.999999999999999474e-05,-9.000000000000000567e-05,-2.500000000000000052e-04,-2.000000000000000096e-04,1.399999999999999877e-04,-1.100000000000000039e-04,3.000000000000000000e+00,5.000000000000000000e+00
1.028600000000000000e+04,-2.399999999999999790e-04,-4.400000000000000157e-04,-5.999999999999999474e-05,-9.000000000000000567e-05,-2.500000000000000052e-04,-2.000000000000000096e-04,1.399999999999999877e-04,-1.100000000000000039e-04,3.000000000000000000e+00,5.000000000000000000e+00
1.028900000000000000e+04,-2.399999999999999790e-04,-4.400000000000000157e-04,-5.999999999999999474e-05,-9.000000000000000567e-05,-2.500000000000000052e-04,-2.000000000000000096e-04,1.399999999999999877e-04,-1.100000000000000039e-04,3.000000000000000000e+00,5.000000000000000000e+00
1.029000000000000000e+04,-2.399999999999999790e-04,-4.400000000000000157e-04,-5.999999999999999474e-05,-9.000000000000000567e-05,-2.500000000000000052e-04,-2.000000000000000096e-04,1.399999999999999877e-04,-1.100000000000000039e-04,3.000000000000000000e+00,5.000000000000000000e+00
1.029100000000000000e+04,-2.399999999999999790e-04,-4.400000000000000157e-04,-5.999999999999999474e-05,-9.000000000000000567e-05,-2.500000000000000052e-04,-2.000000000000000096e-04,1.399999999999999877e-04,-1.100000000000000039e-04,3.000000000000000000e+00,5.000000000000000000e+00
1.029200000000000000e+04,-2.399999999999999790e-04,-4.400000000000000157e-04,-5.999999999999999474e-05,-9.000000000000000567e-05,-2.500000000000000052e-04,-2.000000000000000096e-04,1.399999999999999877e-04,-1.100000000000000039e-04,3.000000000000000000e+00,5.000000000000000000e+00
1.029300000000000000e+04,-2.399999999999999790e-04,-4.400000000000000157e-04,-5.999999999999999474e-05,-9.000000000000000567e-05,-2.500000000000000052e-04,-2.000000000000000096e-04,1.399999999999999877e-04,-1.100000000000000039e-04,3.000000000000000000e+00,5.000000000000000000e+00
1.029400000000000000e+04,-2.399999999999999790e-04,-4.400000000000000157e-04,-5.999999999999999474e-05,-9.000000000000000567e-05,-2.500000000000000052e-04,-2.000000000000000096e-04,1.399999999999999877e-04,-1.100000000000000039e-04,3.000000000000000000e+00,5.000000000000000000e+00
1.029500000000000000e+04,-2.399999999999999790e-04,-4.400000000000000157e-04,-5.999999999999999474e-05,-9.000000000000000567e-05,-2.500000000000000052e-04,-2.000000000000000096e-04,1.399999999999999877e-04,-1.100000000000000039e-04,3.000000000000000000e+00,5.000000000000000000e+00
1.029600000000000000e+04,-2.399999999999999790e-04,-4.400000000000000157e-04,-5.999999999999999474e-05,-9.000000000000000567e-05,-2.500000000000000052e-04,-2.000000000000000096e-04,1.399999999999999877e-04,-1.100000000000000039e-04,3.000000000000000000e+00,5.000000000000000000e+00
1.029700000000000000e+04,-2.399999999999999790e-04,-4.400000000000000157e-04,-5.999999999999999474e-05,-9.000000000000000567e-05,-2.500000000000000052e-04,-2.000000000000000096e-04,1.399999999999999877e-04,-1.100000000000000039e-04,3.000000000000000000e+00,5.000000000000000000e+00
1.029800000000000000e+04,-2.000000000000000164e-05,1.399999999999999877e-04,-4.000000000000000327e-05,-1.000000000000000048e-04,-5.999999999999999474e-05,-9.000000000000000567e-05,-1.199999999999999895e-04,1.000000000000000048e-04,3.000000000000000000e+00,5.000000000000000000e+00
1.029900000000000000e+04,-2.700000000000000035e-04,-3.499999999999999964e-04,1.000000000000000082e-05,8.000000000000000654e-05,1.699999999999999851e-04,2.000000000000000096e-04,-6.999999999999999387e-05,-7.299999999999999632e-04,3.000000000000000000e+00,5.000000000000000000e+00
1.030000000000000000e+04,-2.700000000000000035e-04,-3.499999999999999964e-04,1.000000000000000082e-05,8.000000000000000654e-05,1.699999999999999851e-04,2.000000000000000096e-04,-6.999999999999999387e-05,-7.299999999999999632e-04,3.000000000000000000e+00,5.000000000000000000e+00
1.030100000000000000e+04,-2.700000000000000035e-04,-3.499999999999999964e-04,1.000000000000000082e-05,8.000000000000000654e-05,1.699999999999999851e-04,2.000000000000000096e-04,-6.999999999999999387e-05,-7.299999999999999632e-04,3.000000000000000000e+00,5.000000000000000000e+00
1.030200000000000000e+04,-2.700000000000000035e-04,-3.499999999999999964e-04,1.000000000000000082e-05,8.000000000000000654e-05,1.699999999999999851e-04,2.000000000000000096e-04,-6.999999999999999387e-05,-7.299999999999999632e-04,3.000000000000000000e+00,5.000000000000000000e+00
1.030300000000000000e+04,-2.700000000000000035e-04,-3.499999999999999964e-04,1.000000000000000082e-05,8.000000000000000654e-05,1.699999999999999851e-04,2.000000000000000096e-04,-6.999999999999999387e-05,-7.299999999999999632e-04,3.000000000000000000e+00,5.000000000000000000e+00
1.030400000000000000e+04,-2.700000000000000035e-04,-3.499999999999999964e-04,1.000000000000000082e-05,8.000000000000000654e-05,1.699999999999999851e-04,2.000000000000000096e-04,-6.999999999999999387e-05,-7.299999999999999632e-04,3.000000000000000000e+00,5.000000000000000000e+00
1.030500000000000000e+04,-2.700000000000000035e-04,-3.499999999999999964e-04,1.000000000000000082e-05,8.000000000000000654e-05,1.699999999999999851e-04,2.000000000000000096e-04,-6.999999999999999387e-05,-7.299999999999999632e-04,3.000000000000000000e+00,5.000000000000000000e+00
1.030600000000000000e+04,-2.700000000000000035e-04,-3.499999999999999964e-04,1.000000000000000082e-05,8.000000000000000654e-05,1.699999999999999851e-04,2.000000000000000096e-04,-6.999999999999999387e-05,-7.299999999999999632e-04,3.000000000000000000e+00,5.000000000000000000e+00
1.030700000000000000e+04,-2.700000000000000035e-04,-3.499999999999999964e-04,1.000000000000000082e-05,8.000000000000000654e-05,1.699999999999999851e-04,2.000000000000000096e-04,-6.999999999999999387e-05,-7.299999999999999632e-04,3.000000000000000000e+00,5.000000000000000000e+00
1.030800000000000000e+04,-2.700000000000000035e-04,-3.499999999999999964e-04,1.000000000000000082e-05,8.000000000000000654e-05,1.699999999999999851e-04,2.000000000000000096e-04,-6.999999999999999387e-05,-7.299999999999999632e-04,3.000000000000000000e+00,5.000000000000000000e+00
1.030900000000000000e+04,-2.700000000000000035e-04,-3.499999999999999964e-04,1.000000000000000082e-05,8.000000000000000654e-05,1.699999999999999851e-04,2.000000000000000096e-04,-6.999999999999999387e-05,-7.299999999999999632e-04,3.000000000000000000e+00,5.000000000000000000e+00
1.031000000000000000e+04,-2.700000000000000035e-04,-3.499999999999999964e-04,1.000000000000000082e-05,8.000000000000000654e-05,1.699999999999999851e-04,2.000000000000000096e-04,-6.999999999999999387e-05,-7.299999999999999632e-04,3.000000000000000000e+00,5.000000000000000000e+00
1.031100000000000000e+04,-2.700000000000000035e-04,-3.499999999999999964e-04,1.000000000000000082e-05,8.000000000000000654e-05,1.699999999999999851e-04,2.000000000000000096e-04,-6.999999999999999387e-05,-7.299999999999999632e-04,3.000000000000000000e+00,5.000000000000000000e+00
1.031200000000000000e+04,-2.700000000000000035e-04,-3.499999999999999964e-04,1.000000000000000082e-05,8.000000000000000654e-05,1.699999999999999851e-04,2.000000000000000096e-04,-6.999999999999999387e-05,-7.299999999999999632e-04,3.000000000000000000e+00,5.000000000000000000e+00
1.031300000000000000e+04,-2.700000000000000035e-04,-3.499999999999999964e-04,1.000000000000000082e-05,8.000000000000000654e-05,1.699999999999999851e-04,2.000000000000000096e-04,-6.999999999999999387e-05,-7.299999999999999632e-04,3.000000000000000000e+00,5.000000000000000000e+00
1.031400000000000000e+04,-2.700000000000000035e-04,-3.499999999999999964e-04,1.000000000000000082e-05,8.000000000000000654e-05,1.699999999999999851e-04,2.000000000000000096e-04,-6.999999999999999387e-05,-7.299999999999999632e-04,3.000000000000000000e+00,5.000000000000000000e+00
1.031500000000000000e+04,-2.700000000000000035e-04,-3.499999999999999964e-04,1.000000000000000082e-05,8.000000000000000654e-05,1.699999999999999851e-04,2.000000000000000096e-04,-6.999999999999999387e-05,-7.299999999999999632e-04,3.000000000000000000e+00,5.000000000000000000e+00
1.031600000000000000e+04,-2.700000000000000035e-04,-3.499999999999999964e-04,1.000000000000000082e-05,8.000000000000000654e-05,1.699999999999999851e-04,2.000000000000000096e-04,-6.999999999999999387e-05,-7.299999999999999632e-04,3.000000000000000000e+00,5.000000000000000000e+00
1.031700000000000000e+04,-2.700000000000000035e-04,-3.499999999999999964e-04,1.000000000000000082e-05,8.000000000000000654e-05,1.699999999999999851e-04,2.000000000000000096e-04,-6.999999999999999387e-05,-7.299999999999999632e-04,3.000000000000000000e+00,5.000000000000000000e+00
1.031800000000000000e+04,-2.700000000000000035e-04,-3.499999999999999964e-04,1.000000000000000082e-05,8.000000000000000654e-05,1.699999999999999851e-04,2.000000000000000096e-04,-6.999999999999999387e-05,-7.299999999999999632e-04,3.000000000000000000e+00,5.000000000000000000e+00
1.031900000000000000e+04,-2.700000000000000035e-04,-3.499999999999999964e-04,1.000000000000000082e-05,8.000000000000000654e-05,1.699999999999999851e-04,2.000000000000000096e-04,-6.999999999999999387e-05,-7.299999999999999632e-04,3.000000000000000000e+00,5.000000000000000000e+00
1.032000000000000000e+04,4.299999999999999894e-04,7.399999999999999894e-04,1.399999999999999877e-04,1.100000000000000039e-04,9.000000000000000567e-05,5.000000000000000240e-05,-1.000000000000000082e-05,2.399999999999999790e-04,3.000000000000000000e+00,5.000000000000000000e+00
1.032100000000000000e+04,-1.300000000000000157e-04,-2.299999999999999799e-04,-1.000000000000000048e-04,-6.999999999999999387e-05,-9.000000000000000567e-05,1.000000000000000082e-05,-4.000000000000000327e-05,-2.299999999999999799e-04,3.000000000000000000e+00,5.000000000000000000e+00
1.032200000000000000e+04,-1.300000000000000157e-04,-2.299999999999999799e-04,-1.000000000000000048e-04,-6.999999999999999387e-05,-9.000000000000000567e-05,1.000000000000000082e-05,-4.000000000000000327e-05,-2.299999999999999799e-04,3.000000000000000000e+00,5.000000000000000000e+00
1.032300000000000000e+04,-1.300000000000000157e-04,-2.299999999999999799e-04,-1.000000000000000048e-04,-6.999999999999999387e-05,-9.000000000000000567e-05,1.000000000000000082e-05,-4.000000000000000327e-05,-2.299999999999999799e-04,3.000000000000000000e+00,5.000000000000000000e+00
1.032400000000000000e+04,-1.300000000000000157e-04,-2.299999999999999799e-04,-1.000000000000000048e-04,-6.999999999999999387e-05,-9.000000000000000567e-05,1.000000000000000082e-05,-4.000000000000000327e-05,-2.299999999999999799e-04,3.000000000000000000e+00,5.000000000000000000e+00
1.032500000000000000e+04,-1.300000000000000157e-04,-2.299999999999999799e-04,-1.000000000000000048e-04,-6.999999999999999387e-05,-9.000000000000000567e-05,1.000000000000000082e-05,-4.000000000000000327e-05,-2.299999999999999799e-04,3.000000000000000000e+00,5.000000000000000000e+00
1.032600000000000000e+04,-1.300000000000000157e-04,-2.299999999999999799e-04,-1.000000000000000048e-04,-6.999999999999999387e-05,-9.000000000000000567e-05,1.000000000000000082e-05,-4.000000000000000327e-05,-2.299999999999999799e-04,3.000000000000000000e+00,5.000000000000000000e+00
1.032700000000000000e+04,-1.300000000000000157e-04,-2.299999999999999799e-04,-1.000000000000000048e-04,-6.999999999999999387e-05,-9.000000000000000567e-05,1.000000000000000082e-05,-4.000000000000000327e-05,-2.299999999999999799e-04,3.000000000000000000e+00,5.000000000000000000e+00
1.032800000000000000e+04,-1.300000000000000157e-04,-2.299999999999999799e-04,-1.000000000000000048e-04,-6.999999999999999387e-05,-9.000000000000000567e-05,1.000000000000000082e-05,-4.000000000000000327e-05,-2.299999999999999799e-04,3.000000000000000000e+00,5.000000000000000000e+00
1.032900000000000000e+04,-1.300000000000000157e-04,-2.299999999999999799e-04,-1.000000000000000048e-04,-6.999999999999999387e-05,-9.000000000000000567e-05,1.000000000000000082e-05,-4.000000000000000327e-05,-2.299999999999999799e-04,3.000000000000000000e+00,5.000000000000000000e+00
1.033000000000000000e+04,-1.300000000000000157e-04,-2.299999999999999799e-04,-1.000000000000000048e-04,-6.999999999999999387e-05,-9.000000000000000567e-05,1.000000000000000082e-05,-4.000000000000000327e-05,-2.299999999999999799e-04,3.000000000000000000e+00,5.000000000000000000e+00
1.033100000000000000e+04,-1.300000000000000157e-04,-2.299999999999999799e-04,-1.000000000000000048e-04,-6.999999999999999387e-05,-9.000000000000000567e-05,1.000000000000000082e-05,-4.000000000000000327e-05,-2.299999999999999799e-04,3.000000000000000000e+00,5.000000000000000000e+00
1.033200000000000000e+04,-1.300000000000000157e-04,-2.299999999999999799e-04,-1.000000000000000048e-04,-6.999999999999999387e-05,-9.000000000000000567e-05,1.000000000000000082e-05,-4.000000000000000327e-05,-2.299999999999999799e-04,3.000000000000000000e+00,5.000000000000000000e+00
1.033300000000000000e+04,-1.300000000000000157e-04,-2.299999999999999799e-04,-1.000000000000000048e-04,-6.999999999999999387e-05,-9.000000000000000567e-05,1.000000000000000082e-05,-4.000000000000000327e-05,-2.299999999999999799e-04,3.000000000000000000e+00,5.000000000000000000e+00
1.033400000000000000e+04,-1.300000000000000157e-04,-2.299999999999999799e-04,-1.000000000000000048e-04,-6.999999999999999387e-05,-9.000000000000000567e-05,1.000000000000000082e-05,-4.000000000000000327e-05,-2.299999999999999799e-04,3.000000000000000000e+00,5.000000000000000000e+00
1.033500000000000000e+04,-1.300000000000000157e-04,-2.299999999999999799e-04,-1.000000000000000048e-04,-6.999999999999999387e-05,-9.000000000000000567e-05,1.000000000000000082e-05,-4.000000000000000327e-05,-2.299999999999999799e-04,3.000000000000000000e+00,5.000000000000000000e+00
1.033600000000000000e+04,-1.300000000000000157e-04,-2.299999999999999799e-04,-1.000000000000000048e-04,-6.999999999999999387e-05,-9.000000000000000567e-05,1.000000000000000082e-05,-4.000000000000000327e-05,-2.299999999999999799e-04,3.000000000000000000e+00,5.000000000000000000e+00
1.033800000000000000e+04,-1.300000000000000157e-04,-2.299999999999999799e-04,-1.000000000000000048e-04,-6.999999999999999387e-05,-9.000000000000000567e-05,1.000000000000000082e-05,-4.000000000000000327e-05,-2.299999999999999799e-04,3.000000000000000000e+00,5.000000000000000000e+00
1.033900000000000000e+04,-1.300000000000000157e-04,-2.299999999999999799e-04,-1.000000000000000048e-04,-6.999999999999999387e-05,-9.000000000000000567e-05,1.000000000000000082e-05,-4.000000000000000327e-05,-2.299999999999999799e-04,3.000000000000000000e+00,5.000000000000000000e+00
1.034000000000000000e+04,-1.300000000000000157e-04,-2.299999999999999799e-04,-1.000000000000000048e-04,-6.999999999999999387e-05,-9.000000000000000567e-05,1.000000000000000082e-05,-4.000000000000000327e-05,-2.299999999999999799e-04,3.000000000000000000e+00,5.000000000000000000e+00
1.034100000000000000e+04,-1.300000000000000157e-04,-2.299999999999999799e-04,-1.000000000000000048e-04,-6.999999999999999387e-05,-9.000000000000000567e-05,1.000000000000000082e-05,-4.000000000000000327e-05,-2.299999999999999799e-04,3.000000000000000000e+00,5.000000000000000000e+00
1.034200000000000000e+04,-1.300000000000000157e-04,-2.299999999999999799e-04,-1.000000000000000048e-04,-6.999999999999999387e-05,-9.000000000000000567e-05,1.000000000000000082e-05,-4.000000000000000327e-05,-2.299999999999999799e-04,3.000000000000000000e+00,5.000000000000000000e+00
1.034300000000000000e+04,2.999999999999999737e-05,2.299999999999999799e-04,6.999999999999999387e-05,2.000000000000000164e-05,5.000000000000000240e-05,2.000000000000000164e-05,-5.000000000000000240e-05,-1.899999999999999834e-04,3.000000000000000000e+00,5.000000000000000000e+00
1.034400000000000000e+04,2.700000000000000035e-04,5.000000000000000240e-05,-2.000000000000000164e-05,4.000000000000000327e-05,1.499999999999999869e-04,8.000000000000000654e-05,-2.999999999999999737e-05,1.800000000000000113e-04,3.000000000000000000e+00,5.000000000000000000e+00
1.034500000000000000e+04,-5.900000000000000296e-04,-6.499999999999999702e-04,-1.899999999999999834e-04,-2.000000000000000164e-05,1.399999999999999877e-04,6.999999999999999387e-05,-5.000000000000000240e-05,-3.399999999999999702e-04,3.000000000000000000e+00,5.000000000000000000e+00
1.034600000000000000e+04,-5.900000000000000296e-04,-6.499999999999999702e-04,-1.899999999999999834e-04,-2.000000000000000164e-05,1.399999999999999877e-04,6.999999999999999387e-05,-5.000000000000000240e-05,-3.399999999999999702e-04,3.000000000000000000e+00,5.000000000000000000e+00
1.034700000000000000e+04,-5.900000000000000296e-04,-6.499999999999999702e-04,-1.899999999999999834e-04,-2.000000000000000164e-05,1.399999999999999877e-04,6.999999999999999387e-05,-5.000000000000000240e-05,-3.399999999999999702e-04,3.000000000000000000e+00,5.000000000000000000e+00
1.034800000000000000e+04,-5.900000000000000296e-04,-6.499999999999999702e-04,-1.899999999999999834e-04,-2.000000000000000164e-05,1.399999999999999877e-04,6.999999999999999387e-05,-5.000000000000000240e-05,-3.399999999999999702e-04,3.000000000000000000e+00,5.000000000000000000e+00
1.034900000000000000e+04,-5.900000000000000296e-04,-6.499999999999999702e-04,-1.899999999999999834e-04,-2.000000000000000164e-05,1.399999999999999877e-04,6.999999999999999387e-05,-5.000000000000000240e-05,-3.399999999999999702e-04,3.000000000000000000e+00,5.000000000000000000e+00
1.035000000000000000e+04,-5.900000000000000296e-04,-6.499999999999999702e-04,-1.899999999999999834e-04,-2.000000000000000164e-05,1.399999999999999877e-04,6.999999999999999387e-05,-5.000000000000000240e-05,-3.399999999999999702e-04,3.000000000000000000e+00,5.000000000000000000e+00
1.035100000000000000e+04,-5.900000000000000296e-04,-6.499999999999999702e-04,-1.899999999999999834e-04,-2.000000000000000164e-05,1.399999999999999877e-04,6.999999999999999387e-05,-5.000000000000000240e-05,-3.399999999999999702e-04,3.000000000000000000e+00,5.000000000000000000e+00
1.035200000000000000e+04,-5.900000000000000296e-04,-6.499999999999999702e-04,-1.899999999999999834e-04,-2.000000000000000164e-05,1.399999999999999877e-04,6.999999999999999387e-05,-5.000000000000000240e-05,-3.399999999999999702e-04,3.000000000000000000e+00,5.000000000000000000e+00
1.035300000000000000e+04,-5.900000000000000296e-04,-6.499999999999999702e-04,-1.899999999999999834e-04,-2.000000000000000164e-05,1.399999999999999877e-04,6.999999999999999387e-05,-5.000000000000000240e-05,-3.399999999999999702e-04,3.000000000000000000e+00,5.000000000000000000e+00
1.035400000000000000e+04,-5.900000000000000296e-04,-6.499999999999999702e-04,-1.899999999999999834e-04,-2.000000000000000164e-05,1.399999999999999877e-04,6.999999999999999387e-05,-5.000000000000000240e-05,-3.399999999999999702e-04,3.000000000000000000e+00,5.000000000000000000e+00
1.035500000000000000e+04,-5.900000000000000296e-04,-6.499999999999999702e-04,-1.899999999999999834e-04,-2.000000000000000164e-05,1.399999999999999877e-04,6.999999999999999387e-05,-5.000000000000000240e-05,-3.399999999999999702e-04,3.000000000000000000e+00,5.000000000000000000e+00
1.035700000000000000e+04,-5.900000000000000296e-04,-6.499999999999999702e-04,-1.899999999999999834e-04,-2.000000000000000164e-05,1.399999999999999877e-04,6.999999999999999387e-05,-5.000000000000000240e-05,-3.399999999999999702e-04,3.000000000000000000e+00,5.000000000000000000e+00
1.035800000000000000e+04,-1.100000000000000039e-04,-3.799999999999999667e-04,-5.000000000000000240e-05,-1.300000000000000157e-04,-3.200000000000000262e-04,-1.800000000000000113e-04,2.999999999999999737e-05,-1.499999999999999869e-04,3.000000000000000000e+00,5.000000000000000000e+00
1.035900000000000000e+04,1.600000000000000131e-04,1.699999999999999851e-04,2.000000000000000164e-05,-2.999999999999999737e-05,-5.000000000000000240e-05,-1.000000000000000082e-05,-8.000000000000000654e-05,-2.299999999999999799e-04,3.000000000000000000e+00,5.000000000000000000e+00
1.036000000000000000e+04,1.600000000000000131e-04,1.699999999999999851e-04,2.000000000000000164e-05,-2.999999999999999737e-05,-5.000000000000000240e-05,-1.000000000000000082e-05,-8.000000000000000654e-05,-2.299999999999999799e-04,3.000000000000000000e+00,5.000000000000000000e+00
1.036100000000000000e+04,1.600000000000000131e-04,1.699999999999999851e-04,2.000000000000000164e-05,-2.999999999999999737e-05,-5.000000000000000240e-05,-1.000000000000000082e-05,-8.000000000000000654e-05,-2.299999999999999799e-04,3.000000000000000000e+00,5.000000000000000000e+00
1.036200000000000000e+04,1.600000000000000131e-04,1.699999999999999851e-04,2.000000000000000164e-05,-2.999999999999999737e-05,-5.000000000000000240e-05,-1.000000000000000082e-05,-8.000000000000000654e-05,-2.299999999999999799e-04,3.000000000000000000e+00,5.000000000000000000e+00
1.036300000000000000e+04,1.600000000000000131e-04,1.699999999999999851e-04,2.000000000000000164e-05,-2.999999999999999737e-05,-5.000000000000000240e-05,-1.000000000000000082e-05,-8.000000000000000654e-05,-2.299999999999999799e-04,3.000000000000000000e+00,5.000000000000000000e+00
1.036400000000000000e+04,1.600000000000000131e-04,1.699999999999999851e-04,2.000000000000000164e-05,-2.999999999999999737e-05,-5.000000000000000240e-05,-1.000000000000000082e-05,-8.000000000000000654e-05,-2.299999999999999799e-04,3.000000000000000000e+00,5.000000000000000000e+00
1.036500000000000000e+04,1.600000000000000131e-04,1.699999999999999851e-04,2.000000000000000164e-05,-2.999999999999999737e-05,-5.000000000000000240e-05,-1.000000000000000082e-05,-8.000000000000000654e-05,-2.299999999999999799e-04,3.000000000000000000e+00,5.000000000000000000e+00
1.036600000000000000e+04,1.600000000000000131e-04,1.699999999999999851e-04,2.000000000000000164e-05,-2.999999999999999737e-05,-5.000000000000000240e-05,-1.000000000000000082e-05,-8.000000000000000654e-05,-2.299999999999999799e-04,3.000000000000000000e+00,5.000000000000000000e+00
1.036700000000000000e+04,1.600000000000000131e-04,1.699999999999999851e-04,2.000000000000000164e-05,-2.999999999999999737e-05,-5.000000000000000240e-05,-1.000000000000000082e-05,-8.000000000000000654e-05,-2.299999999999999799e-04,3.000000000000000000e+00,5.000000000000000000e+00
1.036800000000000000e+04,1.600000000000000131e-04,1.699999999999999851e-04,2.000000000000000164e-05,-2.999999999999999737e-05,-5.000000000000000240e-05,-1.000000000000000082e-05,-8.000000000000000654e-05,-2.299999999999999799e-04,3.000000000000000000e+00,5.000000000000000000e+00
1.036900000000000000e+04,1.600000000000000131e-04,1.699999999999999851e-04,2.000000000000000164e-05,-2.999999999999999737e-05,-5.000000000000000240e-05,-1.000000000000000082e-05,-8.000000000000000654e-05,-2.299999999999999799e-04,3.000000000000000000e+00,5.000000000000000000e+00
1.037000000000000000e+04,1.600000000000000131e-04,1.699999999999999851e-04,2.000000000000000164e-05,-2.999999999999999737e-05,-5.000000000000000240e-05,-1.000000000000000082e-05,-8.000000000000000654e-05,-2.299999999999999799e-04,3.000000000000000000e+00,5.000000000000000000e+00
1.037100000000000000e+04,1.600000000000000131e-04,1.699999999999999851e-04,2.000000000000000164e-05,-2.999999999999999737e-05,-5.000000000000000240e-05,-1.000000000000000082e-05,-8.000000000000000654e-05,-2.299999999999999799e-04,3.000000000000000000e+00,5.000000000000000000e+00
1.037200000000000000e+04,1.600000000000000131e-04,1.699999999999999851e-04,2.000000000000000164e-05,-2.999999999999999737e-05,-5.000000000000000240e-05,-1.000000000000000082e-05,-8.000000000000000654e-05,-2.299999999999999799e-04,3.000000000000000000e+00,5.000000000000000000e+00
1.037300000000000000e+04,1.600000000000000131e-04,1.699999999999999851e-04,2.000000000000000164e-05,-2.999999999999999737e-05,-5.000000000000000240e-05,-1.000000000000000082e-05,-8.000000000000000654e-05,-2.299999999999999799e-04,3.000000000000000000e+00,5.000000000000000000e+00
1.037400000000000000e+04,1.600000000000000131e-04,1.699999999999999851e-04,2.000000000000000164e-05,-2.999999999999999737e-05,-5.000000000000000240e-05,-1.000000000000000082e-05,-8.000000000000000654e-05,-2.299999999999999799e-04,3.000000000000000000e+00,5.000000000000000000e+00
1.037500000000000000e+04,1.600000000000000131e-04,1.699999999999999851e-04,2.000000000000000164e-05,-2.999999999999999737e-05,-5.000000000000000240e-05,-1.000000000000000082e-05,-8.000000000000000654e-05,-2.299999999999999799e-04,3.000000000000000000e+00,5.000000000000000000e+00
1.037600000000000000e+04,1.600000000000000131e-04,1.699999999999999851e-04,2.000000000000000164e-05,-2.999999999999999737e-05,-5.000000000000000240e-05,-1.000000000000000082e-05,-8.000000000000000654e-05,-2.299999999999999799e-04,3.000000000000000000e+00,5.000000000000000000e+00
1.037700000000000000e+04,1.600000000000000131e-04,1.699999999999999851e-04,2.000000000000000164e-05,-2.999999999999999737e-05,-5.000000000000000240e-05,-1.000000000000000082e-05,-8.000000000000000654e-05,-2.299999999999999799e-04,3.000000000000000000e+00,5.000000000000000000e+00
1.037800000000000000e+04,1.600000000000000131e-04,1.699999999999999851e-04,2.000000000000000164e-05,-2.999999999999999737e-05,-5.000000000000000240e-05,-1.000000000000000082e-05,-8.000000000000000654e-05,-2.299999999999999799e-04,3.000000000000000000e+00,5.000000000000000000e+00
1.037900000000000000e+04,1.600000000000000131e-04,1.699999999999999851e-04,2.000000000000000164e-05,-2.999999999999999737e-05,-5.000000000000000240e-05,-1.000000000000000082e-05,-8.000000000000000654e-05,-2.299999999999999799e-04,3.000000000000000000e+00,5.000000000000000000e+00
1.038000000000000000e+04,2.299999999999999799e-04,6.599999999999999964e-04,5.999999999999999474e-05,1.000000000000000082e-05,2.000000000000000164e-05,1.600000000000000131e-04,-1.100000000000000039e-04,-5.999999999999999474e-05,3.000000000000000000e+00,5.000000000000000000e+00
1.038100000000000000e+04,-1.000000000000000082e-05,-2.399999999999999790e-04,-2.000000000000000164e-05,1.000000000000000082e-05,1.300000000000000157e-04,1.000000000000000082e-05,-9.000000000000000567e-05,2.299999999999999799e-04,3.000000000000000000e+00,5.000000000000000000e+00
1.038200000000000000e+04,-1.000000000000000082e-05,-2.399999999999999790e-04,-2.000000000000000164e-05,1.000000000000000082e-05,1.300000000000000157e-04,1.000000000000000082e-05,-9.000000000000000567e-05,2.299999999999999799e-04,3.000000000000000000e+00,5.000000000000000000e+00
1.038300000000000000e+04,-1.000000000000000082e-05,-2.399999999999999790e-04,-2.000000000000000164e-05,1.000000000000000082e-05,1.300000000000000157e-04,1.000000000000000082e-05,-9.000000000000000567e-05,2.299999999999999799e-04,3.000000000000000000e+00,5.000000000000000000e+00
1.038400000000000000e+04,-1.000000000000000082e-05,-2.399999999999999790e-04,-2.000000000000000164e-05,1.000000000000000082e-05,1.300000000000000157e-04,1.000000000000000082e-05,-9.000000000000000567e-05,2.299999999999999799e-04,3.000000000000000000e+00,5.000000000000000000e+00
1.038500000000000000e+04,-1.000000000000000082e-05,-2.399999999999999790e-04,-2.000000000000000164e-05,1.000000000000000082e-05,1.300000000000000157e-04,1.000000000000000082e-05,-9.000000000000000567e-05,2.299999999999999799e-04,3.000000000000000000e+00,5.000000000000000000e+00
1.038600000000000000e+04,-1.000000000000000082e-05,-2.399999999999999790e-04,-2.000000000000000164e-05,1.000000000000000082e-05,1.300000000000000157e-04,1.000000000000000082e-05,-9.000000000000000567e-05,2.299999999999999799e-04,3.000000000000000000e+00,5.000000000000000000e+00
1.038800000000000000e+04,-1.000000000000000082e-05,-2.399999999999999790e-04,-2.000000000000000164e-05,1.000000000000000082e-05,1.300000000000000157e-04,1.000000000000000082e-05,-9.000000000000000567e-05,2.299999999999999799e-04,3.000000000000000000e+00,5.000000000000000000e+00
1.038900000000000000e+04,-1.000000000000000082e-05,-2.399999999999999790e-04,-2.000000000000000164e-05,1.000000000000000082e-05,1.300000000000000157e-04,1.000000000000000082e-05,-9.000000000000000567e-05,2.299999999999999799e-04,3.000000000000000000e+00,5.000000000000000000e+00
1.039000000000000000e+04,-1.000000000000000082e-05,-2.399999999999999790e-04,-2.000000000000000164e-05,1.000000000000000082e-05,1.300000000000000157e-04,1.000000000000000082e-05,-9.000000000000000567e-05,2.299999999999999799e-04,3.000000000000000000e+00,5.000000000000000000e+00
1.039100000000000000e+04,-1.000000000000000082e-05,-2.399999999999999790e-04,-2.000000000000000164e-05,1.000000000000000082e-05,1.300000000000000157e-04,1.000000000000000082e-05,-9.000000000000000567e-05,2.299999999999999799e-04,3.000000000000000000e+00,5.000000000000000000e+00
1.039200000000000000e+04,-1.000000000000000082e-05,-2.399999999999999790e-04,-2.000000000000000164e-05,1.000000000000000082e-05,1.300000000000000157e-04,1.000000000000000082e-05,-9.000000000000000567e-05,2.299999999999999799e-04,3.000000000000000000e+00,5.000000000000000000e+00
1.039300000000000000e+04,-1.000000000000000082e-05,-2.399999999999999790e-04,-2.000000000000000164e-05,1.000000000000000082e-05,1.300000000000000157e-04,1.000000000000000082e-05,-9.000000000000000567e-05,2.299999999999999799e-04,3.000000000000000000e+00,5.000000000000000000e+00
1.039400000000000000e+04,-1.000000000000000082e-05,-2.399999999999999790e-04,-2.000000000000000164e-05,1.000000000000000082e-05,1.300000000000000157e-04,1.000000000000000082e-05,-9.000000000000000567e-05,2.299999999999999799e-04,3.000000000000000000e+00,5.000000000000000000e+00
1.039500000000000000e+04,2.500000000000000052e-04,1.300000000000000157e-04,-4.000000000000000327e-05,0.000000000000000000e+00,0.000000000000000000e+00,1.000000000000000082e-05,2.000000000000000164e-05,1.800000000000000113e-04,3.000000000000000000e+00,5.000000000000000000e+00
1.039600000000000000e+04,2.500000000000000052e-04,1.300000000000000157e-04,-4.000000000000000327e-05,0.000000000000000000e+00,0.000000000000000000e+00,1.000000000000000082e-05,2.000000000000000164e-05,1.800000000000000113e-04,3.000000000000000000e+00,5.000000000000000000e+00
1.039700000000000000e+04,2.500000000000000052e-04,1.300000000000000157e-04,-4.000000000000000327e-05,0.000000000000000000e+00,0.000000000000000000e+00,1.000000000000000082e-05,2.000000000000000164e-05,1.800000000000000113e-04,3.000000000000000000e+00,5.000000000000000000e+00
1.039800000000000000e+04,2.500000000000000052e-04,1.300000000000000157e-04,-4.000000000000000327e-05,0.000000000000000000e+00,0.000000000000000000e+00,1.000000000000000082e-05,2.000000000000000164e-05,1.800000000000000113e-04,3.000000000000000000e+00,5.000000000000000000e+00
1.039900000000000000e+04,2.500000000000000052e-04,1.300000000000000157e-04,-4.000000000000000327e-05,0.000000000000000000e+00,0.000000000000000000e+00,1.000000000000000082e-05,2.000000000000000164e-05,1.800000000000000113e-04,3.000000000000000000e+00,5.000000000000000000e+00
1.040000000000000000e+04,2.500000000000000052e-04,1.300000000000000157e-04,-4.000000000000000327e-05,0.000000000000000000e+00,0.000000000000000000e+00,1.000000000000000082e-05,2.000000000000000164e-05,1.800000000000000113e-04,3.000000000000000000e+00,5.000000000000000000e+00
1.040100000000000000e+04,2.500000000000000052e-04,1.300000000000000157e-04,-4.000000000000000327e-05,0.000000000000000000e+00,0.000000000000000000e+00,1.000000000000000082e-05,2.000000000000000164e-05,1.800000000000000113e-04,3.000000000000000000e+00,5.000000000000000000e+00
1.040200000000000000e+04,2.500000000000000052e-04,1.300000000000000157e-04,-4.000000000000000327e-05,0.000000000000000000e+00,0.000000000000000000e+00,1.000000000000000082e-05,2.000000000000000164e-05,1.800000000000000113e-04,3.000000000000000000e+00,5.000000000000000000e+00
1.040300000000000000e+04,2.500000000000000052e-04,1.300000000000000157e-04,-4.000000000000000327e-05,0.000000000000000000e+00,0.000000000000000000e+00,1.000000000000000082e-05,2.000000000000000164e-05,1.800000000000000113e-04,3.000000000000000000e+00,5.000000000000000000e+00
1.040400000000000000e+04,2.500000000000000052e-04,1.300000000000000157e-04,-4.000000000000000327e-05,0.000000000000000000e+00,0.000000000000000000e+00,1.000000000000000082e-05,2.000000000000000164e-05,1.800000000000000113e-04,3.000000000000000000e+00,5.000000000000000000e+00
1.040500000000000000e+04,2.500000000000000052e-04,1.300000000000000157e-04,-4.000000000000000327e-05,0.000000000000000000e+00,0.000000000000000000e+00,1.000000000000000082e-05,2.000000000000000164e-05,1.800000000000000113e-04,3.000000000000000000e+00,5.000000000000000000e+00
1.040600000000000000e+04,2.500000000000000052e-04,1.300000000000000157e-04,-4.000000000000000327e-05,0.000000000000000000e+00,0.000000000000000000e+00,1.000000000000000082e-05,2.000000000000000164e-05,1.800000000000000113e-04,3.000000000000000000e+00,5.000000000000000000e+00
1.040700000000000000e+04,2.500000000000000052e-04,1.300000000000000157e-04,-4.000000000000000327e-05,0.000000000000000000e+00,0.000000000000000000e+00,1.000000000000000082e-05,2.000000000000000164e-05,1.800000000000000113e-04,3.000000000000000000e+00,5.000000000000000000e+00
1.040800000000000000e+04,2.500000000000000052e-04,1.300000000000000157e-04,-4.000000000000000327e-05,0.000000000000000000e+00,0.000000000000000000e+00,1.000000000000000082e-05,2.000000000000000164e-05,1.800000000000000113e-04,3.000000000000000000e+00,5.000000000000000000e+00
1.040900000000000000e+04,2.500000000000000052e-04,1.300000000000000157e-04,-4.000000000000000327e-05,0.000000000000000000e+00,0.000000000000000000e+00,1.000000000000000082e-05,2.000000000000000164e-05,1.800000000000000113e-04,3.000000000000000000e+00,5.000000000000000000e+00
1.041000000000000000e+04,-2.700000000000000035e-04,-2.100000000000000087e-04,0.000000000000000000e+00,2.999999999999999737e-05,4.000000000000000327e-05,-1.699999999999999851e-04,-1.000000000000000082e-05,6.999999999999999387e-05,3.000000000000000000e+00,5.000000000000000000e+00
1.041100000000000000e+04,-2.700000000000000035e-04,-2.100000000000000087e-04,0.000000000000000000e+00,2.999999999999999737e-05,4.000000000000000327e-05,-1.699999999999999851e-04,-1.000000000000000082e-05,6.999999999999999387e-05,3.000000000000000000e+00,5.000000000000000000e+00
1.041200000000000000e+04,-2.700000000000000035e-04,-2.100000000000000087e-04,0.000000000000000000e+00,2.999999999999999737e-05,4.000000000000000327e-05,-1.699999999999999851e-04,-1.000000000000000082e-05,6.999999999999999387e-05,3.000000000000000000e+00,5.000000000000000000e+00
1.041300000000000000e+04,-2.700000000000000035e-04,-2.100000000000000087e-04,0.000000000000000000e+00,2.999999999999999737e-05,4.000000000000000327e-05,-1.699999999999999851e-04,-1.000000000000000082e-05,6.999999999999999387e-05,3.000000000000000000e+00,5.000000000000000000e+00
1.041400000000000000e+04,-2.700000000000000035e-04,-2.100000000000000087e-04,0.000000000000000000e+00,2.999999999999999737e-05,4.000000000000000327e-05,-1.699999999999999851e-04,-1.000000000000000082e-05,6.999999999999999387e-05,3.000000000000000000e+00,5.000000000000000000e+00
1.041500000000000000e+04,-2.700000000000000035e-04,-2.100000000000000087e-04,0.000000000000000000e+00,2.999999999999999737e-05,4.000000000000000327e-05,-1.699999999999999851e-04,-1.000000000000000082e-05,6.999999999999999387e-05,3.000000000000000000e+00,5.000000000000000000e+00
1.041600000000000000e+04,-2.700000000000000035e-04,-2.100000000000000087e-04,0.000000000000000000e+00,2.999999999999999737e-05,4.000000000000000327e-05,-1.699999999999999851e-04,-1.000000000000000082e-05,6.999999999999999387e-05,3.000000000000000000e+00,5.000000000000000000e+00
1.041700000000000000e+04,-2.700000000000000035e-04,-2.100000000000000087e-04,0.000000000000000000e+00,2.999999999999999737e-05,4.000000000000000327e-05,-1.699999999999999851e-04,-1.000000000000000082e-05,6.999999999999999387e-05,3.000000000000000000e+00,5.000000000000000000e+00
1.041800000000000000e+04,-2.700000000000000035e-04,-2.100000000000000087e-04,0.000000000000000000e+00,2.999999999999999737e-05,4.000000000000000327e-05,-1.699999999999999851e-04,-1.000000000000000082e-05,6.999999999999999387e-05,3.000000000000000000e+00,5.000000000000000000e+00
1.041900000000000000e+04,-2.700000000000000035e-04,-2.100000000000000087e-04,0.000000000000000000e+00,2.999999999999999737e-05,4.000000000000000327e-05,-1.699999999999999851e-04,-1.000000000000000082e-05,6.999999999999999387e-05,3.000000000000000000e+00,5.000000000000000000e+00
1.042000000000000000e+04,-2.700000000000000035e-04,-2.100000000000000087e-04,0.000000000000000000e+00,2.999999999999999737e-05,4.000000000000000327e-05,-1.699999999999999851e-04,-1.000000000000000082e-05,6.999999999999999387e-05,3.000000000000000000e+00,5.000000000000000000e+00
1.042100000000000000e+04,-2.700000000000000035e-04,-2.100000000000000087e-04,0.000000000000000000e+00,2.999999999999999737e-05,4.000000000000000327e-05,-1.699999999999999851e-04,-1.000000000000000082e-05,6.999999999999999387e-05,3.000000000000000000e+00,5.000000000000000000e+00
1.042200000000000000e+04,-2.700000000000000035e-04,-2.100000000000000087e-04,0.000000000000000000e+00,2.999999999999999737e-05,4.000000000000000327e-05,-1.699999999999999851e-04,-1.000000000000000082e-05,6.999999999999999387e-05,3.000000000000000000e+00,5.000000000000000000e+00
1.042300000000000000e+04,-2.700000000000000035e-04,-2.100000000000000087e-04,0.000000000000000000e+00,2.999999999999999737e-05,4.000000000000000327e-05,-1.699999999999999851e-04,-1.000000000000000082e-05,6.999999999999999387e-05,3.000000000000000000e+00,5.000000000000000000e+00
1.042400000000000000e+04,-2.700000000000000035e-04,-2.100000000000000087e-04,0.000000000000000000e+00,2.999999999999999737e-05,4.000000000000000327e-05,-1.699999999999999851e-04,-1.000000000000000082e-05,6.999999999999999387e-05,3.000000000000000000e+00,5.000000000000000000e+00
1.042500000000000000e+04,-2.700000000000000035e-04,-2.100000000000000087e-04,0.000000000000000000e+00,2.999999999999999737e-05,4.000000000000000327e-05,-1.699999999999999851e-04,-1.000000000000000082e-05,6.999999999999999387e-05,3.000000000000000000e+00,5.000000000000000000e+00
1.042600000000000000e+04,-2.700000000000000035e-04,-2.100000000000000087e-04,0.000000000000000000e+00,2.999999999999999737e-05,4.000000000000000327e-05,-1.699999999999999851e-04,-1.000000000000000082e-05,6.999999999999999387e-05,3.000000000000000000e+00,5.000000000000000000e+00
1.042700000000000000e+04,-2.700000000000000035e-04,-2.100000000000000087e-04,0.000000000000000000e+00,2.999999999999999737e-05,4.000000000000000327e-05,-1.699999999999999851e-04,-1.000000000000000082e-05,6.999999999999999387e-05,3.000000000000000000e+00,5.000000000000000000e+00
1.042800000000000000e+04,-2.700000000000000035e-04,-2.100000000000000087e-04,0.000000000000000000e+00,2.999999999999999737e-05,4.000000000000000327e-05,-1.699999999999999851e-04,-1.000000000000000082e-05,6.999999999999999387e-05,3.000000000000000000e+00,5.000000000000000000e+00
1.042900000000000000e+04,-2.700000000000000035e-04,-2.100000000000000087e-04,0.000000000000000000e+00,2.999999999999999737e-05,4.000000000000000327e-05,-1.699999999999999851e-04,-1.000000000000000082e-05,6.999999999999999387e-05,3.000000000000000000e+00,5.000000000000000000e+00
1.043000000000000000e+04,-2.700000000000000035e-04,-2.100000000000000087e-04,0.000000000000000000e+00,2.999999999999999737e-05,4.000000000000000327e-05,-1.699999999999999851e-04,-1.000000000000000082e-05,6.999999999999999387e-05,3.000000000000000000e+00,5.000000000000000000e+00
1.043100000000000000e+04,-2.700000000000000035e-04,-2.100000000000000087e-04,0.000000000000000000e+00,2.999999999999999737e-05,4.000000000000000327e-05,-1.699999999999999851e-04,-1.000000000000000082e-05,6.999999999999999387e-05,3.000000000000000000e+00,5.000000000000000000e+00
1.043200000000000000e+04,-2.700000000000000035e-04,-2.100000000000000087e-04,0.000000000000000000e+00,2.999999999999999737e-05,4.000000000000000327e-05,-1.699999999999999851e-04,-1.000000000000000082e-05,6.999999999999999387e-05,3.000000000000000000e+00,5.000000000000000000e+00
1.043300000000000000e+04,9.000000000000000567e-05,2.900000000000000017e-04,0.000000000000000000e+00,2.000000000000000164e-05,1.100000000000000039e-04,4.000000000000000327e-05,2.999999999999999737e-05,0.000000000000000000e+00,3.000000000000000000e+00,5.000000000000000000e+00
1.043400000000000000e+04,9.000000000000000567e-05,2.900000000000000017e-04,0.000000000000000000e+00,2.000000000000000164e-05,1.100000000000000039e-04,4.000000000000000327e-05,2.999999999999999737e-05,0.000000000000000000e+00,3.000000000000000000e+00,5.000000000000000000e+00
1.043500000000000000e+04,9.000000000000000567e-05,2.900000000000000017e-04,0.000000000000000000e+00,2.000000000000000164e-05,1.100000000000000039e-04,4.000000000000000327e-05,2.999999999999999737e-05,0.000000000000000000e+00,3.000000000000000000e+00,5.000000000000000000e+00
1.043600000000000000e+04,9.000000000000000567e-05,2.900000000000000017e-04,0.000000000000000000e+00,2.000000000000000164e-05,1.100000000000000039e-04,4.000000000000000327e-05,2.999999999999999737e-05,0.000000000000000000e+00,3.000000000000000000e+00,5.000000000000000000e+00
1.043800000000000000e+04,9.000000000000000567e-05,2.900000000000000017e-04,0.000000000000000000e+00,2.000000000000000164e-05,1.100000000000000039e-04,4.000000000000000327e-05,2.999999999999999737e-05,0.000000000000000000e+00,3.000000000000000000e+00,5.000000000000000000e+00
1.043900000000000000e+04,9.000000000000000567e-05,2.900000000000000017e-04,0.000000000000000000e+00,2.000000000000000164e-05,1.100000000000000039e-04,4.000000000000000327e-05,2.999999999999999737e-05,0.000000000000000000e+00,3.000000000000000000e+00,5.000000000000000000e+00
1.044000000000000000e+04,9.000000000000000567e-05,2.900000000000000017e-04,0.000000000000000000e+00,2.000000000000000164e-05,1.100000000000000039e-04,4.000000000000000327e-05,2.999999999999999737e-05,0.000000000000000000e+00,3.000000000000000000e+00,5.000000000000000000e+00
1.044100000000000000e+04,9.000000000000000567e-05,2.900000000000000017e-04,0.000000000000000000e+00,2.000000000000000164e-05,1.100000000000000039e-04,4.000000000000000327e-05,2.999999999999999737e-05,0.000000000000000000e+00,3.000000000000000000e+00,5.000000000000000000e+00
1.044200000000000000e+04,9.000000000000000567e-05,2.900000000000000017e-04,0.000000000000000000e+00,2.000000000000000164e-05,1.100000000000000039e-04,4.000000000000000327e-05,2.999999999999999737e-05,0.000000000000000000e+00,3.000000000000000000e+00,5.000000000000000000e+00
1.044300000000000000e+04,9.000000000000000567e-05,2.900000000000000017e-04,0.000000000000000000e+00,2.000000000000000164e-05,1.100000000000000039e-04,4.000000000000000327e-05,2.999999999999999737e-05,0.000000000000000000e+00,3.000000000000000000e+00,5.000000000000000000e+00
1.044400000000000000e+04,9.000000000000000567e-05,2.900000000000000017e-04,0.000000000000000000e+00,2.000000000000000164e-05,1.100000000000000039e-04,4.000000000000000327e-05,2.999999999999999737e-05,0.000000000000000000e+00,3.000000000000000000e+00,5.000000000000000000e+00
1.044500000000000000e+04,9.000000000000000567e-05,2.900000000000000017e-04,0.000000000000000000e+00,2.000000000000000164e-05,1.100000000000000039e-04,4.000000000000000327e-05,2.999999999999999737e-05,0.000000000000000000e+00,3.000000000000000000e+00,5.000000000000000000e+00
1.044600000000000000e+04,9.000000000000000567e-05,2.900000000000000017e-04,0.000000000000000000e+00,2.000000000000000164e-05,1.100000000000000039e-04,4.000000000000000327e-05,2.999999999999999737e-05,0.000000000000000000e+00,3.000000000000000000e+00,5.000000000000000000e+00
1.044700000000000000e+04,9.000000000000000567e-05,2.900000000000000017e-04,0.000000000000000000e+00,2.000000000000000164e-05,1.100000000000000039e-04,4.000000000000000327e-05,2.999999999999999737e-05,0.000000000000000000e+00,3.000000000000000000e+00,5.000000000000000000e+00
1.044800000000000000e+04,9.000000000000000567e-05,2.900000000000000017e-04,0.000000000000000000e+00,2.000000000000000164e-05,1.100000000000000039e-04,4.000000000000000327e-05,2.999999999999999737e-05,0.000000000000000000e+00,3.000000000000000000e+00,5.000000000000000000e+00
1.044900000000000000e+04,9.000000000000000567e-05,2.900000000000000017e-04,0.000000000000000000e+00,2.000000000000000164e-05,1.100000000000000039e-04,4.000000000000000327e-05,2.999999999999999737e-05,0.000000000000000000e+00,3.000000000000000000e+00,5.000000000000000000e+00
1.045000000000000000e+04,9.000000000000000567e-05,2.900000000000000017e-04,0.000000000000000000e+00,2.000000000000000164e-05,1.100000000000000039e-04,4.000000000000000327e-05,2.999999999999999737e-05,0.000000000000000000e+00,3.000000000000000000e+00,5.000000000000000000e+00
1.045100000000000000e+04,9.000000000000000567e-05,2.900000000000000017e-04,0.000000000000000000e+00,2.000000000000000164e-05,1.100000000000000039e-04,4.000000000000000327e-05,2.999999999999999737e-05,0.000000000000000000e+00,3.000000000000000000e+00,5.000000000000000000e+00
1.045200000000000000e+04,9.000000000000000567e-05,2.900000000000000017e-04,0.000000000000000000e+00,2.000000000000000164e-05,1.100000000000000039e-04,4.000000000000000327e-05,2.999999999999999737e-05,0.000000000000000000e+00,3.000000000000000000e+00,5.000000000000000000e+00
1.045300000000000000e+04,9.000000000000000567e-05,2.900000000000000017e-04,0.000000000000000000e+00,2.000000000000000164e-05,1.100000000000000039e-04,4.000000000000000327e-05,2.999999999999999737e-05,0.000000000000000000e+00,3.000000000000000000e+00,5.000000000000000000e+00
1.045400000000000000e+04,9.000000000000000567e-05,2.900000000000000017e-04,0.000000000000000000e+00,2.000000000000000164e-05,1.100000000000000039e-04,4.000000000000000327e-05,2.999999999999999737e-05,0.000000000000000000e+00,3.000000000000000000e+00,5.000000000000000000e+00
1.045500000000000000e+04,9.000000000000000567e-05,2.900000000000000017e-04,0.000000000000000000e+00,2.000000000000000164e-05,1.100000000000000039e-04,4.000000000000000327e-05,2.999999999999999737e-05,0.000000000000000000e+00,3.000000000000000000e+00,5.000000000000000000e+00
1.045600000000000000e+04,1.100000000000000039e-04,5.000000000000000240e-05,-8.000000000000000654e-05,0.000000000000000000e+00,2.000000000000000164e-05,-8.000000000000000654e-05,-2.000000000000000164e-05,1.100000000000000039e-04,3.000000000000000000e+00,5.000000000000000000e+00
1.045700000000000000e+04,2.399999999999999790e-04,3.099999999999999999e-04,2.999999999999999737e-05,2.999999999999999737e-05,-6.999999999999999387e-05,4.000000000000000327e-05,-1.000000000000000082e-05,1.800000000000000113e-04,3.000000000000000000e+00,5.000000000000000000e+00
1.045800000000000000e+04,2.399999999999999790e-04,3.099999999999999999e-04,2.999999999999999737e-05,2.999999999999999737e-05,-6.999999999999999387e-05,4.000000000000000327e-05,-1.000000000000000082e-05,1.800000000000000113e-04,3.000000000000000000e+00,5.000000000000000000e+00
1.045900000000000000e+04,2.399999999999999790e-04,3.099999999999999999e-04,2.999999999999999737e-05,2.999999999999999737e-05,-6.999999999999999387e-05,4.000000000000000327e-05,-1.000000000000000082e-05,1.800000000000000113e-04,3.000000000000000000e+00,5.000000000000000000e+00
1.046000000000000000e+04,2.399999999999999790e-04,3.099999999999999999e-04,2.999999999999999737e-05,2.999999999999999737e-05,-6.999999999999999387e-05,4.000000000000000327e-05,-1.000000000000000082e-05,1.800000000000000113e-04,3.000000000000000000e+00,5.000000000000000000e+00
1.046100000000000000e+04,2.399999999999999790e-04,3.099999999999999999e-04,2.999999999999999737e-05,2.999999999999999737e-05,-6.999999999999999387e-05,4.000000000000000327e-05,-1.000000000000000082e-05,1.800000000000000113e-04,3.000000000000000000e+00,5.000000000000000000e+00
1.046200000000000000e+04,2.399999999999999790e-04,3.099999999999999999e-04,2.999999999999999737e-05,2.999999999999999737e-05,-6.999999999999999387e-05,4.000000000000000327e-05,-1.000000000000000082e-05,1.800000000000000113e-04,3.000000000000000000e+00,5.000000000000000000e+00
1.046300000000000000e+04,2.399999999999999790e-04,3.099999999999999999e-04,2.999999999999999737e-05,2.999999999999999737e-05,-6.999999999999999387e-05,4.000000000000000327e-05,-1.000000000000000082e-05,1.800000000000000113e-04,3.000000000000000000e+00,5.000000000000000000e+00
1.046400000000000000e+04,2.399999999999999790e-04,3.099999999999999999e-04,2.999999999999999737e-05,2.999999999999999737e-05,-6.999999999999999387e-05,4.000000000000000327e-05,-1.000000000000000082e-05,1.800000000000000113e-04,3.000000000000000000e+00,5.000000000000000000e+00
1.046500000000000000e+04,2.399999999999999790e-04,3.099999999999999999e-04,2.999999999999999737e-05,2.999999999999999737e-05,-6.999999999999999387e-05,4.000000000000000327e-05,-1.000000000000000082e-05,1.800000000000000113e-04,3.000000000000000000e+00,5.000000000000000000e+00
1.046600000000000000e+04,2.399999999999999790e-04,3.099999999999999999e-04,2.999999999999999737e-05,2.999999999999999737e-05,-6.999999999999999387e-05,4.000000000000000327e-05,-1.000000000000000082e-05,1.800000000000000113e-04,3.000000000000000000e+00,5.000000000000000000e+00
1.046700000000000000e+04,2.399999999999999790e-04,3.099999999999999999e-04,2.999999999999999737e-05,2.999999999999999737e-05,-6.999999999999999387e-05,4.000000000000000327e-05,-1.000000000000000082e-05,1.800000000000000113e-04,3.000000000000000000e+00,5.000000000000000000e+00
1.046800000000000000e+04,2.399999999999999790e-04,3.099999999999999999e-04,2.999999999999999737e-05,2.999999999999999737e-05,-6.999999999999999387e-05,4.000000000000000327e-05,-1.000000000000000082e-05,1.800000000000000113e-04,3.000000000000000000e+00,5.000000000000000000e+00
1.046900000000000000e+04,2.399999999999999790e-04,3.099999999999999999e-04,2.999999999999999737e-05,2.999999999999999737e-05,-6.999999999999999387e-05,4.000000000000000327e-05,-1.000000000000000082e-05,1.800000000000000113e-04,3.000000000000000000e+00,5.000000000000000000e+00
1.047000000000000000e+04,2.399999999999999790e-04,3.099999999999999999e-04,2.999999999999999737e-05,2.999999999999999737e-05,-6.999999999999999387e-05,4.000000000000000327e-05,-1.000000000000000082e-05,1.800000000000000113e-04,3.000000000000000000e+00,5.000000000000000000e+00
1.047100000000000000e+04,2.399999999999999790e-04,3.099999999999999999e-04,2.999999999999999737e-05,2.999999999999999737e-05,-6.999999999999999387e-05,4.000000000000000327e-05,-1.000000000000000082e-05,1.800000000000000113e-04,3.000000000000000000e+00,5.000000000000000000e+00
1.047200000000000000e+04,2.399999999999999790e-04,3.099999999999999999e-04,2.999999999999999737e-05,2.999999999999999737e-05,-6.999999999999999387e-05,4.000000000000000327e-05,-1.000000000000000082e-05,1.800000000000000113e-04,3.000000000000000000e+00,5.000000000000000000e+00
1.047300000000000000e+04,2.399999999999999790e-04,3.099999999999999999e-04,2.999999999999999737e-05,2.999999999999999737e-05,-6.999999999999999387e-05,4.000000000000000327e-05,-1.000000000000000082e-05,1.800000000000000113e-04,3.000000000000000000e+00,5.000000000000000000e+00
1.047400000000000000e+04,2.399999999999999790e-04,3.099999999999999999e-04,2.999999999999999737e-05,2.999999999999999737e-05,-6.999999999999999387e-05,4.000000000000000327e-05,-1.000000000000000082e-05,1.800000000000000113e-04,3.000000000000000000e+00,5.000000000000000000e+00
1.047500000000000000e+04,2.399999999999999790e-04,3.099999999999999999e-04,2.999999999999999737e-05,2.999999999999999737e-05,-6.999999999999999387e-05,4.000000000000000327e-05,-1.000000000000000082e-05,1.800000000000000113e-04,3.000000000000000000e+00,5.000000000000000000e+00
1.047600000000000000e+04,2.399999999999999790e-04,3.099999999999999999e-04,2.999999999999999737e-05,2.999999999999999737e-05,-6.999999999999999387e-05,4.000000000000000327e-05,-1.000000000000000082e-05,1.800000000000000113e-04,3.000000000000000000e+00,5.000000000000000000e+00
1.047700000000000000e+04,2.399999999999999790e-04,3.099999999999999999e-04,2.999999999999999737e-05,2.999999999999999737e-05,-6.999999999999999387e-05,4.000000000000000327e-05,-1.000000000000000082e-05,1.800000000000000113e-04,3.000000000000000000e+00,5.000000000000000000e+00
1.047800000000000000e+04,2.399999999999999790e-04,3.099999999999999999e-04,2.999999999999999737e-05,2.999999999999999737e-05,-6.999999999999999387e-05,4.000000000000000327e-05,-1.000000000000000082e-05,1.800000000000000113e-04,3.000000000000000000e+00,5.000000000000000000e+00
1.047900000000000000e+04,2.399999999999999790e-04,3.099999999999999999e-04,2.999999999999999737e-05,2.999999999999999737e-05,-6.999999999999999387e-05,4.000000000000000327e-05,-1.000000000000000082e-05,1.800000000000000113e-04,3.000000000000000000e+00,5.000000000000000000e+00
1.048000000000000000e+04,2.399999999999999790e-04,3.099999999999999999e-04,2.999999999999999737e-05,2.999999999999999737e-05,-6.999999999999999387e-05,4.000000000000000327e-05,-1.000000000000000082e-05,1.800000000000000113e-04,3.000000000000000000e+00,5.000000000000000000e+00
1.048100000000000000e+04,2.399999999999999790e-04,3.099999999999999999e-04,2.999999999999999737e-05,2.999999999999999737e-05,-6.999999999999999387e-05,4.000000000000000327e-05,-1.000000000000000082e-05,1.800000000000000113e-04,3.000000000000000000e+00,5.000000000000000000e+00
1.048200000000000000e+04,2.399999999999999790e-04,3.099999999999999999e-04,2.999999999999999737e-05,2.999999999999999737e-05,-6.999999999999999387e-05,4.000000000000000327e-05,-1.000000000000000082e-05,1.800000000000000113e-04,3.000000000000000000e+00,5.000000000000000000e+00
1.048300000000000000e+04,2.399999999999999790e-04,3.099999999999999999e-04,2.999999999999999737e-05,2.999999999999999737e-05,-6.999999999999999387e-05,4.000000000000000327e-05,-1.000000000000000082e-05,1.800000000000000113e-04,3.000000000000000000e+00,5.000000000000000000e+00
1.048400000000000000e+04,2.399999999999999790e-04,3.099999999999999999e-04,2.999999999999999737e-05,2.999999999999999737e-05,-6.999999999999999387e-05,4.000000000000000327e-05,-1.000000000000000082e-05,1.800000000000000113e-04,3.000000000000000000e+00,5.000000000000000000e+00
1.048500000000000000e+04,-2.500000000000000052e-04,-3.200000000000000262e-04,-1.000000000000000048e-04,-4.000000000000000327e-05,5.000000000000000240e-05,-4.000000000000000327e-05,-2.000000000000000164e-05,5.999999999999999474e-05,3.000000000000000000e+00,5.000000000000000000e+00
1.048700000000000000e+04,-2.299999999999999799e-04,-5.800000000000000034e-04,-2.000000000000000164e-05,-1.000000000000000082e-05,4.000000000000000327e-05,5.000000000000000240e-05,-9.000000000000000567e-05,-1.499999999999999869e-04,3.000000000000000000e+00,5.000000000000000000e+00
1.049000000000000000e+04,-2.299999999999999799e-04,-5.800000000000000034e-04,-2.000000000000000164e-05,-1.000000000000000082e-05,4.000000000000000327e-05,5.000000000000000240e-05,-9.000000000000000567e-05,-1.499999999999999869e-04,3.000000000000000000e+00,5.000000000000000000e+00
1.049100000000000000e+04,-2.299999999999999799e-04,-5.800000000000000034e-04,-2.000000000000000164e-05,-1.000000000000000082e-05,4.000000000000000327e-05,5.000000000000000240e-05,-9.000000000000000567e-05,-1.499999999999999869e-04,3.000000000000000000e+00,5.000000000000000000e+00
1.049200000000000000e+04,-2.299999999999999799e-04,-5.800000000000000034e-04,-2.000000000000000164e-05,-1.000000000000000082e-05,4.000000000000000327e-05,5.000000000000000240e-05,-9.000000000000000567e-05,-1.499999999999999869e-04,3.000000000000000000e+00,5.000000000000000000e+00
1.049300000000000000e+04,-2.299999999999999799e-04,-5.800000000000000034e-04,-2.000000000000000164e-05,-1.000000000000000082e-05,4.000000000000000327e-05,5.000000000000000240e-05,-9.000000000000000567e-05,-1.499999999999999869e-04,3.000000000000000000e+00,5.000000000000000000e+00
1.049400000000000000e+04,-2.299999999999999799e-04,-5.800000000000000034e-04,-2.000000000000000164e-05,-1.000000000000000082e-05,4.000000000000000327e-05,5.000000000000000240e-05,-9.000000000000000567e-05,-1.499999999999999869e-04,3.000000000000000000e+00,5.000000000000000000e+00
1.049500000000000000e+04,-2.299999999999999799e-04,-5.800000000000000034e-04,-2.000000000000000164e-05,-1.000000000000000082e-05,4.000000000000000327e-05,5.000000000000000240e-05,-9.000000000000000567e-05,-1.499999999999999869e-04,3.000000000000000000e+00,5.000000000000000000e+00
1.049600000000000000e+04,-2.299999999999999799e-04,-5.800000000000000034e-04,-2.000000000000000164e-05,-1.000000000000000082e-05,4.000000000000000327e-05,5.000000000000000240e-05,-9.000000000000000567e-05,-1.499999999999999869e-04,3.000000000000000000e+00,5.000000000000000000e+00
1.049700000000000000e+04,-2.299999999999999799e-04,-5.800000000000000034e-04,-2.000000000000000164e-05,-1.000000000000000082e-05,4.000000000000000327e-05,5.000000000000000240e-05,-9.000000000000000567e-05,-1.499999999999999869e-04,3.000000000000000000e+00,5.000000000000000000e+00
1.049800000000000000e+04,-2.299999999999999799e-04,-5.800000000000000034e-04,-2.000000000000000164e-05,-1.000000000000000082e-05,4.000000000000000327e-05,5.000000000000000240e-05,-9.000000000000000567e-05,-1.499999999999999869e-04,3.000000000000000000e+00,5.000000000000000000e+00
1.049900000000000000e+04,-2.299999999999999799e-04,-5.800000000000000034e-04,-2.000000000000000164e-05,-1.000000000000000082e-05,4.000000000000000327e-05,5.000000000000000240e-05,-9.000000000000000567e-05,-1.499999999999999869e-04,3.000000000000000000e+00,5.000000000000000000e+00
1.050000000000000000e+04,-2.299999999999999799e-04,-5.800000000000000034e-04,-2.000000000000000164e-05,-1.000000000000000082e-05,4.000000000000000327e-05,5.000000000000000240e-05,-9.000000000000000567e-05,-1.499999999999999869e-04,3.000000000000000000e+00,5.000000000000000000e+00
1.050100000000000000e+04,-2.299999999999999799e-04,-5.800000000000000034e-04,-2.000000000000000164e-05,-1.000000000000000082e-05,4.000000000000000327e-05,5.000000000000000240e-05,-9.000000000000000567e-05,-1.499999999999999869e-04,3.000000000000000000e+00,5.000000000000000000e+00
1.050200000000000000e+04,-2.299999999999999799e-04,-5.800000000000000034e-04,-2.000000000000000164e-05,-1.000000000000000082e-05,4.000000000000000327e-05,5.000000000000000240e-05,-9.000000000000000567e-05,-1.499999999999999869e-04,3.000000000000000000e+00,5.000000000000000000e+00
1.050300000000000000e+04,-2.299999999999999799e-04,-5.800000000000000034e-04,-2.000000000000000164e-05,-1.000000000000000082e-05,4.000000000000000327e-05,5.000000000000000240e-05,-9.000000000000000567e-05,-1.499999999999999869e-04,3.000000000000000000e+00,5.000000000000000000e+00
1.050400000000000000e+04,-2.299999999999999799e-04,-5.800000000000000034e-04,-2.000000000000000164e-05,-1.000000000000000082e-05,4.000000000000000327e-05,5.000000000000000240e-05,-9.000000000000000567e-05,-1.499999999999999869e-04,3.000000000000000000e+00,5.000000000000000000e+00
1.050500000000000000e+04,-2.299999999999999799e-04,-5.800000000000000034e-04,-2.000000000000000164e-05,-1.000000000000000082e-05,4.000000000000000327e-05,5.000000000000000240e-05,-9.000000000000000567e-05,-1.499999999999999869e-04,3.000000000000000000e+00,5.000000000000000000e+00
1.050600000000000000e+04,-2.299999999999999799e-04,-5.800000000000000034e-04,-2.000000000000000164e-05,-1.000000000000000082e-05,4.000000000000000327e-05,5.000000000000000240e-05,-9.000000000000000567e-05,-1.499999999999999869e-04,3.000000000000000000e+00,5.000000000000000000e+00
1.050700000000000000e+04,-2.299999999999999799e-04,-5.800000000000000034e-04,-2.000000000000000164e-05,-1.000000000000000082e-05,4.000000000000000327e-05,5.000000000000000240e-05,-9.000000000000000567e-05,-1.499999999999999869e-04,3.000000000000000000e+00,5.000000000000000000e+00
1.050800000000000000e+04,-2.299999999999999799e-04,-5.800000000000000034e-04,-2.000000000000000164e-05,-1.000000000000000082e-05,4.000000000000000327e-05,5.000000000000000240e-05,-9.000000000000000567e-05,-1.499999999999999869e-04,3.000000000000000000e+00,5.000000000000000000e+00
1.050900000000000000e+04,1.800000000000000113e-04,4.700000000000000401e-04,1.499999999999999869e-04,-2.000000000000000164e-05,-1.800000000000000113e-04,-1.000000000000000048e-04,-6.999999999999999387e-05,5.000000000000000240e-05,3.000000000000000000e+00,5.000000000000000000e+00
1.051000000000000000e+04,1.800000000000000113e-04,4.700000000000000401e-04,1.499999999999999869e-04,-2.000000000000000164e-05,-1.800000000000000113e-04,-1.000000000000000048e-04,-6.999999999999999387e-05,5.000000000000000240e-05,3.000000000000000000e+00,5.000000000000000000e+00
1.051100000000000000e+04,1.800000000000000113e-04,4.700000000000000401e-04,1.499999999999999869e-04,-2.000000000000000164e-05,-1.800000000000000113e-04,-1.000000000000000048e-04,-6.999999999999999387e-05,5.000000000000000240e-05,3.000000000000000000e+00,5.000000000000000000e+00
1.051200000000000000e+04,1.800000000000000113e-04,4.700000000000000401e-04,1.499999999999999869e-04,-2.000000000000000164e-05,-1.800000000000000113e-04,-1.000000000000000048e-04,-6.999999999999999387e-05,5.000000000000000240e-05,3.000000000000000000e+00,5.000000000000000000e+00
1.051300000000000000e+04,1.800000000000000113e-04,4.700000000000000401e-04,1.499999999999999869e-04,-2.000000000000000164e-05,-1.800000000000000113e-04,-1.000000000000000048e-04,-6.999999999999999387e-05,5.000000000000000240e-05,3.000000000000000000e+00,5.000000000000000000e+00
1.051400000000000000e+04,1.800000000000000113e-04,4.700000000000000401e-04,1.499999999999999869e-04,-2.000000000000000164e-05,-1.800000000000000113e-04,-1.000000000000000048e-04,-6.999999999999999387e-05,5.000000000000000240e-05,3.000000000000000000e+00,5.000000000000000000e+00
1.051600000000000000e+04,1.800000000000000113e-04,4.700000000000000401e-04,1.499999999999999869e-04,-2.000000000000000164e-05,-1.800000000000000113e-04,-1.000000000000000048e-04,-6.999999999999999387e-05,5.000000000000000240e-05,3.000000000000000000e+00,5.000000000000000000e+00
1.051700000000000000e+04,1.800000000000000113e-04,4.700000000000000401e-04,1.499999999999999869e-04,-2.000000000000000164e-05,-1.800000000000000113e-04,-1.000000000000000048e-04,-6.999999999999999387e-05,5.000000000000000240e-05,3.000000000000000000e+00,5.000000000000000000e+00
1.051800000000000000e+04,1.800000000000000113e-04,4.700000000000000401e-04,1.499999999999999869e-04,-2.000000000000000164e-05,-1.800000000000000113e-04,-1.000000000000000048e-04,-6.999999999999999387e-05,5.000000000000000240e-05,3.000000000000000000e+00,5.000000000000000000e+00
1.051900000000000000e+04,1.800000000000000113e-04,4.700000000000000401e-04,1.499999999999999869e-04,-2.000000000000000164e-05,-1.800000000000000113e-04,-1.000000000000000048e-04,-6.999999999999999387e-05,5.000000000000000240e-05,3.000000000000000000e+00,5.000000000000000000e+00
1.052000000000000000e+04,1.800000000000000113e-04,4.700000000000000401e-04,1.499999999999999869e-04,-2.000000000000000164e-05,-1.800000000000000113e-04,-1.000000000000000048e-04,-6.999999999999999387e-05,5.000000000000000240e-05,3.000000000000000000e+00,5.000000000000000000e+00
1.052100000000000000e+04,1.800000000000000113e-04,4.700000000000000401e-04,1.499999999999999869e-04,-2.000000000000000164e-05,-1.800000000000000113e-04,-1.000000000000000048e-04,-6.999999999999999387e-05,5.000000000000000240e-05,3.000000000000000000e+00,5.000000000000000000e+00
1.052200000000000000e+04,1.800000000000000113e-04,4.700000000000000401e-04,1.499999999999999869e-04,-2.000000000000000164e-05,-1.800000000000000113e-04,-1.000000000000000048e-04,-6.999999999999999387e-05,5.000000000000000240e-05,3.000000000000000000e+00,5.000000000000000000e+00
1.052300000000000000e+04,1.800000000000000113e-04,4.700000000000000401e-04,1.499999999999999869e-04,-2.000000000000000164e-05,-1.800000000000000113e-04,-1.000000000000000048e-04,-6.999999999999999387e-05,5.000000000000000240e-05,3.000000000000000000e+00,5.000000000000000000e+00
1.052400000000000000e+04,1.800000000000000113e-04,4.700000000000000401e-04,1.499999999999999869e-04,-2.000000000000000164e-05,-1.800000000000000113e-04,-1.000000000000000048e-04,-6.999999999999999387e-05,5.000000000000000240e-05,3.000000000000000000e+00,5.000000000000000000e+00
1.052500000000000000e+04,1.800000000000000113e-04,4.700000000000000401e-04,1.499999999999999869e-04,-2.000000000000000164e-05,-1.800000000000000113e-04,-1.000000000000000048e-04,-6.999999999999999387e-05,5.000000000000000240e-05,3.000000000000000000e+00,5.000000000000000000e+00
1.052600000000000000e+04,1.800000000000000113e-04,4.700000000000000401e-04,1.499999999999999869e-04,-2.000000000000000164e-05,-1.800000000000000113e-04,-1.000000000000000048e-04,-6.999999999999999387e-05,5.000000000000000240e-05,3.000000000000000000e+00,5.000000000000000000e+00
1.052700000000000000e+04,1.800000000000000113e-04,4.700000000000000401e-04,1.499999999999999869e-04,-2.000000000000000164e-05,-1.800000000000000113e-04,-1.000000000000000048e-04,-6.999999999999999387e-05,5.000000000000000240e-05,3.000000000000000000e+00,5.000000000000000000e+00
1.052800000000000000e+04,1.800000000000000113e-04,4.700000000000000401e-04,1.499999999999999869e-04,-2.000000000000000164e-05,-1.800000000000000113e-04,-1.000000000000000048e-04,-6.999999999999999387e-05,5.000000000000000240e-05,3.000000000000000000e+00,5.000000000000000000e+00
1.052900000000000000e+04,1.800000000000000113e-04,4.700000000000000401e-04,1.499999999999999869e-04,-2.000000000000000164e-05,-1.800000000000000113e-04,-1.000000000000000048e-04,-6.999999999999999387e-05,5.000000000000000240e-05,3.000000000000000000e+00,5.000000000000000000e+00
1.053000000000000000e+04,1.800000000000000113e-04,4.700000000000000401e-04,1.499999999999999869e-04,-2.000000000000000164e-05,-1.800000000000000113e-04,-1.000000000000000048e-04,-6.999999999999999387e-05,5.000000000000000240e-05,3.000000000000000000e+00,5.000000000000000000e+00
1.053100000000000000e+04,1.800000000000000113e-04,4.700000000000000401e-04,1.499999999999999869e-04,-2.000000000000000164e-05,-1.800000000000000113e-04,-1.000000000000000048e-04,-6.999999999999999387e-05,5.000000000000000240e-05,3.000000000000000000e+00,5.000000000000000000e+00
1.053200000000000000e+04,1.800000000000000113e-04,4.700000000000000401e-04,1.499999999999999869e-04,-2.000000000000000164e-05,-1.800000000000000113e-04,-1.000000000000000048e-04,-6.999999999999999387e-05,5.000000000000000240e-05,3.000000000000000000e+00,5.000000000000000000e+00
1.053300000000000000e+04,1.800000000000000113e-04,4.700000000000000401e-04,1.499999999999999869e-04,-2.000000000000000164e-05,-1.800000000000000113e-04,-1.000000000000000048e-04,-6.999999999999999387e-05,5.000000000000000240e-05,3.000000000000000000e+00,5.000000000000000000e+00
1.053400000000000000e+04,1.800000000000000113e-04,4.700000000000000401e-04,1.499999999999999869e-04,-2.000000000000000164e-05,-1.800000000000000113e-04,-1.000000000000000048e-04,-6.999999999999999387e-05,5.000000000000000240e-05,3.000000000000000000e+00,5.000000000000000000e+00
1.053500000000000000e+04,1.800000000000000113e-04,4.700000000000000401e-04,1.499999999999999869e-04,-2.000000000000000164e-05,-1.800000000000000113e-04,-1.000000000000000048e-04,-6.999999999999999387e-05,5.000000000000000240e-05,3.000000000000000000e+00,5.000000000000000000e+00
1.053600000000000000e+04,1.800000000000000113e-04,4.700000000000000401e-04,1.499999999999999869e-04,-2.000000000000000164e-05,-1.800000000000000113e-04,-1.000000000000000048e-04,-6.999999999999999387e-05,5.000000000000000240e-05,3.000000000000000000e+00,5.000000000000000000e+00
1.053800000000000000e+04,1.800000000000000113e-04,4.700000000000000401e-04,1.499999999999999869e-04,-2.000000000000000164e-05,-1.800000000000000113e-04,-1.000000000000000048e-04,-6.999999999999999387e-05,5.000000000000000240e-05,3.000000000000000000e+00,5.000000000000000000e+00
1.053900000000000000e+04,1.800000000000000113e-04,4.700000000000000401e-04,1.499999999999999869e-04,-2.000000000000000164e-05,-1.800000000000000113e-04,-1.000000000000000048e-04,-6.999999999999999387e-05,5.000000000000000240e-05,3.000000000000000000e+00,5.000000000000000000e+00
1.054000000000000000e+04,1.800000000000000113e-04,4.700000000000000401e-04,1.499999999999999869e-04,-2.000000000000000164e-05,-1.800000000000000113e-04,-1.000000000000000048e-04,-6.999999999999999387e-05,5.000000000000000240e-05,3.000000000000000000e+00,5.000000000000000000e+00
1.054100000000000000e+04,1.800000000000000113e-04,4.700000000000000401e-04,1.499999999999999869e-04,-2.000000000000000164e-05,-1.800000000000000113e-04,-1.000000000000000048e-04,-6.999999999999999387e-05,5.000000000000000240e-05,3.000000000000000000e+00,5.000000000000000000e+00
1.054200000000000000e+04,1.800000000000000113e-04,4.700000000000000401e-04,1.499999999999999869e-04,-2.000000000000000164e-05,-1.800000000000000113e-04,-1.000000000000000048e-04,-6.999999999999999387e-05,5.000000000000000240e-05,3.000000000000000000e+00,5.000000000000000000e+00
1.054300000000000000e+04,1.800000000000000113e-04,4.700000000000000401e-04,1.499999999999999869e-04,-2.000000000000000164e-05,-1.800000000000000113e-04,-1.000000000000000048e-04,-6.999999999999999387e-05,5.000000000000000240e-05,3.000000000000000000e+00,5.000000000000000000e+00
1.054400000000000000e+04,1.800000000000000113e-04,4.700000000000000401e-04,1.499999999999999869e-04,-2.000000000000000164e-05,-1.800000000000000113e-04,-1.000000000000000048e-04,-6.999999999999999387e-05,5.000000000000000240e-05,3.000000000000000000e+00,5.000000000000000000e+00
1.054500000000000000e+04,1.800000000000000113e-04,4.700000000000000401e-04,1.499999999999999869e-04,-2.000000000000000164e-05,-1.800000000000000113e-04,-1.000000000000000048e-04,-6.999999999999999387e-05,5.000000000000000240e-05,3.000000000000000000e+00,5.000000000000000000e+00
1.054600000000000000e+04,1.800000000000000113e-04,4.700000000000000401e-04,1.499999999999999869e-04,-2.000000000000000164e-05,-1.800000000000000113e-04,-1.000000000000000048e-04,-6.999999999999999387e-05,5.000000000000000240e-05,3.000000000000000000e+00,5.000000000000000000e+00
1.054700000000000000e+04,1.800000000000000113e-04,4.700000000000000401e-04,1.499999999999999869e-04,-2.000000000000000164e-05,-1.800000000000000113e-04,-1.000000000000000048e-04,-6.999999999999999387e-05,5.000000000000000240e-05,3.000000000000000000e+00,5.000000000000000000e+00
1.054800000000000000e+04,1.800000000000000113e-04,4.700000000000000401e-04,1.499999999999999869e-04,-2.000000000000000164e-05,-1.800000000000000113e-04,-1.000000000000000048e-04,-6.999999999999999387e-05,5.000000000000000240e-05,3.000000000000000000e+00,5.000000000000000000e+00
1.054900000000000000e+04,1.800000000000000113e-04,4.700000000000000401e-04,1.499999999999999869e-04,-2.000000000000000164e-05,-1.800000000000000113e-04,-1.000000000000000048e-04,-6.999999999999999387e-05,5.000000000000000240e-05,3.000000000000000000e+00,5.000000000000000000e+00
1.055000000000000000e+04,1.800000000000000113e-04,4.700000000000000401e-04,1.499999999999999869e-04,-2.000000000000000164e-05,-1.800000000000000113e-04,-1.000000000000000048e-04,-6.999999999999999387e-05,5.000000000000000240e-05,3.000000000000000000e+00,5.000000000000000000e+00
1.055100000000000000e+04,1.800000000000000113e-04,4.700000000000000401e-04,1.499999999999999869e-04,-2.000000000000000164e-05,-1.800000000000000113e-04,-1.000000000000000048e-04,-6.999999999999999387e-05,5.000000000000000240e-05,3.000000000000000000e+00,5.000000000000000000e+00
1.055200000000000000e+04,1.800000000000000113e-04,4.700000000000000401e-04,1.499999999999999869e-04,-2.000000000000000164e-05,-1.800000000000000113e-04,-1.000000000000000048e-04,-6.999999999999999387e-05,5.000000000000000240e-05,3.000000000000000000e+00,5.000000000000000000e+00
1.055300000000000000e+04,1.800000000000000113e-04,4.700000000000000401e-04,1.499999999999999869e-04,-2.000000000000000164e-05,-1.800000000000000113e-04,-1.000000000000000048e-04,-6.999999999999999387e-05,5.000000000000000240e-05,3.000000000000000000e+00,5.000000000000000000e+00
1.055400000000000000e+04,1.800000000000000113e-04,4.700000000000000401e-04,1.499999999999999869e-04,-2.000000000000000164e-05,-1.800000000000000113e-04,-1.000000000000000048e-04,-6.999999999999999387e-05,5.000000000000000240e-05,3.000000000000000000e+00,5.000000000000000000e+00
1.055500000000000000e+04,1.800000000000000113e-04,4.700000000000000401e-04,1.499999999999999869e-04,-2.000000000000000164e-05,-1.800000000000000113e-04,-1.000000000000000048e-04,-6.999999999999999387e-05,5.000000000000000240e-05,3.000000000000000000e+00,5.000000000000000000e+00
1.055600000000000000e+04,1.800000000000000113e-04,4.700000000000000401e-04,1.499999999999999869e-04,-2.000000000000000164e-05,-1.800000000000000113e-04,-1.000000000000000048e-04,-6.999999999999999387e-05,5.000000000000000240e-05,3.000000000000000000e+00,5.000000000000000000e+00
1.055700000000000000e+04,1.800000000000000113e-04,4.700000000000000401e-04,1.499999999999999869e-04,-2.000000000000000164e-05,-1.800000000000000113e-04,-1.000000000000000048e-04,-6.999999999999999387e-05,5.000000000000000240e-05,3.000000000000000000e+00,5.000000000000000000e+00
1.055800000000000000e+04,1.800000000000000113e-04,4.700000000000000401e-04,1.499999999999999869e-04,-2.000000000000000164e-05,-1.800000000000000113e-04,-1.000000000000000048e-04,-6.999999999999999387e-05,5.000000000000000240e-05,3.000000000000000000e+00,5.000000000000000000e+00
1.055900000000000000e+04,1.800000000000000113e-04,4.700000000000000401e-04,1.499999999999999869e-04,-2.000000000000000164e-05,-1.800000000000000113e-04,-1.000000000000000048e-04,-6.999999999999999387e-05,5.000000000000000240e-05,3.000000000000000000e+00,5.000000000000000000e+00
1.056000000000000000e+04,1.800000000000000113e-04,4.700000000000000401e-04,1.499999999999999869e-04,-2.000000000000000164e-05,-1.800000000000000113e-04,-1.000000000000000048e-04,-6.999999999999999387e-05,5.000000000000000240e-05,3.000000000000000000e+00,5.000000000000000000e+00
1.056100000000000000e+04,1.800000000000000113e-04,4.700000000000000401e-04,1.499999999999999869e-04,-2.000000000000000164e-05,-1.800000000000000113e-04,-1.000000000000000048e-04,-6.999999999999999387e-05,5.000000000000000240e-05,3.000000000000000000e+00,5.000000000000000000e+00
1.056200000000000000e+04,-5.900000000000000296e-04,-9.699999999999999421e-04,-2.500000000000000052e-04,-1.399999999999999877e-04,-2.100000000000000087e-04,2.999999999999999737e-05,2.999999999999999737e-05,2.000000000000000164e-05,3.000000000000000000e+00,5.000000000000000000e+00
1.056300000000000000e+04,-5.900000000000000296e-04,-9.699999999999999421e-04,-2.500000000000000052e-04,-1.399999999999999877e-04,-2.100000000000000087e-04,2.999999999999999737e-05,2.999999999999999737e-05,2.000000000000000164e-05,3.000000000000000000e+00,5.000000000000000000e+00
1.056400000000000000e+04,-9.000000000000000567e-05,-3.600000000000000227e-04,-1.100000000000000039e-04,-8.000000000000000654e-05,-5.000000000000000240e-05,-5.000000000000000240e-05,-1.899999999999999834e-04,-4.000000000000000327e-05,3.000000000000000000e+00,5.000000000000000000e+00
1.056500000000000000e+04,-9.000000000000000567e-05,-3.600000000000000227e-04,-1.100000000000000039e-04,-8.000000000000000654e-05,-5.000000000000000240e-05,-5.000000000000000240e-05,-1.899999999999999834e-04,-4.000000000000000327e-05,3.000000000000000000e+00,5.000000000000000000e+00
1.056600000000000000e+04,-9.000000000000000567e-05,-3.600000000000000227e-04,-1.100000000000000039e-04,-8.000000000000000654e-05,-5.000000000000000240e-05,-5.000000000000000240e-05,-1.899999999999999834e-04,-4.000000000000000327e-05,3.000000000000000000e+00,5.000000000000000000e+00
1.056700000000000000e+04,-9.000000000000000567e-05,-3.600000000000000227e-04,-1.100000000000000039e-04,-8.000000000000000654e-05,-5.000000000000000240e-05,-5.000000000000000240e-05,-1.899999999999999834e-04,-4.000000000000000327e-05,3.000000000000000000e+00,5.000000000000000000e+00
1.056800000000000000e+04,-9.000000000000000567e-05,-3.600000000000000227e-04,-1.100000000000000039e-04,-8.000000000000000654e-05,-5.000000000000000240e-05,-5.000000000000000240e-05,-1.899999999999999834e-04,-4.000000000000000327e-05,3.000000000000000000e+00,5.000000000000000000e+00
1.056900000000000000e+04,-9.000000000000000567e-05,-3.600000000000000227e-04,-1.100000000000000039e-04,-8.000000000000000654e-05,-5.000000000000000240e-05,-5.000000000000000240e-05,-1.899999999999999834e-04,-4.000000000000000327e-05,3.000000000000000000e+00,5.000000000000000000e+00
1.057000000000000000e+04,-9.000000000000000567e-05,-3.600000000000000227e-04,-1.100000000000000039e-04,-8.000000000000000654e-05,-5.000000000000000240e-05,-5.000000000000000240e-05,-1.899999999999999834e-04,-4.000000000000000327e-05,3.000000000000000000e+00,5.000000000000000000e+00
1.057100000000000000e+04,-9.000000000000000567e-05,-3.600000000000000227e-04,-1.100000000000000039e-04,-8.000000000000000654e-05,-5.000000000000000240e-05,-5.000000000000000240e-05,-1.899999999999999834e-04,-4.000000000000000327e-05,3.000000000000000000e+00,5.000000000000000000e+00
1.057200000000000000e+04,-9.000000000000000567e-05,-3.600000000000000227e-04,-1.100000000000000039e-04,-8.000000000000000654e-05,-5.000000000000000240e-05,-5.000000000000000240e-05,-1.899999999999999834e-04,-4.000000000000000327e-05,3.000000000000000000e+00,5.000000000000000000e+00
1.057300000000000000e+04,-9.000000000000000567e-05,-3.600000000000000227e-04,-1.100000000000000039e-04,-8.000000000000000654e-05,-5.000000000000000240e-05,-5.000000000000000240e-05,-1.899999999999999834e-04,-4.000000000000000327e-05,3.000000000000000000e+00,5.000000000000000000e+00
1.057400000000000000e+04,-9.000000000000000567e-05,-3.600000000000000227e-04,-1.100000000000000039e-04,-8.000000000000000654e-05,-5.000000000000000240e-05,-5.000000000000000240e-05,-1.899999999999999834e-04,-4.000000000000000327e-05,3.000000000000000000e+00,5.000000000000000000e+00
1.057500000000000000e+04,-9.000000000000000567e-05,-3.600000000000000227e-04,-1.100000000000000039e-04,-8.000000000000000654e-05,-5.000000000000000240e-05,-5.000000000000000240e-05,-1.899999999999999834e-04,-4.000000000000000327e-05,3.000000000000000000e+00,5.000000000000000000e+00
1.057600000000000000e+04,-9.000000000000000567e-05,-3.600000000000000227e-04,-1.100000000000000039e-04,-8.000000000000000654e-05,-5.000000000000000240e-05,-5.000000000000000240e-05,-1.899999999999999834e-04,-4.000000000000000327e-05,3.000000000000000000e+00,5.000000000000000000e+00
1.057700000000000000e+04,-9.000000000000000567e-05,-3.600000000000000227e-04,-1.100000000000000039e-04,-8.000000000000000654e-05,-5.000000000000000240e-05,-5.000000000000000240e-05,-1.899999999999999834e-04,-4.000000000000000327e-05,3.000000000000000000e+00,5.000000000000000000e+00
1.057800000000000000e+04,-9.000000000000000567e-05,-3.600000000000000227e-04,-1.100000000000000039e-04,-8.000000000000000654e-05,-5.000000000000000240e-05,-5.000000000000000240e-05,-1.899999999999999834e-04,-4.000000000000000327e-05,3.000000000000000000e+00,5.000000000000000000e+00
1.057900000000000000e+04,-9.000000000000000567e-05,-3.600000000000000227e-04,-1.100000000000000039e-04,-8.000000000000000654e-05,-5.000000000000000240e-05,-5.000000000000000240e-05,-1.899999999999999834e-04,-4.000000000000000327e-05,3.000000000000000000e+00,5.000000000000000000e+00
1.058000000000000000e+04,-9.000000000000000567e-05,-3.600000000000000227e-04,-1.100000000000000039e-04,-8.000000000000000654e-05,-5.000000000000000240e-05,-5.000000000000000240e-05,-1.899999999999999834e-04,-4.000000000000000327e-05,3.000000000000000000e+00,5.000000000000000000e+00
1.058100000000000000e+04,-9.000000000000000567e-05,-3.600000000000000227e-04,-1.100000000000000039e-04,-8.000000000000000654e-05,-5.000000000000000240e-05,-5.000000000000000240e-05,-1.899999999999999834e-04,-4.000000000000000327e-05,3.000000000000000000e+00,5.000000000000000000e+00
1.058200000000000000e+04,-9.000000000000000567e-05,-3.600000000000000227e-04,-1.100000000000000039e-04,-8.000000000000000654e-05,-5.000000000000000240e-05,-5.000000000000000240e-05,-1.899999999999999834e-04,-4.000000000000000327e-05,3.000000000000000000e+00,5.000000000000000000e+00
1.058300000000000000e+04,-9.000000000000000567e-05,-3.600000000000000227e-04,-1.100000000000000039e-04,-8.000000000000000654e-05,-5.000000000000000240e-05,-5.000000000000000240e-05,-1.899999999999999834e-04,-4.000000000000000327e-05,3.000000000000000000e+00,5.000000000000000000e+00
1.058400000000000000e+04,2.600000000000000314e-04,4.599999999999999597e-04,5.999999999999999474e-05,-4.000000000000000327e-05,-1.300000000000000157e-04,-2.000000000000000164e-05,-4.000000000000000327e-05,2.000000000000000164e-05,3.000000000000000000e+00,5.000000000000000000e+00
1.058500000000000000e+04,2.600000000000000314e-04,4.599999999999999597e-04,5.999999999999999474e-05,-4.000000000000000327e-05,-1.300000000000000157e-04,-2.000000000000000164e-05,-4.000000000000000327e-05,2.000000000000000164e-05,3.000000000000000000e+00,5.000000000000000000e+00
1.058600000000000000e+04,1.100000000000000039e-04,3.499999999999999964e-04,-2.000000000000000164e-05,8.000000000000000654e-05,1.499999999999999869e-04,-5.000000000000000240e-05,-8.000000000000000654e-05,-2.399999999999999790e-04,3.000000000000000000e+00,5.000000000000000000e+00
1.058800000000000000e+04,-2.700000000000000035e-04,-4.000000000000000192e-04,2.999999999999999737e-05,2.999999999999999737e-05,1.000000000000000082e-05,-5.000000000000000240e-05,1.000000000000000082e-05,2.000000000000000164e-05,3.000000000000000000e+00,5.000000000000000000e+00
1.058900000000000000e+04,-2.700000000000000035e-04,-4.000000000000000192e-04,2.999999999999999737e-05,2.999999999999999737e-05,1.000000000000000082e-05,-5.000000000000000240e-05,1.000000000000000082e-05,2.000000000000000164e-05,3.000000000000000000e+00,5.000000000000000000e+00
1.059000000000000000e+04,-2.700000000000000035e-04,-4.000000000000000192e-04,2.999999999999999737e-05,2.999999999999999737e-05,1.000000000000000082e-05,-5.000000000000000240e-05,1.000000000000000082e-05,2.000000000000000164e-05,3.000000000000000000e+00,5.000000000000000000e+00
1.059100000000000000e+04,-2.700000000000000035e-04,-4.000000000000000192e-04,2.999999999999999737e-05,2.999999999999999737e-05,1.000000000000000082e-05,-5.000000000000000240e-05,1.000000000000000082e-05,2.000000000000000164e-05,3.000000000000000000e+00,5.000000000000000000e+00
1.059200000000000000e+04,-2.700000000000000035e-04,-4.000000000000000192e-04,2.999999999999999737e-05,2.999999999999999737e-05,1.000000000000000082e-05,-5.000000000000000240e-05,1.000000000000000082e-05,2.000000000000000164e-05,3.000000000000000000e+00,5.000000000000000000e+00
1.059300000000000000e+04,-2.700000000000000035e-04,-4.000000000000000192e-04,2.999999999999999737e-05,2.999999999999999737e-05,1.000000000000000082e-05,-5.000000000000000240e-05,1.000000000000000082e-05,2.000000000000000164e-05,3.000000000000000000e+00,5.000000000000000000e+00
1.059400000000000000e+04,-2.700000000000000035e-04,-4.000000000000000192e-04,2.999999999999999737e-05,2.999999999999999737e-05,1.000000000000000082e-05,-5.000000000000000240e-05,1.000000000000000082e-05,2.000000000000000164e-05,3.000000000000000000e+00,5.000000000000000000e+00
1.059500000000000000e+04,-2.700000000000000035e-04,-4.000000000000000192e-04,2.999999999999999737e-05,2.999999999999999737e-05,1.000000000000000082e-05,-5.000000000000000240e-05,1.000000000000000082e-05,2.000000000000000164e-05,3.000000000000000000e+00,5.000000000000000000e+00
1.059600000000000000e+04,-2.700000000000000035e-04,-4.000000000000000192e-04,2.999999999999999737e-05,2.999999999999999737e-05,1.000000000000000082e-05,-5.000000000000000240e-05,1.000000000000000082e-05,2.000000000000000164e-05,3.000000000000000000e+00,5.000000000000000000e+00
1.059700000000000000e+04,-2.700000000000000035e-04,-4.000000000000000192e-04,2.999999999999999737e-05,2.999999999999999737e-05,1.000000000000000082e-05,-5.000000000000000240e-05,1.000000000000000082e-05,2.000000000000000164e-05,3.000000000000000000e+00,5.000000000000000000e+00
1.059800000000000000e+04,-2.700000000000000035e-04,-4.000000000000000192e-04,2.999999999999999737e-05,2.999999999999999737e-05,1.000000000000000082e-05,-5.000000000000000240e-05,1.000000000000000082e-05,2.000000000000000164e-05,3.000000000000000000e+00,5.000000000000000000e+00
1.059900000000000000e+04,-2.700000000000000035e-04,-4.000000000000000192e-04,2.999999999999999737e-05,2.999999999999999737e-05,1.000000000000000082e-05,-5.000000000000000240e-05,1.000000000000000082e-05,2.000000000000000164e-05,3.000000000000000000e+00,5.000000000000000000e+00
1.060000000000000000e+04,-2.700000000000000035e-04,-4.000000000000000192e-04,2.999999999999999737e-05,2.999999999999999737e-05,1.000000000000000082e-05,-5.000000000000000240e-05,1.000000000000000082e-05,2.000000000000000164e-05,3.000000000000000000e+00,5.000000000000000000e+00
1.060100000000000000e+04,-2.700000000000000035e-04,-4.000000000000000192e-04,2.999999999999999737e-05,2.999999999999999737e-05,1.000000000000000082e-05,-5.000000000000000240e-05,1.000000000000000082e-05,2.000000000000000164e-05,3.000000000000000000e+00,5.000000000000000000e+00
1.060200000000000000e+04,-2.700000000000000035e-04,-4.000000000000000192e-04,2.999999999999999737e-05,2.999999999999999737e-05,1.000000000000000082e-05,-5.000000000000000240e-05,1.000000000000000082e-05,2.000000000000000164e-05,3.000000000000000000e+00,5.000000000000000000e+00
1.060400000000000000e+04,-2.700000000000000035e-04,-4.000000000000000192e-04,2.999999999999999737e-05,2.999999999999999737e-05,1.000000000000000082e-05,-5.000000000000000240e-05,1.000000000000000082e-05,2.000000000000000164e-05,3.000000000000000000e+00,5.000000000000000000e+00
1.060500000000000000e+04,-2.700000000000000035e-04,-4.000000000000000192e-04,2.999999999999999737e-05,2.999999999999999737e-05,1.000000000000000082e-05,-5.000000000000000240e-05,1.000000000000000082e-05,2.000000000000000164e-05,3.000000000000000000e+00,5.000000000000000000e+00
1.060600000000000000e+04,-2.700000000000000035e-04,-4.000000000000000192e-04,2.999999999999999737e-05,2.999999999999999737e-05,1.000000000000000082e-05,-5.000000000000000240e-05,1.000000000000000082e-05,2.000000000000000164e-05,3.000000000000000000e+00,5.000000000000000000e+00
1.060700000000000000e+04,-2.700000000000000035e-04,-4.000000000000000192e-04,2.999999999999999737e-05,2.999999999999999737e-05,1.000000000000000082e-05,-5.000000000000000240e-05,1.000000000000000082e-05,2.000000000000000164e-05,3.000000000000000000e+00,5.000000000000000000e+00
1.060800000000000000e+04,-2.700000000000000035e-04,-4.000000000000000192e-04,2.999999999999999737e-05,2.999999999999999737e-05,1.000000000000000082e-05,-5.000000000000000240e-05,1.000000000000000082e-05,2.000000000000000164e-05,3.000000000000000000e+00,5.000000000000000000e+00
1.060900000000000000e+04,-2.700000000000000035e-04,-4.000000000000000192e-04,2.999999999999999737e-05,2.999999999999999737e-05,1.000000000000000082e-05,-5.000000000000000240e-05,1.000000000000000082e-05,2.000000000000000164e-05,3.000000000000000000e+00,5.000000000000000000e+00
1.061000000000000000e+04,-2.700000000000000035e-04,-4.000000000000000192e-04,2.999999999999999737e-05,2.999999999999999737e-05,1.000000000000000082e-05,-5.000000000000000240e-05,1.000000000000000082e-05,2.000000000000000164e-05,3.000000000000000000e+00,5.000000000000000000e+00
1.061100000000000000e+04,-2.700000000000000035e-04,-4.000000000000000192e-04,2.999999999999999737e-05,2.999999999999999737e-05,1.000000000000000082e-05,-5.000000000000000240e-05,1.000000000000000082e-05,2.000000000000000164e-05,3.000000000000000000e+00,5.000000000000000000e+00
1.061200000000000000e+04,-2.700000000000000035e-04,-4.000000000000000192e-04,2.999999999999999737e-05,2.999999999999999737e-05,1.000000000000000082e-05,-5.000000000000000240e-05,1.000000000000000082e-05,2.000000000000000164e-05,3.000000000000000000e+00,5.000000000000000000e+00
1.061300000000000000e+04,-2.700000000000000035e-04,-4.000000000000000192e-04,2.999999999999999737e-05,2.999999999999999737e-05,1.000000000000000082e-05,-5.000000000000000240e-05,1.000000000000000082e-05,2.000000000000000164e-05,3.000000000000000000e+00,5.000000000000000000e+00
1.061400000000000000e+04,-2.700000000000000035e-04,-4.000000000000000192e-04,2.999999999999999737e-05,2.999999999999999737e-05,1.000000000000000082e-05,-5.000000000000000240e-05,1.000000000000000082e-05,2.000000000000000164e-05,3.000000000000000000e+00,5.000000000000000000e+00
1.061500000000000000e+04,-2.700000000000000035e-04,-4.000000000000000192e-04,2.999999999999999737e-05,2.999999999999999737e-05,1.000000000000000082e-05,-5.000000000000000240e-05,1.000000000000000082e-05,2.000000000000000164e-05,3.000000000000000000e+00,5.000000000000000000e+00
1.061600000000000000e+04,-2.700000000000000035e-04,-4.000000000000000192e-04,2.999999999999999737e-05,2.999999999999999737e-05,1.000000000000000082e-05,-5.000000000000000240e-05,1.000000000000000082e-05,2.000000000000000164e-05,3.000000000000000000e+00,5.000000000000000000e+00
1.061700000000000000e+04,-2.700000000000000035e-04,-4.000000000000000192e-04,2.999999999999999737e-05,2.999999999999999737e-05,1.000000000000000082e-05,-5.000000000000000240e-05,1.000000000000000082e-05,2.000000000000000164e-05,3.000000000000000000e+00,5.000000000000000000e+00
1.061800000000000000e+04,-2.700000000000000035e-04,-4.000000000000000192e-04,2.999999999999999737e-05,2.999999999999999737e-05,1.000000000000000082e-05,-5.000000000000000240e-05,1.000000000000000082e-05,2.000000000000000164e-05,3.000000000000000000e+00,5.000000000000000000e+00
1.061900000000000000e+04,-2.700000000000000035e-04,-4.000000000000000192e-04,2.999999999999999737e-05,2.999999999999999737e-05,1.000000000000000082e-05,-5.000000000000000240e-05,1.000000000000000082e-05,2.000000000000000164e-05,3.000000000000000000e+00,5.000000000000000000e+00
1.062000000000000000e+04,-2.700000000000000035e-04,-4.000000000000000192e-04,2.999999999999999737e-05,2.999999999999999737e-05,1.000000000000000082e-05,-5.000000000000000240e-05,1.000000000000000082e-05,2.000000000000000164e-05,3.000000000000000000e+00,5.000000000000000000e+00
1.062100000000000000e+04,-2.700000000000000035e-04,-4.000000000000000192e-04,2.999999999999999737e-05,2.999999999999999737e-05,1.000000000000000082e-05,-5.000000000000000240e-05,1.000000000000000082e-05,2.000000000000000164e-05,3.000000000000000000e+00,5.000000000000000000e+00
1.062200000000000000e+04,-2.700000000000000035e-04,-4.000000000000000192e-04,2.999999999999999737e-05,2.999999999999999737e-05,1.000000000000000082e-05,-5.000000000000000240e-05,1.000000000000000082e-05,2.000000000000000164e-05,3.000000000000000000e+00,5.000000000000000000e+00
1.062300000000000000e+04,-2.700000000000000035e-04,-4.000000000000000192e-04,2.999999999999999737e-05,2.999999999999999737e-05,1.000000000000000082e-05,-5.000000000000000240e-05,1.000000000000000082e-05,2.000000000000000164e-05,3.000000000000000000e+00,5.000000000000000000e+00
1.062400000000000000e+04,-2.700000000000000035e-04,-4.000000000000000192e-04,2.999999999999999737e-05,2.999999999999999737e-05,1.000000000000000082e-05,-5.000000000000000240e-05,1.000000000000000082e-05,2.000000000000000164e-05,3.000000000000000000e+00,5.000000000000000000e+00
1.062500000000000000e+04,-2.700000000000000035e-04,-4.000000000000000192e-04,2.999999999999999737e-05,2.999999999999999737e-05,1.000000000000000082e-05,-5.000000000000000240e-05,1.000000000000000082e-05,2.000000000000000164e-05,3.000000000000000000e+00,5.000000000000000000e+00
1.062600000000000000e+04,-2.700000000000000035e-04,-4.000000000000000192e-04,2.999999999999999737e-05,2.999999999999999737e-05,1.000000000000000082e-05,-5.000000000000000240e-05,1.000000000000000082e-05,2.000000000000000164e-05,3.000000000000000000e+00,5.000000000000000000e+00
1.062700000000000000e+04,-2.700000000000000035e-04,-4.000000000000000192e-04,2.999999999999999737e-05,2.999999999999999737e-05,1.000000000000000082e-05,-5.000000000000000240e-05,1.000000000000000082e-05,2.000000000000000164e-05,3.000000000000000000e+00,5.000000000000000000e+00
1.062800000000000000e+04,-2.700000000000000035e-04,-4.000000000000000192e-04,2.999999999999999737e-05,2.999999999999999737e-05,1.000000000000000082e-05,-5.000000000000000240e-05,1.000000000000000082e-05,2.000000000000000164e-05,3.000000000000000000e+00,5.000000000000000000e+00
1.062900000000000000e+04,-2.700000000000000035e-04,-4.000000000000000192e-04,2.999999999999999737e-05,2.999999999999999737e-05,1.000000000000000082e-05,-5.000000000000000240e-05,1.000000000000000082e-05,2.000000000000000164e-05,3.000000000000000000e+00,5.000000000000000000e+00
1.063000000000000000e+04,-2.700000000000000035e-04,-4.000000000000000192e-04,2.999999999999999737e-05,2.999999999999999737e-05,1.000000000000000082e-05,-5.000000000000000240e-05,1.000000000000000082e-05,2.000000000000000164e-05,3.000000000000000000e+00,5.000000000000000000e+00
1.063100000000000000e+04,-2.700000000000000035e-04,-4.000000000000000192e-04,2.999999999999999737e-05,2.999999999999999737e-05,1.000000000000000082e-05,-5.000000000000000240e-05,1.000000000000000082e-05,2.000000000000000164e-05,3.000000000000000000e+00,5.000000000000000000e+00
1.063200000000000000e+04,-2.700000000000000035e-04,-4.000000000000000192e-04,2.999999999999999737e-05,2.999999999999999737e-05,1.000000000000000082e-05,-5.000000000000000240e-05,1.000000000000000082e-05,2.000000000000000164e-05,3.000000000000000000e+00,5.000000000000000000e+00
1.063300000000000000e+04,-2.700000000000000035e-04,-4.000000000000000192e-04,2.999999999999999737e-05,2.999999999999999737e-05,1.000000000000000082e-05,-5.000000000000000240e-05,1.000000000000000082e-05,2.000000000000000164e-05,3.000000000000000000e+00,5.000000000000000000e+00
1.063400000000000000e+04,-2.700000000000000035e-04,-4.000000000000000192e-04,2.999999999999999737e-05,2.999999999999999737e-05,1.000000000000000082e-05,-5.000000000000000240e-05,1.000000000000000082e-05,2.000000000000000164e-05,3.000000000000000000e+00,5.000000000000000000e+00
1.063500000000000000e+04,-2.700000000000000035e-04,-4.000000000000000192e-04,2.999999999999999737e-05,2.999999999999999737e-05,1.000000000000000082e-05,-5.000000000000000240e-05,1.000000000000000082e-05,2.000000000000000164e-05,3.000000000000000000e+00,5.000000000000000000e+00
1.063600000000000000e+04,-2.700000000000000035e-04,-4.000000000000000192e-04,2.999999999999999737e-05,2.999999999999999737e-05,1.000000000000000082e-05,-5.000000000000000240e-05,1.000000000000000082e-05,2.000000000000000164e-05,3.000000000000000000e+00,5.000000000000000000e+00
1.063900000000000000e+04,1.000000000000000082e-05,1.000000000000000082e-05,4.000000000000000327e-05,1.800000000000000113e-04,5.200000000000000629e-04,1.600000000000000131e-04,5.999999999999999474e-05,5.000000000000000240e-05,3.000000000000000000e+00,5.000000000000000000e+00
1.064000000000000000e+04,1.000000000000000082e-05,1.000000000000000082e-05,4.000000000000000327e-05,1.800000000000000113e-04,5.200000000000000629e-04,1.600000000000000131e-04,5.999999999999999474e-05,5.000000000000000240e-05,3.000000000000000000e+00,5.000000000000000000e+00
1.064100000000000000e+04,1.000000000000000082e-05,1.000000000000000082e-05,4.000000000000000327e-05,1.800000000000000113e-04,5.200000000000000629e-04,1.600000000000000131e-04,5.999999999999999474e-05,5.000000000000000240e-05,3.000000000000000000e+00,5.000000000000000000e+00
1.064200000000000000e+04,1.000000000000000082e-05,1.000000000000000082e-05,4.000000000000000327e-05,1.800000000000000113e-04,5.200000000000000629e-04,1.600000000000000131e-04,5.999999999999999474e-05,5.000000000000000240e-05,3.000000000000000000e+00,5.000000000000000000e+00
1.064300000000000000e+04,1.000000000000000082e-05,1.000000000000000082e-05,4.000000000000000327e-05,1.800000000000000113e-04,5.200000000000000629e-04,1.600000000000000131e-04,5.999999999999999474e-05,5.000000000000000240e-05,3.000000000000000000e+00,5.000000000000000000e+00
1.064400000000000000e+04,1.000000000000000082e-05,1.000000000000000082e-05,4.000000000000000327e-05,1.800000000000000113e-04,5.200000000000000629e-04,1.600000000000000131e-04,5.999999999999999474e-05,5.000000000000000240e-05,3.000000000000000000e+00,5.000000000000000000e+00
1.064500000000000000e+04,1.000000000000000082e-05,1.000000000000000082e-05,4.000000000000000327e-05,1.800000000000000113e-04,5.200000000000000629e-04,1.600000000000000131e-04,5.999999999999999474e-05,5.000000000000000240e-05,3.000000000000000000e+00,5.000000000000000000e+00
1.064600000000000000e+04,1.000000000000000082e-05,1.000000000000000082e-05,4.000000000000000327e-05,1.800000000000000113e-04,5.200000000000000629e-04,1.600000000000000131e-04,5.999999999999999474e-05,5.000000000000000240e-05,3.000000000000000000e+00,5.000000000000000000e+00
1.064700000000000000e+04,1.000000000000000082e-05,1.000000000000000082e-05,4.000000000000000327e-05,1.800000000000000113e-04,5.200000000000000629e-04,1.600000000000000131e-04,5.999999999999999474e-05,5.000000000000000240e-05,3.000000000000000000e+00,5.000000000000000000e+00
1.064800000000000000e+04,1.000000000000000082e-05,1.000000000000000082e-05,4.000000000000000327e-05,1.800000000000000113e-04,5.200000000000000629e-04,1.600000000000000131e-04,5.999999999999999474e-05,5.000000000000000240e-05,3.000000000000000000e+00,5.000000000000000000e+00
1.064900000000000000e+04,1.000000000000000082e-05,1.000000000000000082e-05,4.000000000000000327e-05,1.800000000000000113e-04,5.200000000000000629e-04,1.600000000000000131e-04,5.999999999999999474e-05,5.000000000000000240e-05,3.000000000000000000e+00,5.000000000000000000e+00
1.065000000000000000e+04,1.000000000000000082e-05,1.000000000000000082e-05,4.000000000000000327e-05,1.800000000000000113e-04,5.200000000000000629e-04,1.600000000000000131e-04,5.999999999999999474e-05,5.000000000000000240e-05,3.000000000000000000e+00,5.000000000000000000e+00
1.065100000000000000e+04,1.000000000000000082e-05,1.000000000000000082e-05,4.000000000000000327e-05,1.800000000000000113e-04,5.200000000000000629e-04,1.600000000000000131e-04,5.999999999999999474e-05,5.000000000000000240e-05,3.000000000000000000e+00,5.000000000000000000e+00
1.065200000000000000e+04,1.000000000000000082e-05,1.000000000000000082e-05,4.000000000000000327e-05,1.800000000000000113e-04,5.200000000000000629e-04,1.600000000000000131e-04,5.999999999999999474e-05,5.000000000000000240e-05,3.000000000000000000e+00,5.000000000000000000e+00
1.065300000000000000e+04,1.000000000000000082e-05,1.000000000000000082e-05,4.000000000000000327e-05,1.800000000000000113e-04,5.200000000000000629e-04,1.600000000000000131e-04,5.999999999999999474e-05,5.000000000000000240e-05,3.000000000000000000e+00,5.000000000000000000e+00
1.065400000000000000e+04,1.000000000000000082e-05,1.000000000000000082e-05,4.000000000000000327e-05,1.800000000000000113e-04,5.200000000000000629e-04,1.600000000000000131e-04,5.999999999999999474e-05,5.000000000000000240e-05,3.000000000000000000e+00,5.000000000000000000e+00
1.065500000000000000e+04,1.000000000000000082e-05,1.000000000000000082e-05,4.000000000000000327e-05,1.800000000000000113e-04,5.200000000000000629e-04,1.600000000000000131e-04,5.999999999999999474e-05,5.000000000000000240e-05,3.000000000000000000e+00,5.000000000000000000e+00
1.065600000000000000e+04,1.000000000000000082e-05,1.000000000000000082e-05,4.000000000000000327e-05,1.800000000000000113e-04,5.200000000000000629e-04,1.600000000000000131e-04,5.999999999999999474e-05,5.000000000000000240e-05,3.000000000000000000e+00,5.000000000000000000e+00
1.065700000000000000e+04,1.000000000000000082e-05,1.000000000000000082e-05,4.000000000000000327e-05,1.800000000000000113e-04,5.200000000000000629e-04,1.600000000000000131e-04,5.999999999999999474e-05,5.000000000000000240e-05,3.000000000000000000e+00,5.000000000000000000e+00
1.065800000000000000e+04,1.000000000000000082e-05,1.000000000000000082e-05,4.000000000000000327e-05,1.800000000000000113e-04,5.200000000000000629e-04,1.600000000000000131e-04,5.999999999999999474e-05,5.000000000000000240e-05,3.000000000000000000e+00,5.000000000000000000e+00
1.065900000000000000e+04,1.000000000000000082e-05,1.000000000000000082e-05,4.000000000000000327e-05,1.800000000000000113e-04,5.200000000000000629e-04,1.600000000000000131e-04,5.999999999999999474e-05,5.000000000000000240e-05,3.000000000000000000e+00,5.000000000000000000e+00
1.066000000000000000e+04,-3.499999999999999964e-04,-3.600000000000000227e-04,-1.499999999999999869e-04,-6.999999999999999387e-05,-9.000000000000000567e-05,-1.000000000000000082e-05,-1.000000000000000082e-05,-1.600000000000000131e-04,3.000000000000000000e+00,5.000000000000000000e+00
1.066100000000000000e+04,3.799999999999999667e-04,7.900000000000000121e-04,6.999999999999999387e-05,-4.000000000000000327e-05,-1.699999999999999851e-04,-1.800000000000000113e-04,5.000000000000000240e-05,1.899999999999999834e-04,3.000000000000000000e+00,5.000000000000000000e+00
1.066200000000000000e+04,-8.000000000000000654e-05,-9.000000000000000567e-05,2.999999999999999737e-05,5.000000000000000240e-05,2.000000000000000164e-05,1.000000000000000082e-05,-4.000000000000000327e-05,1.000000000000000082e-05,3.000000000000000000e+00,5.000000000000000000e+00
1.066300000000000000e+04,-8.000000000000000654e-05,-9.000000000000000567e-05,2.999999999999999737e-05,5.000000000000000240e-05,2.000000000000000164e-05,1.000000000000000082e-05,-4.000000000000000327e-05,1.000000000000000082e-05,3.000000000000000000e+00,5.000000000000000000e+00
1.066400000000000000e+04,-8.000000000000000654e-05,-9.000000000000000567e-05,2.999999999999999737e-05,5.000000000000000240e-05,2.000000000000000164e-05,1.000000000000000082e-05,-4.000000000000000327e-05,1.000000000000000082e-05,3.000000000000000000e+00,5.000000000000000000e+00
1.066500000000000000e+04,-8.000000000000000654e-05,-9.000000000000000567e-05,2.999999999999999737e-05,5.000000000000000240e-05,2.000000000000000164e-05,1.000000000000000082e-05,-4.000000000000000327e-05,1.000000000000000082e-05,3.000000000000000000e+00,5.000000000000000000e+00
1.066600000000000000e+04,-8.000000000000000654e-05,-9.000000000000000567e-05,2.999999999999999737e-05,5.000000000000000240e-05,2.000000000000000164e-05,1.000000000000000082e-05,-4.000000000000000327e-05,1.000000000000000082e-05,3.000000000000000000e+00,5.000000000000000000e+00
1.066700000000000000e+04,-8.000000000000000654e-05,-9.000000000000000567e-05,2.999999999999999737e-05,5.000000000000000240e-05,2.000000000000000164e-05,1.000000000000000082e-05,-4.000000000000000327e-05,1.000000000000000082e-05,3.000000000000000000e+00,5.000000000000000000e+00
1.066800000000000000e+04,-8.000000000000000654e-05,-9.000000000000000567e-05,2.999999999999999737e-05,5.000000000000000240e-05,2.000000000000000164e-05,1.000000000000000082e-05,-4.000000000000000327e-05,1.000000000000000082e-05,3.000000000000000000e+00,5.000000000000000000e+00
1.066900000000000000e+04,-8.000000000000000654e-05,-9.000000000000000567e-05,2.999999999999999737e-05,5.000000000000000240e-05,2.000000000000000164e-05,1.000000000000000082e-05,-4.000000000000000327e-05,1.000000000000000082e-05,3.000000000000000000e+00,5.000000000000000000e+00
1.067000000000000000e+04,-8.000000000000000654e-05,-9.000000000000000567e-05,2.999999999999999737e-05,5.000000000000000240e-05,2.000000000000000164e-05,1.000000000000000082e-05,-4.000000000000000327e-05,1.000000000000000082e-05,3.000000000000000000e+00,5.000000000000000000e+00
1.067100000000000000e+04,-8.000000000000000654e-05,-9.000000000000000567e-05,2.999999999999999737e-05,5.000000000000000240e-05,2.000000000000000164e-05,1.000000000000000082e-05,-4.000000000000000327e-05,1.000000000000000082e-05,3.000000000000000000e+00,5.000000000000000000e+00
1.067200000000000000e+04,-8.000000000000000654e-05,-9.000000000000000567e-05,2.999999999999999737e-05,5.000000000000000240e-05,2.000000000000000164e-05,1.000000000000000082e-05,-4.000000000000000327e-05,1.000000000000000082e-05,3.000000000000000000e+00,5.000000000000000000e+00
1.067300000000000000e+04,-8.000000000000000654e-05,-9.000000000000000567e-05,2.999999999999999737e-05,5.000000000000000240e-05,2.000000000000000164e-05,1.000000000000000082e-05,-4.000000000000000327e-05,1.000000000000000082e-05,3.000000000000000000e+00,5.000000000000000000e+00
1.067400000000000000e+04,-8.000000000000000654e-05,-9.000000000000000567e-05,2.999999999999999737e-05,5.000000000000000240e-05,2.000000000000000164e-05,1.000000000000000082e-05,-4.000000000000000327e-05,1.000000000000000082e-05,3.000000000000000000e+00,5.000000000000000000e+00
1.067500000000000000e+04,-8.000000000000000654e-05,-9.000000000000000567e-05,2.999999999999999737e-05,5.000000000000000240e-05,2.000000000000000164e-05,1.000000000000000082e-05,-4.000000000000000327e-05,1.000000000000000082e-05,3.000000000000000000e+00,5.000000000000000000e+00
1.067600000000000000e+04,-8.000000000000000654e-05,-9.000000000000000567e-05,2.999999999999999737e-05,5.000000000000000240e-05,2.000000000000000164e-05,1.000000000000000082e-05,-4.000000000000000327e-05,1.000000000000000082e-05,3.000000000000000000e+00,5.000000000000000000e+00
1.067700000000000000e+04,-8.000000000000000654e-05,-9.000000000000000567e-05,2.999999999999999737e-05,5.000000000000000240e-05,2.000000000000000164e-05,1.000000000000000082e-05,-4.000000000000000327e-05,1.000000000000000082e-05,3.000000000000000000e+00,5.000000000000000000e+00
1.067800000000000000e+04,-8.000000000000000654e-05,-9.000000000000000567e-05,2.999999999999999737e-05,5.000000000000000240e-05,2.000000000000000164e-05,1.000000000000000082e-05,-4.000000000000000327e-05,1.000000000000000082e-05,3.000000000000000000e+00,5.000000000000000000e+00
1.067900000000000000e+04,-8.000000000000000654e-05,-9.000000000000000567e-05,2.999999999999999737e-05,5.000000000000000240e-05,2.000000000000000164e-05,1.000000000000000082e-05,-4.000000000000000327e-05,1.000000000000000082e-05,3.000000000000000000e+00,5.000000000000000000e+00
1.068000000000000000e+04,2.100000000000000087e-04,1.499999999999999869e-04,-4.000000000000000327e-05,-5.999999999999999474e-05,-2.999999999999999737e-05,0.000000000000000000e+00,1.000000000000000048e-04,1.800000000000000113e-04,3.000000000000000000e+00,5.000000000000000000e+00
1.068100000000000000e+04,2.100000000000000087e-04,1.499999999999999869e-04,-4.000000000000000327e-05,-5.999999999999999474e-05,-2.999999999999999737e-05,0.000000000000000000e+00,1.000000000000000048e-04,1.800000000000000113e-04,3.000000000000000000e+00,5.000000000000000000e+00
1.068200000000000000e+04,2.100000000000000087e-04,1.499999999999999869e-04,-4.000000000000000327e-05,-5.999999999999999474e-05,-2.999999999999999737e-05,0.000000000000000000e+00,1.000000000000000048e-04,1.800000000000000113e-04,3.000000000000000000e+00,5.000000000000000000e+00
1.068300000000000000e+04,2.100000000000000087e-04,1.499999999999999869e-04,-4.000000000000000327e-05,-5.999999999999999474e-05,-2.999999999999999737e-05,0.000000000000000000e+00,1.000000000000000048e-04,1.800000000000000113e-04,3.000000000000000000e+00,5.000000000000000000e+00
1.068400000000000000e+04,2.100000000000000087e-04,1.499999999999999869e-04,-4.000000000000000327e-05,-5.999999999999999474e-05,-2.999999999999999737e-05,0.000000000000000000e+00,1.000000000000000048e-04,1.800000000000000113e-04,3.000000000000000000e+00,5.000000000000000000e+00
1.068500000000000000e+04,2.100000000000000087e-04,1.499999999999999869e-04,-4.000000000000000327e-05,-5.999999999999999474e-05,-2.999999999999999737e-05,0.000000000000000000e+00,1.000000000000000048e-04,1.800000000000000113e-04,3.000000000000000000e+00,5.000000000000000000e+00
1.068600000000000000e+04,2.100000000000000087e-04,1.499999999999999869e-04,-4.000000000000000327e-05,-5.999999999999999474e-05,-2.999999999999999737e-05,0.000000000000000000e+00,1.000000000000000048e-04,1.800000000000000113e-04,3.000000000000000000e+00,5.000000000000000000e+00
1.068900000000000000e+04,0.000000000000000000e+00,4.000000000000000327e-05,6.999999999999999387e-05,5.999999999999999474e-05,1.800000000000000113e-04,2.100000000000000087e-04,9.000000000000000567e-05,9.000000000000000567e-05,3.000000000000000000e+00,5.000000000000000000e+00
1.069000000000000000e+04,-1.699999999999999851e-04,-3.799999999999999667e-04,-5.000000000000000240e-05,-6.999999999999999387e-05,-1.499999999999999869e-04,-6.999999999999999387e-05,-6.999999999999999387e-05,-2.700000000000000035e-04,3.000000000000000000e+00,5.000000000000000000e+00
1.069100000000000000e+04,-1.699999999999999851e-04,-3.799999999999999667e-04,-5.000000000000000240e-05,-6.999999999999999387e-05,-1.499999999999999869e-04,-6.999999999999999387e-05,-6.999999999999999387e-05,-2.700000000000000035e-04,3.000000000000000000e+00,5.000000000000000000e+00
1.069200000000000000e+04,-1.699999999999999851e-04,-3.799999999999999667e-04,-5.000000000000000240e-05,-6.999999999999999387e-05,-1.499999999999999869e-04,-6.999999999999999387e-05,-6.999999999999999387e-05,-2.700000000000000035e-04,3.000000000000000000e+00,5.000000000000000000e+00
1.069300000000000000e+04,-1.699999999999999851e-04,-3.799999999999999667e-04,-5.000000000000000240e-05,-6.999999999999999387e-05,-1.499999999999999869e-04,-6.999999999999999387e-05,-6.999999999999999387e-05,-2.700000000000000035e-04,3.000000000000000000e+00,5.000000000000000000e+00
1.069400000000000000e+04,-1.699999999999999851e-04,-3.799999999999999667e-04,-5.000000000000000240e-05,-6.999999999999999387e-05,-1.499999999999999869e-04,-6.999999999999999387e-05,-6.999999999999999387e-05,-2.700000000000000035e-04,3.000000000000000000e+00,5.000000000000000000e+00
1.069500000000000000e+04,-1.699999999999999851e-04,-3.799999999999999667e-04,-5.000000000000000240e-05,-6.999999999999999387e-05,-1.499999999999999869e-04,-6.999999999999999387e-05,-6.999999999999999387e-05,-2.700000000000000035e-04,3.000000000000000000e+00,5.000000000000000000e+00
1.069600000000000000e+04,-1.699999999999999851e-04,-3.799999999999999667e-04,-5.000000000000000240e-05,-6.999999999999999387e-05,-1.499999999999999869e-04,-6.999999999999999387e-05,-6.999999999999999387e-05,-2.700000000000000035e-04,3.000000000000000000e+00,5.000000000000000000e+00
1.069700000000000000e+04,-1.699999999999999851e-04,-3.799999999999999667e-04,-5.000000000000000240e-05,-6.999999999999999387e-05,-1.499999999999999869e-04,-6.999999999999999387e-05,-6.999999999999999387e-05,-2.700000000000000035e-04,3.000000000000000000e+00,5.000000000000000000e+00
1.069800000000000000e+04,-1.699999999999999851e-04,-3.799999999999999667e-04,-5.000000000000000240e-05,-6.999999999999999387e-05,-1.499999999999999869e-04,-6.999999999999999387e-05,-6.999999999999999387e-05,-2.700000000000000035e-04,3.000000000000000000e+00,5.000000000000000000e+00
1.069900000000000000e+04,-1.699999999999999851e-04,-3.799999999999999667e-04,-5.000000000000000240e-05,-6.999999999999999387e-05,-1.499999999999999869e-04,-6.999999999999999387e-05,-6.999999999999999387e-05,-2.700000000000000035e-04,3.000000000000000000e+00,5.000000000000000000e+00
1.070000000000000000e+04,-1.699999999999999851e-04,-3.799999999999999667e-04,-5.000000000000000240e-05,-6.999999999999999387e-05,-1.499999999999999869e-04,-6.999999999999999387e-05,-6.999999999999999387e-05,-2.700000000000000035e-04,3.000000000000000000e+00,5.000000000000000000e+00
1.070100000000000000e+04,-1.699999999999999851e-04,-3.799999999999999667e-04,-5.000000000000000240e-05,-6.999999999999999387e-05,-1.499999999999999869e-04,-6.999999999999999387e-05,-6.999999999999999387e-05,-2.700000000000000035e-04,3.000000000000000000e+00,5.000000000000000000e+00
1.070200000000000000e+04,-1.699999999999999851e-04,-3.799999999999999667e-04,-5.000000000000000240e-05,-6.999999999999999387e-05,-1.499999999999999869e-04,-6.999999999999999387e-05,-6.999999999999999387e-05,-2.700000000000000035e-04,3.000000000000000000e+00,5.000000000000000000e+00
