4.260400000000000000e+04,-1.699999999999999851e-04,5.000000000000000240e-05,6.999999999999999387e-05,-1.600000000000000131e-04,-5.000000000000000104e-04,-1.800000000000000113e-04,-4.000000000000000327e-05,-1.300000000000000157e-04,4.000000000000000000e+00,1.900000000000000000e+01
4.260500000000000000e+04,-1.699999999999999851e-04,5.000000000000000240e-05,6.999999999999999387e-05,-1.600000000000000131e-04,-5.000000000000000104e-04,-1.800000000000000113e-04,-4.000000000000000327e-05,-1.300000000000000157e-04,4.000000000000000000e+00,1.900000000000000000e+01
4.260600000000000000e+04,-1.699999999999999851e-04,5.000000000000000240e-05,6.999999999999999387e-05,-1.600000000000000131e-04,-5.000000000000000104e-04,-1.800000000000000113e-04,-4.000000000000000327e-05,-1.300000000000000157e-04,4.000000000000000000e+00,1.900000000000000000e+01
4.260700000000000000e+04,-1.699999999999999851e-04,5.000000000000000240e-05,6.999999999999999387e-05,-1.600000000000000131e-04,-5.000000000000000104e-04,-1.800000000000000113e-04,-4.000000000000000327e-05,-1.300000000000000157e-04,4.000000000000000000e+00,1.900000000000000000e+01
4.260800000000000000e+04,-1.699999999999999851e-04,5.000000000000000240e-05,6.999999999999999387e-05,-1.600000000000000131e-04,-5.000000000000000104e-04,-1.800000000000000113e-04,-4.000000000000000327e-05,-1.300000000000000157e-04,4.000000000000000000e+00,1.900000000000000000e+01
4.260900000000000000e+04,-1.699999999999999851e-04,5.000000000000000240e-05,6.999999999999999387e-05,-1.600000000000000131e-04,-5.000000000000000104e-04,-1.800000000000000113e-04,-4.000000000000000327e-05,-1.300000000000000157e-04,4.000000000000000000e+00,1.900000000000000000e+01
4.261000000000000000e+04,-1.699999999999999851e-04,5.000000000000000240e-05,6.999999999999999387e-05,-1.600000000000000131e-04,-5.000000000000000104e-04,-1.800000000000000113e-04,-4.000000000000000327e-05,-1.300000000000000157e-04,4.000000000000000000e+00,1.900000000000000000e+01
4.261100000000000000e+04,-1.699999999999999851e-04,5.000000000000000240e-05,6.999999999999999387e-05,-1.600000000000000131e-04,-5.000000000000000104e-04,-1.800000000000000113e-04,-4.000000000000000327e-05,-1.300000000000000157e-04,4.000000000000000000e+00,1.900000000000000000e+01
4.261200000000000000e+04,1.000000000000000048e-04,9.000000000000000567e-05,2.000000000000000164e-05,-3.399999999999999702e-04,-8.000000000000000654e-05,8.000000000000000654e-05,5.999999999999999474e-05,2.000000000000000164e-05,4.000000000000000000e+00,1.900000000000000000e+01
4.261300000000000000e+04,1.000000000000000048e-04,9.000000000000000567e-05,2.000000000000000164e-05,-3.399999999999999702e-04,-8.000000000000000654e-05,8.000000000000000654e-05,5.999999999999999474e-05,2.000000000000000164e-05,4.000000000000000000e+00,1.900000000000000000e+01
4.261400000000000000e+04,1.000000000000000048e-04,9.000000000000000567e-05,2.000000000000000164e-05,-3.399999999999999702e-04,-8.000000000000000654e-05,8.000000000000000654e-05,5.999999999999999474e-05,2.000000000000000164e-05,4.000000000000000000e+00,1.900000000000000000e+01
4.261500000000000000e+04,1.000000000000000048e-04,9.000000000000000567e-05,2.000000000000000164e-05,-3.399999999999999702e-04,-8.000000000000000654e-05,8.000000000000000654e-05,5.999999999999999474e-05,2.000000000000000164e-05,4.000000000000000000e+00,1.900000000000000000e+01
4.261600000000000000e+04,1.000000000000000048e-04,9.000000000000000567e-05,2.000000000000000164e-05,-3.399999999999999702e-04,-8.000000000000000654e-05,8.000000000000000654e-05,5.999999999999999474e-05,2.000000000000000164e-05,4.000000000000000000e+00,1.900000000000000000e+01
4.261700000000000000e+04,1.000000000000000048e-04,9.000000000000000567e-05,2.000000000000000164e-05,-3.399999999999999702e-04,-8.000000000000000654e-05,8.000000000000000654e-05,5.999999999999999474e-05,2.000000000000000164e-05,4.000000000000000000e+00,1.900000000000000000e+01
4.261800000000000000e+04,1.000000000000000048e-04,9.000000000000000567e-05,2.000000000000000164e-05,-3.399999999999999702e-04,-8.000000000000000654e-05,8.000000000000000654e-05,5.999999999999999474e-05,2.000000000000000164e-05,4.000000000000000000e+00,1.900000000000000000e+01
4.261900000000000000e+04,1.000000000000000048e-04,9.000000000000000567e-05,2.000000000000000164e-05,-3.399999999999999702e-04,-8.000000000000000654e-05,8.000000000000000654e-05,5.999999999999999474e-05,2.000000000000000164e-05,4.000000000000000000e+00,1.900000000000000000e+01
4.262000000000000000e+04,1.000000000000000048e-04,9.000000000000000567e-05,2.000000000000000164e-05,-3.399999999999999702e-04,-8.000000000000000654e-05,8.000000000000000654e-05,5.999999999999999474e-05,2.000000000000000164e-05,4.000000000000000000e+00,1.900000000000000000e+01
4.262100000000000000e+04,1.000000000000000048e-04,9.000000000000000567e-05,2.000000000000000164e-05,-3.399999999999999702e-04,-8.000000000000000654e-05,8.000000000000000654e-05,5.999999999999999474e-05,2.000000000000000164e-05,4.000000000000000000e+00,1.900000000000000000e+01
4.262200000000000000e+04,1.000000000000000048e-04,9.000000000000000567e-05,2.000000000000000164e-05,-3.399999999999999702e-04,-8.000000000000000654e-05,8.000000000000000654e-05,5.999999999999999474e-05,2.000000000000000164e-05,4.000000000000000000e+00,1.900000000000000000e+01
4.262300000000000000e+04,1.000000000000000048e-04,9.000000000000000567e-05,2.000000000000000164e-05,-3.399999999999999702e-04,-8.000000000000000654e-05,8.000000000000000654e-05,5.999999999999999474e-05,2.000000000000000164e-05,4.000000000000000000e+00,1.900000000000000000e+01
4.262400000000000000e+04,1.000000000000000048e-04,9.000000000000000567e-05,2.000000000000000164e-05,-3.399999999999999702e-04,-8.000000000000000654e-05,8.000000000000000654e-05,5.999999999999999474e-05,2.000000000000000164e-05,4.000000000000000000e+00,1.900000000000000000e+01
4.262500000000000000e+04,1.000000000000000048e-04,9.000000000000000567e-05,2.000000000000000164e-05,-3.399999999999999702e-04,-8.000000000000000654e-05,8.000000000000000654e-05,5.999999999999999474e-05,2.000000000000000164e-05,4.000000000000000000e+00,1.900000000000000000e+01
4.262600000000000000e+04,-5.999999999999999474e-05,-1.100000000000000039e-04,-4.000000000000000327e-05,-3.699999999999999947e-04,-1.699999999999999851e-04,-1.499999999999999869e-04,-5.999999999999999474e-05,-2.200000000000000078e-04,4.000000000000000000e+00,1.900000000000000000e+01
4.262700000000000000e+04,-1.699999999999999851e-04,-3.899999999999999929e-04,-4.099999999999999912e-04,-2.399999999999999790e-04,-9.100000000000000016e-04,-6.900000000000000751e-04,-2.500000000000000052e-04,-1.699999999999999851e-04,4.000000000000000000e+00,1.900000000000000000e+01
4.262800000000000000e+04,-1.699999999999999851e-04,-3.899999999999999929e-04,-4.099999999999999912e-04,-2.399999999999999790e-04,-9.100000000000000016e-04,-6.900000000000000751e-04,-2.500000000000000052e-04,-1.699999999999999851e-04,4.000000000000000000e+00,1.900000000000000000e+01
4.262900000000000000e+04,-1.699999999999999851e-04,-3.899999999999999929e-04,-4.099999999999999912e-04,-2.399999999999999790e-04,-9.100000000000000016e-04,-6.900000000000000751e-04,-2.500000000000000052e-04,-1.699999999999999851e-04,4.000000000000000000e+00,1.900000000000000000e+01
4.263000000000000000e+04,-1.699999999999999851e-04,-3.899999999999999929e-04,-4.099999999999999912e-04,-2.399999999999999790e-04,-9.100000000000000016e-04,-6.900000000000000751e-04,-2.500000000000000052e-04,-1.699999999999999851e-04,4.000000000000000000e+00,1.900000000000000000e+01
4.263100000000000000e+04,-1.699999999999999851e-04,-3.899999999999999929e-04,-4.099999999999999912e-04,-2.399999999999999790e-04,-9.100000000000000016e-04,-6.900000000000000751e-04,-2.500000000000000052e-04,-1.699999999999999851e-04,4.000000000000000000e+00,1.900000000000000000e+01
4.263200000000000000e+04,-1.699999999999999851e-04,-3.899999999999999929e-04,-4.099999999999999912e-04,-2.399999999999999790e-04,-9.100000000000000016e-04,-6.900000000000000751e-04,-2.500000000000000052e-04,-1.699999999999999851e-04,4.000000000000000000e+00,1.900000000000000000e+01
4.263300000000000000e+04,-1.699999999999999851e-04,-3.899999999999999929e-04,-4.099999999999999912e-04,-2.399999999999999790e-04,-9.100000000000000016e-04,-6.900000000000000751e-04,-2.500000000000000052e-04,-1.699999999999999851e-04,4.000000000000000000e+00,1.900000000000000000e+01
4.263400000000000000e+04,-1.699999999999999851e-04,-3.899999999999999929e-04,-4.099999999999999912e-04,-2.399999999999999790e-04,-9.100000000000000016e-04,-6.900000000000000751e-04,-2.500000000000000052e-04,-1.699999999999999851e-04,4.000000000000000000e+00,1.900000000000000000e+01
4.263500000000000000e+04,-1.699999999999999851e-04,-3.899999999999999929e-04,-4.099999999999999912e-04,-2.399999999999999790e-04,-9.100000000000000016e-04,-6.900000000000000751e-04,-2.500000000000000052e-04,-1.699999999999999851e-04,4.000000000000000000e+00,1.900000000000000000e+01
4.263600000000000000e+04,-1.699999999999999851e-04,-3.899999999999999929e-04,-4.099999999999999912e-04,-2.399999999999999790e-04,-9.100000000000000016e-04,-6.900000000000000751e-04,-2.500000000000000052e-04,-1.699999999999999851e-04,4.000000000000000000e+00,1.900000000000000000e+01
4.263800000000000000e+04,-1.699999999999999851e-04,-3.899999999999999929e-04,-4.099999999999999912e-04,-2.399999999999999790e-04,-9.100000000000000016e-04,-6.900000000000000751e-04,-2.500000000000000052e-04,-1.699999999999999851e-04,4.000000000000000000e+00,1.900000000000000000e+01
4.263900000000000000e+04,-1.699999999999999851e-04,-3.899999999999999929e-04,-4.099999999999999912e-04,-2.399999999999999790e-04,-9.100000000000000016e-04,-6.900000000000000751e-04,-2.500000000000000052e-04,-1.699999999999999851e-04,4.000000000000000000e+00,1.900000000000000000e+01
4.264000000000000000e+04,-1.699999999999999851e-04,-3.899999999999999929e-04,-4.099999999999999912e-04,-2.399999999999999790e-04,-9.100000000000000016e-04,-6.900000000000000751e-04,-2.500000000000000052e-04,-1.699999999999999851e-04,4.000000000000000000e+00,1.900000000000000000e+01
4.264100000000000000e+04,-1.699999999999999851e-04,-3.899999999999999929e-04,-4.099999999999999912e-04,-2.399999999999999790e-04,-9.100000000000000016e-04,-6.900000000000000751e-04,-2.500000000000000052e-04,-1.699999999999999851e-04,4.000000000000000000e+00,1.900000000000000000e+01
4.264200000000000000e+04,-1.699999999999999851e-04,-3.899999999999999929e-04,-4.099999999999999912e-04,-2.399999999999999790e-04,-9.100000000000000016e-04,-6.900000000000000751e-04,-2.500000000000000052e-04,-1.699999999999999851e-04,4.000000000000000000e+00,1.900000000000000000e+01
4.264300000000000000e+04,-1.699999999999999851e-04,-3.899999999999999929e-04,-4.099999999999999912e-04,-2.399999999999999790e-04,-9.100000000000000016e-04,-6.900000000000000751e-04,-2.500000000000000052e-04,-1.699999999999999851e-04,4.000000000000000000e+00,1.900000000000000000e+01
4.264400000000000000e+04,-1.699999999999999851e-04,-3.899999999999999929e-04,-4.099999999999999912e-04,-2.399999999999999790e-04,-9.100000000000000016e-04,-6.900000000000000751e-04,-2.500000000000000052e-04,-1.699999999999999851e-04,4.000000000000000000e+00,1.900000000000000000e+01
4.264500000000000000e+04,-1.699999999999999851e-04,-3.899999999999999929e-04,-4.099999999999999912e-04,-2.399999999999999790e-04,-9.100000000000000016e-04,-6.900000000000000751e-04,-2.500000000000000052e-04,-1.699999999999999851e-04,4.000000000000000000e+00,1.900000000000000000e+01
4.264600000000000000e+04,-1.699999999999999851e-04,-3.899999999999999929e-04,-4.099999999999999912e-04,-2.399999999999999790e-04,-9.100000000000000016e-04,-6.900000000000000751e-04,-2.500000000000000052e-04,-1.699999999999999851e-04,4.000000000000000000e+00,1.900000000000000000e+01
4.264700000000000000e+04,-1.699999999999999851e-04,-3.899999999999999929e-04,-4.099999999999999912e-04,-2.399999999999999790e-04,-9.100000000000000016e-04,-6.900000000000000751e-04,-2.500000000000000052e-04,-1.699999999999999851e-04,4.000000000000000000e+00,1.900000000000000000e+01
4.264800000000000000e+04,-1.699999999999999851e-04,-3.899999999999999929e-04,-4.099999999999999912e-04,-2.399999999999999790e-04,-9.100000000000000016e-04,-6.900000000000000751e-04,-2.500000000000000052e-04,-1.699999999999999851e-04,4.000000000000000000e+00,1.900000000000000000e+01
4.264900000000000000e+04,2.000000000000000164e-05,1.000000000000000048e-04,1.499999999999999869e-04,7.500000000000000156e-04,-3.699999999999999947e-04,-2.900000000000000017e-04,-2.100000000000000087e-04,-2.900000000000000017e-04,4.000000000000000000e+00,1.900000000000000000e+01
4.265000000000000000e+04,8.000000000000000654e-05,-5.000000000000000240e-05,-1.600000000000000131e-04,-3.799999999999999667e-04,1.000000000000000082e-05,8.000000000000000654e-05,-1.300000000000000157e-04,-6.999999999999999387e-05,4.000000000000000000e+00,1.900000000000000000e+01
4.265100000000000000e+04,8.000000000000000654e-05,-5.000000000000000240e-05,-1.600000000000000131e-04,-3.799999999999999667e-04,1.000000000000000082e-05,8.000000000000000654e-05,-1.300000000000000157e-04,-6.999999999999999387e-05,4.000000000000000000e+00,1.900000000000000000e+01
4.265200000000000000e+04,8.000000000000000654e-05,-5.000000000000000240e-05,-1.600000000000000131e-04,-3.799999999999999667e-04,1.000000000000000082e-05,8.000000000000000654e-05,-1.300000000000000157e-04,-6.999999999999999387e-05,4.000000000000000000e+00,1.900000000000000000e+01
4.265300000000000000e+04,8.000000000000000654e-05,-5.000000000000000240e-05,-1.600000000000000131e-04,-3.799999999999999667e-04,1.000000000000000082e-05,8.000000000000000654e-05,-1.300000000000000157e-04,-6.999999999999999387e-05,4.000000000000000000e+00,1.900000000000000000e+01
4.265400000000000000e+04,8.000000000000000654e-05,-5.000000000000000240e-05,-1.600000000000000131e-04,-3.799999999999999667e-04,1.000000000000000082e-05,8.000000000000000654e-05,-1.300000000000000157e-04,-6.999999999999999387e-05,4.000000000000000000e+00,1.900000000000000000e+01
4.265500000000000000e+04,8.000000000000000654e-05,-5.000000000000000240e-05,-1.600000000000000131e-04,-3.799999999999999667e-04,1.000000000000000082e-05,8.000000000000000654e-05,-1.300000000000000157e-04,-6.999999999999999387e-05,4.000000000000000000e+00,1.900000000000000000e+01
4.265600000000000000e+04,8.000000000000000654e-05,-5.000000000000000240e-05,-1.600000000000000131e-04,-3.799999999999999667e-04,1.000000000000000082e-05,8.000000000000000654e-05,-1.300000000000000157e-04,-6.999999999999999387e-05,4.000000000000000000e+00,1.900000000000000000e+01
4.265700000000000000e+04,8.000000000000000654e-05,-5.000000000000000240e-05,-1.600000000000000131e-04,-3.799999999999999667e-04,1.000000000000000082e-05,8.000000000000000654e-05,-1.300000000000000157e-04,-6.999999999999999387e-05,4.000000000000000000e+00,1.900000000000000000e+01
4.265800000000000000e+04,8.000000000000000654e-05,-5.000000000000000240e-05,-1.600000000000000131e-04,-3.799999999999999667e-04,1.000000000000000082e-05,8.000000000000000654e-05,-1.300000000000000157e-04,-6.999999999999999387e-05,4.000000000000000000e+00,1.900000000000000000e+01
4.265900000000000000e+04,8.000000000000000654e-05,-5.000000000000000240e-05,-1.600000000000000131e-04,-3.799999999999999667e-04,1.000000000000000082e-05,8.000000000000000654e-05,-1.300000000000000157e-04,-6.999999999999999387e-05,4.000000000000000000e+00,1.900000000000000000e+01
4.266000000000000000e+04,8.000000000000000654e-05,-5.000000000000000240e-05,-1.600000000000000131e-04,-3.799999999999999667e-04,1.000000000000000082e-05,8.000000000000000654e-05,-1.300000000000000157e-04,-6.999999999999999387e-05,4.000000000000000000e+00,1.900000000000000000e+01
4.266100000000000000e+04,8.000000000000000654e-05,-5.000000000000000240e-05,-1.600000000000000131e-04,-3.799999999999999667e-04,1.000000000000000082e-05,8.000000000000000654e-05,-1.300000000000000157e-04,-6.999999999999999387e-05,4.000000000000000000e+00,1.900000000000000000e+01
4.266200000000000000e+04,8.000000000000000654e-05,-5.000000000000000240e-05,-1.600000000000000131e-04,-3.799999999999999667e-04,1.000000000000000082e-05,8.000000000000000654e-05,-1.300000000000000157e-04,-6.999999999999999387e-05,4.000000000000000000e+00,1.900000000000000000e+01
4.266300000000000000e+04,8.000000000000000654e-05,-5.000000000000000240e-05,-1.600000000000000131e-04,-3.799999999999999667e-04,1.000000000000000082e-05,8.000000000000000654e-05,-1.300000000000000157e-04,-6.999999999999999387e-05,4.000000000000000000e+00,1.900000000000000000e+01
4.266400000000000000e+04,-2.200000000000000078e-04,-4.099999999999999912e-04,-5.599999999999999509e-04,-1.090000000000000040e-03,-3.600000000000000227e-04,-1.600000000000000131e-04,-1.100000000000000039e-04,-1.000000000000000082e-05,4.000000000000000000e+00,1.900000000000000000e+01
4.266500000000000000e+04,-2.200000000000000078e-04,-4.099999999999999912e-04,-5.599999999999999509e-04,-1.090000000000000040e-03,-3.600000000000000227e-04,-1.600000000000000131e-04,-1.100000000000000039e-04,-1.000000000000000082e-05,4.000000000000000000e+00,1.900000000000000000e+01
4.266600000000000000e+04,-2.200000000000000078e-04,-4.099999999999999912e-04,-5.599999999999999509e-04,-1.090000000000000040e-03,-3.600000000000000227e-04,-1.600000000000000131e-04,-1.100000000000000039e-04,-1.000000000000000082e-05,4.000000000000000000e+00,1.900000000000000000e+01
4.266700000000000000e+04,-2.200000000000000078e-04,-4.099999999999999912e-04,-5.599999999999999509e-04,-1.090000000000000040e-03,-3.600000000000000227e-04,-1.600000000000000131e-04,-1.100000000000000039e-04,-1.000000000000000082e-05,4.000000000000000000e+00,1.900000000000000000e+01
4.266800000000000000e+04,-2.200000000000000078e-04,-4.099999999999999912e-04,-5.599999999999999509e-04,-1.090000000000000040e-03,-3.600000000000000227e-04,-1.600000000000000131e-04,-1.100000000000000039e-04,-1.000000000000000082e-05,4.000000000000000000e+00,1.900000000000000000e+01
4.266900000000000000e+04,-2.200000000000000078e-04,-4.099999999999999912e-04,-5.599999999999999509e-04,-1.090000000000000040e-03,-3.600000000000000227e-04,-1.600000000000000131e-04,-1.100000000000000039e-04,-1.000000000000000082e-05,4.000000000000000000e+00,1.900000000000000000e+01
4.267000000000000000e+04,6.999999999999999387e-05,1.399999999999999877e-04,5.999999999999999474e-05,-3.499999999999999964e-04,2.999999999999999737e-05,2.500000000000000052e-04,4.000000000000000327e-05,1.300000000000000157e-04,4.000000000000000000e+00,1.900000000000000000e+01
4.267100000000000000e+04,6.999999999999999387e-05,1.399999999999999877e-04,5.999999999999999474e-05,-3.499999999999999964e-04,2.999999999999999737e-05,2.500000000000000052e-04,4.000000000000000327e-05,1.300000000000000157e-04,4.000000000000000000e+00,1.900000000000000000e+01
4.267200000000000000e+04,6.999999999999999387e-05,1.399999999999999877e-04,5.999999999999999474e-05,-3.499999999999999964e-04,2.999999999999999737e-05,2.500000000000000052e-04,4.000000000000000327e-05,1.300000000000000157e-04,4.000000000000000000e+00,1.900000000000000000e+01
4.267300000000000000e+04,6.999999999999999387e-05,1.399999999999999877e-04,5.999999999999999474e-05,-3.499999999999999964e-04,2.999999999999999737e-05,2.500000000000000052e-04,4.000000000000000327e-05,1.300000000000000157e-04,4.000000000000000000e+00,1.900000000000000000e+01
4.267400000000000000e+04,6.999999999999999387e-05,1.399999999999999877e-04,5.999999999999999474e-05,-3.499999999999999964e-04,2.999999999999999737e-05,2.500000000000000052e-04,4.000000000000000327e-05,1.300000000000000157e-04,4.000000000000000000e+00,1.900000000000000000e+01
4.267500000000000000e+04,6.999999999999999387e-05,1.399999999999999877e-04,5.999999999999999474e-05,-3.499999999999999964e-04,2.999999999999999737e-05,2.500000000000000052e-04,4.000000000000000327e-05,1.300000000000000157e-04,4.000000000000000000e+00,1.900000000000000000e+01
4.267600000000000000e+04,6.999999999999999387e-05,1.399999999999999877e-04,5.999999999999999474e-05,-3.499999999999999964e-04,2.999999999999999737e-05,2.500000000000000052e-04,4.000000000000000327e-05,1.300000000000000157e-04,4.000000000000000000e+00,1.900000000000000000e+01
4.267700000000000000e+04,6.999999999999999387e-05,1.399999999999999877e-04,5.999999999999999474e-05,-3.499999999999999964e-04,2.999999999999999737e-05,2.500000000000000052e-04,4.000000000000000327e-05,1.300000000000000157e-04,4.000000000000000000e+00,1.900000000000000000e+01
4.267800000000000000e+04,6.999999999999999387e-05,1.399999999999999877e-04,5.999999999999999474e-05,-3.499999999999999964e-04,2.999999999999999737e-05,2.500000000000000052e-04,4.000000000000000327e-05,1.300000000000000157e-04,4.000000000000000000e+00,1.900000000000000000e+01
4.267900000000000000e+04,6.999999999999999387e-05,1.399999999999999877e-04,5.999999999999999474e-05,-3.499999999999999964e-04,2.999999999999999737e-05,2.500000000000000052e-04,4.000000000000000327e-05,1.300000000000000157e-04,4.000000000000000000e+00,1.900000000000000000e+01
4.268000000000000000e+04,6.999999999999999387e-05,1.399999999999999877e-04,5.999999999999999474e-05,-3.499999999999999964e-04,2.999999999999999737e-05,2.500000000000000052e-04,4.000000000000000327e-05,1.300000000000000157e-04,4.000000000000000000e+00,1.900000000000000000e+01
4.268100000000000000e+04,6.999999999999999387e-05,1.399999999999999877e-04,5.999999999999999474e-05,-3.499999999999999964e-04,2.999999999999999737e-05,2.500000000000000052e-04,4.000000000000000327e-05,1.300000000000000157e-04,4.000000000000000000e+00,1.900000000000000000e+01
4.268200000000000000e+04,6.999999999999999387e-05,1.399999999999999877e-04,5.999999999999999474e-05,-3.499999999999999964e-04,2.999999999999999737e-05,2.500000000000000052e-04,4.000000000000000327e-05,1.300000000000000157e-04,4.000000000000000000e+00,1.900000000000000000e+01
4.268300000000000000e+04,6.999999999999999387e-05,1.399999999999999877e-04,5.999999999999999474e-05,-3.499999999999999964e-04,2.999999999999999737e-05,2.500000000000000052e-04,4.000000000000000327e-05,1.300000000000000157e-04,4.000000000000000000e+00,1.900000000000000000e+01
4.268400000000000000e+04,6.999999999999999387e-05,1.399999999999999877e-04,5.999999999999999474e-05,-3.499999999999999964e-04,2.999999999999999737e-05,2.500000000000000052e-04,4.000000000000000327e-05,1.300000000000000157e-04,4.000000000000000000e+00,1.900000000000000000e+01
4.268500000000000000e+04,6.999999999999999387e-05,1.399999999999999877e-04,5.999999999999999474e-05,-3.499999999999999964e-04,2.999999999999999737e-05,2.500000000000000052e-04,4.000000000000000327e-05,1.300000000000000157e-04,4.000000000000000000e+00,1.900000000000000000e+01
4.268600000000000000e+04,2.999999999999999737e-05,4.000000000000000327e-05,-1.000000000000000048e-04,-1.800000000000000113e-04,-3.399999999999999702e-04,1.000000000000000082e-05,5.999999999999999474e-05,8.000000000000000654e-05,4.000000000000000000e+00,1.900000000000000000e+01
4.268800000000000000e+04,8.000000000000000654e-05,5.999999999999999474e-05,5.999999999999999474e-05,4.899999999999999842e-04,7.700000000000000681e-04,1.699999999999999851e-04,8.000000000000000654e-05,1.399999999999999877e-04,4.000000000000000000e+00,1.900000000000000000e+01
4.268900000000000000e+04,8.000000000000000654e-05,5.999999999999999474e-05,5.999999999999999474e-05,4.899999999999999842e-04,7.700000000000000681e-04,1.699999999999999851e-04,8.000000000000000654e-05,1.399999999999999877e-04,4.000000000000000000e+00,1.900000000000000000e+01
4.269000000000000000e+04,8.000000000000000654e-05,5.999999999999999474e-05,5.999999999999999474e-05,4.899999999999999842e-04,7.700000000000000681e-04,1.699999999999999851e-04,8.000000000000000654e-05,1.399999999999999877e-04,4.000000000000000000e+00,1.900000000000000000e+01
4.269100000000000000e+04,8.000000000000000654e-05,5.999999999999999474e-05,5.999999999999999474e-05,4.899999999999999842e-04,7.700000000000000681e-04,1.699999999999999851e-04,8.000000000000000654e-05,1.399999999999999877e-04,4.000000000000000000e+00,1.900000000000000000e+01
4.269200000000000000e+04,8.000000000000000654e-05,5.999999999999999474e-05,5.999999999999999474e-05,4.899999999999999842e-04,7.700000000000000681e-04,1.699999999999999851e-04,8.000000000000000654e-05,1.399999999999999877e-04,4.000000000000000000e+00,1.900000000000000000e+01
4.269300000000000000e+04,8.000000000000000654e-05,5.999999999999999474e-05,5.999999999999999474e-05,4.899999999999999842e-04,7.700000000000000681e-04,1.699999999999999851e-04,8.000000000000000654e-05,1.399999999999999877e-04,4.000000000000000000e+00,1.900000000000000000e+01
4.269400000000000000e+04,8.000000000000000654e-05,5.999999999999999474e-05,5.999999999999999474e-05,4.899999999999999842e-04,7.700000000000000681e-04,1.699999999999999851e-04,8.000000000000000654e-05,1.399999999999999877e-04,4.000000000000000000e+00,1.900000000000000000e+01
4.269500000000000000e+04,8.000000000000000654e-05,5.999999999999999474e-05,5.999999999999999474e-05,4.899999999999999842e-04,7.700000000000000681e-04,1.699999999999999851e-04,8.000000000000000654e-05,1.399999999999999877e-04,4.000000000000000000e+00,1.900000000000000000e+01
4.269600000000000000e+04,8.000000000000000654e-05,5.999999999999999474e-05,5.999999999999999474e-05,4.899999999999999842e-04,7.700000000000000681e-04,1.699999999999999851e-04,8.000000000000000654e-05,1.399999999999999877e-04,4.000000000000000000e+00,1.900000000000000000e+01
4.269700000000000000e+04,8.000000000000000654e-05,5.999999999999999474e-05,5.999999999999999474e-05,4.899999999999999842e-04,7.700000000000000681e-04,1.699999999999999851e-04,8.000000000000000654e-05,1.399999999999999877e-04,4.000000000000000000e+00,1.900000000000000000e+01
4.269800000000000000e+04,8.000000000000000654e-05,5.999999999999999474e-05,5.999999999999999474e-05,4.899999999999999842e-04,7.700000000000000681e-04,1.699999999999999851e-04,8.000000000000000654e-05,1.399999999999999877e-04,4.000000000000000000e+00,1.900000000000000000e+01
4.269900000000000000e+04,8.000000000000000654e-05,5.999999999999999474e-05,5.999999999999999474e-05,4.899999999999999842e-04,7.700000000000000681e-04,1.699999999999999851e-04,8.000000000000000654e-05,1.399999999999999877e-04,4.000000000000000000e+00,1.900000000000000000e+01
4.270000000000000000e+04,8.000000000000000654e-05,5.999999999999999474e-05,5.999999999999999474e-05,4.899999999999999842e-04,7.700000000000000681e-04,1.699999999999999851e-04,8.000000000000000654e-05,1.399999999999999877e-04,4.000000000000000000e+00,1.900000000000000000e+01
4.270100000000000000e+04,8.000000000000000654e-05,5.999999999999999474e-05,5.999999999999999474e-05,4.899999999999999842e-04,7.700000000000000681e-04,1.699999999999999851e-04,8.000000000000000654e-05,1.399999999999999877e-04,4.000000000000000000e+00,1.900000000000000000e+01
4.270200000000000000e+04,8.000000000000000654e-05,5.999999999999999474e-05,5.999999999999999474e-05,4.899999999999999842e-04,7.700000000000000681e-04,1.699999999999999851e-04,8.000000000000000654e-05,1.399999999999999877e-04,4.000000000000000000e+00,1.900000000000000000e+01
4.270300000000000000e+04,8.000000000000000654e-05,5.999999999999999474e-05,5.999999999999999474e-05,4.899999999999999842e-04,7.700000000000000681e-04,1.699999999999999851e-04,8.000000000000000654e-05,1.399999999999999877e-04,4.000000000000000000e+00,1.900000000000000000e+01
4.270400000000000000e+04,8.000000000000000654e-05,5.999999999999999474e-05,5.999999999999999474e-05,4.899999999999999842e-04,7.700000000000000681e-04,1.699999999999999851e-04,8.000000000000000654e-05,1.399999999999999877e-04,4.000000000000000000e+00,1.900000000000000000e+01
4.270500000000000000e+04,8.000000000000000654e-05,5.999999999999999474e-05,5.999999999999999474e-05,4.899999999999999842e-04,7.700000000000000681e-04,1.699999999999999851e-04,8.000000000000000654e-05,1.399999999999999877e-04,4.000000000000000000e+00,1.900000000000000000e+01
4.270600000000000000e+04,8.000000000000000654e-05,5.999999999999999474e-05,5.999999999999999474e-05,4.899999999999999842e-04,7.700000000000000681e-04,1.699999999999999851e-04,8.000000000000000654e-05,1.399999999999999877e-04,4.000000000000000000e+00,1.900000000000000000e+01
4.270700000000000000e+04,8.000000000000000654e-05,5.999999999999999474e-05,5.999999999999999474e-05,4.899999999999999842e-04,7.700000000000000681e-04,1.699999999999999851e-04,8.000000000000000654e-05,1.399999999999999877e-04,4.000000000000000000e+00,1.900000000000000000e+01
4.270800000000000000e+04,8.000000000000000654e-05,5.999999999999999474e-05,5.999999999999999474e-05,4.899999999999999842e-04,7.700000000000000681e-04,1.699999999999999851e-04,8.000000000000000654e-05,1.399999999999999877e-04,4.000000000000000000e+00,1.900000000000000000e+01
4.270900000000000000e+04,5.000000000000000240e-05,5.999999999999999474e-05,1.300000000000000157e-04,5.200000000000000629e-04,7.200000000000000453e-04,-2.100000000000000087e-04,-1.499999999999999869e-04,5.999999999999999474e-05,4.000000000000000000e+00,1.900000000000000000e+01
4.271000000000000000e+04,2.000000000000000164e-05,5.000000000000000240e-05,1.300000000000000157e-04,3.099999999999999999e-04,-5.400000000000000069e-04,-2.299999999999999799e-04,-1.000000000000000048e-04,4.000000000000000327e-05,4.000000000000000000e+00,1.900000000000000000e+01
4.271100000000000000e+04,2.000000000000000164e-05,5.000000000000000240e-05,1.300000000000000157e-04,3.099999999999999999e-04,-5.400000000000000069e-04,-2.299999999999999799e-04,-1.000000000000000048e-04,4.000000000000000327e-05,4.000000000000000000e+00,1.900000000000000000e+01
4.271200000000000000e+04,2.000000000000000164e-05,5.000000000000000240e-05,1.300000000000000157e-04,3.099999999999999999e-04,-5.400000000000000069e-04,-2.299999999999999799e-04,-1.000000000000000048e-04,4.000000000000000327e-05,4.000000000000000000e+00,1.900000000000000000e+01
4.271300000000000000e+04,2.000000000000000164e-05,5.000000000000000240e-05,1.300000000000000157e-04,3.099999999999999999e-04,-5.400000000000000069e-04,-2.299999999999999799e-04,-1.000000000000000048e-04,4.000000000000000327e-05,4.000000000000000000e+00,1.900000000000000000e+01
4.271400000000000000e+04,2.000000000000000164e-05,5.000000000000000240e-05,1.300000000000000157e-04,3.099999999999999999e-04,-5.400000000000000069e-04,-2.299999999999999799e-04,-1.000000000000000048e-04,4.000000000000000327e-05,4.000000000000000000e+00,1.900000000000000000e+01
4.271500000000000000e+04,2.000000000000000164e-05,5.000000000000000240e-05,1.300000000000000157e-04,3.099999999999999999e-04,-5.400000000000000069e-04,-2.299999999999999799e-04,-1.000000000000000048e-04,4.000000000000000327e-05,4.000000000000000000e+00,1.900000000000000000e+01
4.271600000000000000e+04,2.000000000000000164e-05,5.000000000000000240e-05,1.300000000000000157e-04,3.099999999999999999e-04,-5.400000000000000069e-04,-2.299999999999999799e-04,-1.000000000000000048e-04,4.000000000000000327e-05,4.000000000000000000e+00,1.900000000000000000e+01
4.271700000000000000e+04,2.000000000000000164e-05,5.000000000000000240e-05,1.300000000000000157e-04,3.099999999999999999e-04,-5.400000000000000069e-04,-2.299999999999999799e-04,-1.000000000000000048e-04,4.000000000000000327e-05,4.000000000000000000e+00,1.900000000000000000e+01
4.271800000000000000e+04,2.000000000000000164e-05,5.000000000000000240e-05,1.300000000000000157e-04,3.099999999999999999e-04,-5.400000000000000069e-04,-2.299999999999999799e-04,-1.000000000000000048e-04,4.000000000000000327e-05,4.000000000000000000e+00,1.900000000000000000e+01
4.271900000000000000e+04,2.000000000000000164e-05,5.000000000000000240e-05,1.300000000000000157e-04,3.099999999999999999e-04,-5.400000000000000069e-04,-2.299999999999999799e-04,-1.000000000000000048e-04,4.000000000000000327e-05,4.000000000000000000e+00,1.900000000000000000e+01
4.272000000000000000e+04,2.000000000000000164e-05,5.000000000000000240e-05,1.300000000000000157e-04,3.099999999999999999e-04,-5.400000000000000069e-04,-2.299999999999999799e-04,-1.000000000000000048e-04,4.000000000000000327e-05,4.000000000000000000e+00,1.900000000000000000e+01
4.272100000000000000e+04,2.000000000000000164e-05,5.000000000000000240e-05,1.300000000000000157e-04,3.099999999999999999e-04,-5.400000000000000069e-04,-2.299999999999999799e-04,-1.000000000000000048e-04,4.000000000000000327e-05,4.000000000000000000e+00,1.900000000000000000e+01
4.272200000000000000e+04,2.000000000000000164e-05,5.000000000000000240e-05,1.300000000000000157e-04,3.099999999999999999e-04,-5.400000000000000069e-04,-2.299999999999999799e-04,-1.000000000000000048e-04,4.000000000000000327e-05,4.000000000000000000e+00,1.900000000000000000e+01
4.272300000000000000e+04,2.000000000000000164e-05,5.000000000000000240e-05,1.300000000000000157e-04,3.099999999999999999e-04,-5.400000000000000069e-04,-2.299999999999999799e-04,-1.000000000000000048e-04,4.000000000000000327e-05,4.000000000000000000e+00,1.900000000000000000e+01
4.272400000000000000e+04,5.000000000000000240e-05,1.199999999999999895e-04,2.500000000000000052e-04,-8.000000000000000654e-05,2.999999999999999737e-05,2.299999999999999799e-04,1.699999999999999851e-04,2.200000000000000078e-04,4.000000000000000000e+00,1.900000000000000000e+01
4.272500000000000000e+04,5.000000000000000240e-05,1.199999999999999895e-04,2.500000000000000052e-04,-8.000000000000000654e-05,2.999999999999999737e-05,2.299999999999999799e-04,1.699999999999999851e-04,2.200000000000000078e-04,4.000000000000000000e+00,1.900000000000000000e+01
4.272600000000000000e+04,5.000000000000000240e-05,1.199999999999999895e-04,2.500000000000000052e-04,-8.000000000000000654e-05,2.999999999999999737e-05,2.299999999999999799e-04,1.699999999999999851e-04,2.200000000000000078e-04,4.000000000000000000e+00,1.900000000000000000e+01
4.272700000000000000e+04,5.000000000000000240e-05,1.199999999999999895e-04,2.500000000000000052e-04,-8.000000000000000654e-05,2.999999999999999737e-05,2.299999999999999799e-04,1.699999999999999851e-04,2.200000000000000078e-04,4.000000000000000000e+00,1.900000000000000000e+01
4.272800000000000000e+04,5.000000000000000240e-05,1.199999999999999895e-04,2.500000000000000052e-04,-8.000000000000000654e-05,2.999999999999999737e-05,2.299999999999999799e-04,1.699999999999999851e-04,2.200000000000000078e-04,4.000000000000000000e+00,1.900000000000000000e+01
4.272900000000000000e+04,5.000000000000000240e-05,1.199999999999999895e-04,2.500000000000000052e-04,-8.000000000000000654e-05,2.999999999999999737e-05,2.299999999999999799e-04,1.699999999999999851e-04,2.200000000000000078e-04,4.000000000000000000e+00,1.900000000000000000e+01
4.273000000000000000e+04,-4.000000000000000327e-05,-6.999999999999999387e-05,-2.000000000000000164e-05,-2.000000000000000096e-04,-2.900000000000000017e-04,-3.699999999999999947e-04,-1.499999999999999869e-04,-1.300000000000000157e-04,4.000000000000000000e+00,1.900000000000000000e+01
4.273100000000000000e+04,-4.000000000000000327e-05,-6.999999999999999387e-05,-2.000000000000000164e-05,-2.000000000000000096e-04,-2.900000000000000017e-04,-3.699999999999999947e-04,-1.499999999999999869e-04,-1.300000000000000157e-04,4.000000000000000000e+00,1.900000000000000000e+01
4.273200000000000000e+04,-4.000000000000000327e-05,-6.999999999999999387e-05,-2.000000000000000164e-05,-2.000000000000000096e-04,-2.900000000000000017e-04,-3.699999999999999947e-04,-1.499999999999999869e-04,-1.300000000000000157e-04,4.000000000000000000e+00,1.900000000000000000e+01
4.273300000000000000e+04,-4.000000000000000327e-05,-6.999999999999999387e-05,-2.000000000000000164e-05,-2.000000000000000096e-04,-2.900000000000000017e-04,-3.699999999999999947e-04,-1.499999999999999869e-04,-1.300000000000000157e-04,4.000000000000000000e+00,1.900000000000000000e+01
4.273400000000000000e+04,-4.000000000000000327e-05,-6.999999999999999387e-05,-2.000000000000000164e-05,-2.000000000000000096e-04,-2.900000000000000017e-04,-3.699999999999999947e-04,-1.499999999999999869e-04,-1.300000000000000157e-04,4.000000000000000000e+00,1.900000000000000000e+01
4.273500000000000000e+04,-4.000000000000000327e-05,-6.999999999999999387e-05,-2.000000000000000164e-05,-2.000000000000000096e-04,-2.900000000000000017e-04,-3.699999999999999947e-04,-1.499999999999999869e-04,-1.300000000000000157e-04,4.000000000000000000e+00,1.900000000000000000e+01
4.273600000000000000e+04,-4.000000000000000327e-05,-6.999999999999999387e-05,-2.000000000000000164e-05,-2.000000000000000096e-04,-2.900000000000000017e-04,-3.699999999999999947e-04,-1.499999999999999869e-04,-1.300000000000000157e-04,4.000000000000000000e+00,1.900000000000000000e+01
4.273800000000000000e+04,-4.000000000000000327e-05,-6.999999999999999387e-05,-2.000000000000000164e-05,-2.000000000000000096e-04,-2.900000000000000017e-04,-3.699999999999999947e-04,-1.499999999999999869e-04,-1.300000000000000157e-04,4.000000000000000000e+00,1.900000000000000000e+01
4.273900000000000000e+04,-4.000000000000000327e-05,-6.999999999999999387e-05,-2.000000000000000164e-05,-2.000000000000000096e-04,-2.900000000000000017e-04,-3.699999999999999947e-04,-1.499999999999999869e-04,-1.300000000000000157e-04,4.000000000000000000e+00,1.900000000000000000e+01
4.274000000000000000e+04,-4.000000000000000327e-05,-6.999999999999999387e-05,-2.000000000000000164e-05,-2.000000000000000096e-04,-2.900000000000000017e-04,-3.699999999999999947e-04,-1.499999999999999869e-04,-1.300000000000000157e-04,4.000000000000000000e+00,1.900000000000000000e+01
4.274100000000000000e+04,-4.000000000000000327e-05,-6.999999999999999387e-05,-2.000000000000000164e-05,-2.000000000000000096e-04,-2.900000000000000017e-04,-3.699999999999999947e-04,-1.499999999999999869e-04,-1.300000000000000157e-04,4.000000000000000000e+00,1.900000000000000000e+01
4.274200000000000000e+04,-4.000000000000000327e-05,-6.999999999999999387e-05,-2.000000000000000164e-05,-2.000000000000000096e-04,-2.900000000000000017e-04,-3.699999999999999947e-04,-1.499999999999999869e-04,-1.300000000000000157e-04,4.000000000000000000e+00,1.900000000000000000e+01
4.274300000000000000e+04,-4.000000000000000327e-05,-6.999999999999999387e-05,-2.000000000000000164e-05,-2.000000000000000096e-04,-2.900000000000000017e-04,-3.699999999999999947e-04,-1.499999999999999869e-04,-1.300000000000000157e-04,4.000000000000000000e+00,1.900000000000000000e+01
4.274400000000000000e+04,-4.000000000000000327e-05,-6.999999999999999387e-05,-2.000000000000000164e-05,-2.000000000000000096e-04,-2.900000000000000017e-04,-3.699999999999999947e-04,-1.499999999999999869e-04,-1.300000000000000157e-04,4.000000000000000000e+00,1.900000000000000000e+01
4.274500000000000000e+04,-4.000000000000000327e-05,-6.999999999999999387e-05,-2.000000000000000164e-05,-2.000000000000000096e-04,-2.900000000000000017e-04,-3.699999999999999947e-04,-1.499999999999999869e-04,-1.300000000000000157e-04,4.000000000000000000e+00,1.900000000000000000e+01
4.274600000000000000e+04,-4.000000000000000327e-05,-6.999999999999999387e-05,-2.000000000000000164e-05,-2.000000000000000096e-04,-2.900000000000000017e-04,-3.699999999999999947e-04,-1.499999999999999869e-04,-1.300000000000000157e-04,4.000000000000000000e+00,1.900000000000000000e+01
4.274700000000000000e+04,-4.000000000000000327e-05,-6.999999999999999387e-05,-2.000000000000000164e-05,-2.000000000000000096e-04,-2.900000000000000017e-04,-3.699999999999999947e-04,-1.499999999999999869e-04,-1.300000000000000157e-04,4.000000000000000000e+00,1.900000000000000000e+01
4.274800000000000000e+04,-4.000000000000000327e-05,-6.999999999999999387e-05,-2.000000000000000164e-05,-2.000000000000000096e-04,-2.900000000000000017e-04,-3.699999999999999947e-04,-1.499999999999999869e-04,-1.300000000000000157e-04,4.000000000000000000e+00,1.900000000000000000e+01
4.274900000000000000e+04,-4.000000000000000327e-05,-6.999999999999999387e-05,-2.000000000000000164e-05,-2.000000000000000096e-04,-2.900000000000000017e-04,-3.699999999999999947e-04,-1.499999999999999869e-04,-1.300000000000000157e-04,4.000000000000000000e+00,1.900000000000000000e+01
4.275000000000000000e+04,-4.000000000000000327e-05,-6.999999999999999387e-05,-2.000000000000000164e-05,-2.000000000000000096e-04,-2.900000000000000017e-04,-3.699999999999999947e-04,-1.499999999999999869e-04,-1.300000000000000157e-04,4.000000000000000000e+00,1.900000000000000000e+01
4.275100000000000000e+04,-4.000000000000000327e-05,-6.999999999999999387e-05,-2.000000000000000164e-05,-2.000000000000000096e-04,-2.900000000000000017e-04,-3.699999999999999947e-04,-1.499999999999999869e-04,-1.300000000000000157e-04,4.000000000000000000e+00,1.900000000000000000e+01
4.275200000000000000e+04,-4.000000000000000327e-05,-6.999999999999999387e-05,-2.000000000000000164e-05,-2.000000000000000096e-04,-2.900000000000000017e-04,-3.699999999999999947e-04,-1.499999999999999869e-04,-1.300000000000000157e-04,4.000000000000000000e+00,1.900000000000000000e+01
4.275300000000000000e+04,-4.000000000000000327e-05,-6.999999999999999387e-05,-2.000000000000000164e-05,-2.000000000000000096e-04,-2.900000000000000017e-04,-3.699999999999999947e-04,-1.499999999999999869e-04,-1.300000000000000157e-04,4.000000000000000000e+00,1.900000000000000000e+01
4.275400000000000000e+04,-4.000000000000000327e-05,-6.999999999999999387e-05,-2.000000000000000164e-05,-2.000000000000000096e-04,-2.900000000000000017e-04,-3.699999999999999947e-04,-1.499999999999999869e-04,-1.300000000000000157e-04,4.000000000000000000e+00,1.900000000000000000e+01
4.275500000000000000e+04,-4.000000000000000327e-05,-6.999999999999999387e-05,-2.000000000000000164e-05,-2.000000000000000096e-04,-2.900000000000000017e-04,-3.699999999999999947e-04,-1.499999999999999869e-04,-1.300000000000000157e-04,4.000000000000000000e+00,1.900000000000000000e+01
4.275600000000000000e+04,-4.000000000000000327e-05,-6.999999999999999387e-05,-2.000000000000000164e-05,-2.000000000000000096e-04,-2.900000000000000017e-04,-3.699999999999999947e-04,-1.499999999999999869e-04,-1.300000000000000157e-04,4.000000000000000000e+00,1.900000000000000000e+01
4.275700000000000000e+04,-4.000000000000000327e-05,-6.999999999999999387e-05,-2.000000000000000164e-05,-2.000000000000000096e-04,-2.900000000000000017e-04,-3.699999999999999947e-04,-1.499999999999999869e-04,-1.300000000000000157e-04,4.000000000000000000e+00,1.900000000000000000e+01
4.275800000000000000e+04,-4.000000000000000327e-05,-6.999999999999999387e-05,-2.000000000000000164e-05,-2.000000000000000096e-04,-2.900000000000000017e-04,-3.699999999999999947e-04,-1.499999999999999869e-04,-1.300000000000000157e-04,4.000000000000000000e+00,1.900000000000000000e+01
4.275900000000000000e+04,-4.000000000000000327e-05,-6.999999999999999387e-05,-2.000000000000000164e-05,-2.000000000000000096e-04,-2.900000000000000017e-04,-3.699999999999999947e-04,-1.499999999999999869e-04,-1.300000000000000157e-04,4.000000000000000000e+00,1.900000000000000000e+01
4.276000000000000000e+04,-4.000000000000000327e-05,-6.999999999999999387e-05,-2.000000000000000164e-05,-2.000000000000000096e-04,-2.900000000000000017e-04,-3.699999999999999947e-04,-1.499999999999999869e-04,-1.300000000000000157e-04,4.000000000000000000e+00,1.900000000000000000e+01
4.276100000000000000e+04,-1.199999999999999895e-04,-9.000000000000000567e-05,-1.800000000000000113e-04,-4.499999999999999877e-04,-1.499999999999999869e-04,-4.000000000000000327e-05,-2.999999999999999737e-05,-1.100000000000000039e-04,4.000000000000000000e+00,1.900000000000000000e+01
4.276200000000000000e+04,-1.199999999999999895e-04,-9.000000000000000567e-05,-1.800000000000000113e-04,-4.499999999999999877e-04,-1.499999999999999869e-04,-4.000000000000000327e-05,-2.999999999999999737e-05,-1.100000000000000039e-04,4.000000000000000000e+00,1.900000000000000000e+01
4.276300000000000000e+04,-9.000000000000000567e-05,-1.499999999999999869e-04,-5.999999999999999474e-05,-9.000000000000000567e-05,1.000000000000000082e-05,1.699999999999999851e-04,9.000000000000000567e-05,-5.000000000000000240e-05,4.000000000000000000e+00,1.900000000000000000e+01
4.276400000000000000e+04,-5.000000000000000240e-05,4.000000000000000327e-05,9.000000000000000567e-05,4.299999999999999894e-04,5.599999999999999509e-04,9.000000000000000567e-05,-8.000000000000000654e-05,-5.999999999999999474e-05,4.000000000000000000e+00,1.900000000000000000e+01
4.276500000000000000e+04,-5.000000000000000240e-05,4.000000000000000327e-05,9.000000000000000567e-05,4.299999999999999894e-04,5.599999999999999509e-04,9.000000000000000567e-05,-8.000000000000000654e-05,-5.999999999999999474e-05,4.000000000000000000e+00,1.900000000000000000e+01
4.276600000000000000e+04,-5.000000000000000240e-05,4.000000000000000327e-05,9.000000000000000567e-05,4.299999999999999894e-04,5.599999999999999509e-04,9.000000000000000567e-05,-8.000000000000000654e-05,-5.999999999999999474e-05,4.000000000000000000e+00,1.900000000000000000e+01
4.276700000000000000e+04,-5.000000000000000240e-05,4.000000000000000327e-05,9.000000000000000567e-05,4.299999999999999894e-04,5.599999999999999509e-04,9.000000000000000567e-05,-8.000000000000000654e-05,-5.999999999999999474e-05,4.000000000000000000e+00,1.900000000000000000e+01
4.276800000000000000e+04,-5.000000000000000240e-05,4.000000000000000327e-05,9.000000000000000567e-05,4.299999999999999894e-04,5.599999999999999509e-04,9.000000000000000567e-05,-8.000000000000000654e-05,-5.999999999999999474e-05,4.000000000000000000e+00,1.900000000000000000e+01
4.276900000000000000e+04,2.000000000000000164e-05,1.100000000000000039e-04,1.100000000000000039e-04,-1.399999999999999877e-04,3.099999999999999999e-04,2.399999999999999790e-04,1.000000000000000082e-05,2.999999999999999737e-05,4.000000000000000000e+00,1.900000000000000000e+01
4.277000000000000000e+04,2.000000000000000164e-05,1.100000000000000039e-04,1.100000000000000039e-04,-1.399999999999999877e-04,3.099999999999999999e-04,2.399999999999999790e-04,1.000000000000000082e-05,2.999999999999999737e-05,4.000000000000000000e+00,1.900000000000000000e+01
4.277100000000000000e+04,2.000000000000000164e-05,1.100000000000000039e-04,1.100000000000000039e-04,-1.399999999999999877e-04,3.099999999999999999e-04,2.399999999999999790e-04,1.000000000000000082e-05,2.999999999999999737e-05,4.000000000000000000e+00,1.900000000000000000e+01
4.277200000000000000e+04,2.000000000000000164e-05,1.100000000000000039e-04,1.100000000000000039e-04,-1.399999999999999877e-04,3.099999999999999999e-04,2.399999999999999790e-04,1.000000000000000082e-05,2.999999999999999737e-05,4.000000000000000000e+00,1.900000000000000000e+01
4.277300000000000000e+04,2.000000000000000164e-05,1.100000000000000039e-04,1.100000000000000039e-04,-1.399999999999999877e-04,3.099999999999999999e-04,2.399999999999999790e-04,1.000000000000000082e-05,2.999999999999999737e-05,4.000000000000000000e+00,1.900000000000000000e+01
4.277400000000000000e+04,2.000000000000000164e-05,1.100000000000000039e-04,1.100000000000000039e-04,-1.399999999999999877e-04,3.099999999999999999e-04,2.399999999999999790e-04,1.000000000000000082e-05,2.999999999999999737e-05,4.000000000000000000e+00,1.900000000000000000e+01
4.277500000000000000e+04,2.000000000000000164e-05,1.100000000000000039e-04,1.100000000000000039e-04,-1.399999999999999877e-04,3.099999999999999999e-04,2.399999999999999790e-04,1.000000000000000082e-05,2.999999999999999737e-05,4.000000000000000000e+00,1.900000000000000000e+01
4.277600000000000000e+04,2.000000000000000164e-05,1.100000000000000039e-04,1.100000000000000039e-04,-1.399999999999999877e-04,3.099999999999999999e-04,2.399999999999999790e-04,1.000000000000000082e-05,2.999999999999999737e-05,4.000000000000000000e+00,1.900000000000000000e+01
4.277700000000000000e+04,2.000000000000000164e-05,1.100000000000000039e-04,1.100000000000000039e-04,-1.399999999999999877e-04,3.099999999999999999e-04,2.399999999999999790e-04,1.000000000000000082e-05,2.999999999999999737e-05,4.000000000000000000e+00,1.900000000000000000e+01
4.277800000000000000e+04,2.000000000000000164e-05,1.100000000000000039e-04,1.100000000000000039e-04,-1.399999999999999877e-04,3.099999999999999999e-04,2.399999999999999790e-04,1.000000000000000082e-05,2.999999999999999737e-05,4.000000000000000000e+00,1.900000000000000000e+01
4.277900000000000000e+04,2.000000000000000164e-05,1.100000000000000039e-04,1.100000000000000039e-04,-1.399999999999999877e-04,3.099999999999999999e-04,2.399999999999999790e-04,1.000000000000000082e-05,2.999999999999999737e-05,4.000000000000000000e+00,1.900000000000000000e+01
4.278000000000000000e+04,2.000000000000000164e-05,1.100000000000000039e-04,1.100000000000000039e-04,-1.399999999999999877e-04,3.099999999999999999e-04,2.399999999999999790e-04,1.000000000000000082e-05,2.999999999999999737e-05,4.000000000000000000e+00,1.900000000000000000e+01
4.278100000000000000e+04,2.000000000000000164e-05,1.100000000000000039e-04,1.100000000000000039e-04,-1.399999999999999877e-04,3.099999999999999999e-04,2.399999999999999790e-04,1.000000000000000082e-05,2.999999999999999737e-05,4.000000000000000000e+00,1.900000000000000000e+01
4.278200000000000000e+04,2.000000000000000164e-05,1.100000000000000039e-04,1.100000000000000039e-04,-1.399999999999999877e-04,3.099999999999999999e-04,2.399999999999999790e-04,1.000000000000000082e-05,2.999999999999999737e-05,4.000000000000000000e+00,1.900000000000000000e+01
4.278300000000000000e+04,2.000000000000000164e-05,1.100000000000000039e-04,1.100000000000000039e-04,-1.399999999999999877e-04,3.099999999999999999e-04,2.399999999999999790e-04,1.000000000000000082e-05,2.999999999999999737e-05,4.000000000000000000e+00,1.900000000000000000e+01
4.278400000000000000e+04,2.000000000000000164e-05,1.100000000000000039e-04,1.100000000000000039e-04,-1.399999999999999877e-04,3.099999999999999999e-04,2.399999999999999790e-04,1.000000000000000082e-05,2.999999999999999737e-05,4.000000000000000000e+00,1.900000000000000000e+01
4.278500000000000000e+04,5.999999999999999474e-05,-2.000000000000000164e-05,-4.000000000000000327e-05,-3.299999999999999982e-04,-7.599999999999999334e-04,-2.299999999999999799e-04,2.000000000000000164e-05,2.999999999999999737e-05,4.000000000000000000e+00,1.900000000000000000e+01
4.278600000000000000e+04,5.000000000000000240e-05,1.000000000000000048e-04,1.100000000000000039e-04,-2.100000000000000087e-04,-8.000000000000000654e-05,4.499999999999999877e-04,2.500000000000000052e-04,1.199999999999999895e-04,4.000000000000000000e+00,1.900000000000000000e+01
4.278800000000000000e+04,5.000000000000000240e-05,1.000000000000000048e-04,1.100000000000000039e-04,-2.100000000000000087e-04,-8.000000000000000654e-05,4.499999999999999877e-04,2.500000000000000052e-04,1.199999999999999895e-04,4.000000000000000000e+00,1.900000000000000000e+01
4.278900000000000000e+04,5.000000000000000240e-05,1.000000000000000048e-04,1.100000000000000039e-04,-2.100000000000000087e-04,-8.000000000000000654e-05,4.499999999999999877e-04,2.500000000000000052e-04,1.199999999999999895e-04,4.000000000000000000e+00,1.900000000000000000e+01
4.279000000000000000e+04,5.000000000000000240e-05,1.000000000000000048e-04,1.100000000000000039e-04,-2.100000000000000087e-04,-8.000000000000000654e-05,4.499999999999999877e-04,2.500000000000000052e-04,1.199999999999999895e-04,4.000000000000000000e+00,1.900000000000000000e+01
4.279100000000000000e+04,5.000000000000000240e-05,1.000000000000000048e-04,1.100000000000000039e-04,-2.100000000000000087e-04,-8.000000000000000654e-05,4.499999999999999877e-04,2.500000000000000052e-04,1.199999999999999895e-04,4.000000000000000000e+00,1.900000000000000000e+01
4.279200000000000000e+04,5.000000000000000240e-05,1.000000000000000048e-04,1.100000000000000039e-04,-2.100000000000000087e-04,-8.000000000000000654e-05,4.499999999999999877e-04,2.500000000000000052e-04,1.199999999999999895e-04,4.000000000000000000e+00,1.900000000000000000e+01
4.279300000000000000e+04,5.000000000000000240e-05,1.000000000000000048e-04,1.100000000000000039e-04,-2.100000000000000087e-04,-8.000000000000000654e-05,4.499999999999999877e-04,2.500000000000000052e-04,1.199999999999999895e-04,4.000000000000000000e+00,1.900000000000000000e+01
4.279400000000000000e+04,5.000000000000000240e-05,1.000000000000000048e-04,1.100000000000000039e-04,-2.100000000000000087e-04,-8.000000000000000654e-05,4.499999999999999877e-04,2.500000000000000052e-04,1.199999999999999895e-04,4.000000000000000000e+00,1.900000000000000000e+01
4.279500000000000000e+04,5.000000000000000240e-05,1.000000000000000048e-04,1.100000000000000039e-04,-2.100000000000000087e-04,-8.000000000000000654e-05,4.499999999999999877e-04,2.500000000000000052e-04,1.199999999999999895e-04,4.000000000000000000e+00,1.900000000000000000e+01
4.279600000000000000e+04,5.000000000000000240e-05,1.000000000000000048e-04,1.100000000000000039e-04,-2.100000000000000087e-04,-8.000000000000000654e-05,4.499999999999999877e-04,2.500000000000000052e-04,1.199999999999999895e-04,4.000000000000000000e+00,1.900000000000000000e+01
4.279700000000000000e+04,5.000000000000000240e-05,1.000000000000000048e-04,1.100000000000000039e-04,-2.100000000000000087e-04,-8.000000000000000654e-05,4.499999999999999877e-04,2.500000000000000052e-04,1.199999999999999895e-04,4.000000000000000000e+00,1.900000000000000000e+01
4.279800000000000000e+04,5.000000000000000240e-05,1.000000000000000048e-04,1.100000000000000039e-04,-2.100000000000000087e-04,-8.000000000000000654e-05,4.499999999999999877e-04,2.500000000000000052e-04,1.199999999999999895e-04,4.000000000000000000e+00,1.900000000000000000e+01
4.279900000000000000e+04,5.000000000000000240e-05,1.000000000000000048e-04,1.100000000000000039e-04,-2.100000000000000087e-04,-8.000000000000000654e-05,4.499999999999999877e-04,2.500000000000000052e-04,1.199999999999999895e-04,4.000000000000000000e+00,1.900000000000000000e+01
4.280000000000000000e+04,5.000000000000000240e-05,1.000000000000000048e-04,1.100000000000000039e-04,-2.100000000000000087e-04,-8.000000000000000654e-05,4.499999999999999877e-04,2.500000000000000052e-04,1.199999999999999895e-04,4.000000000000000000e+00,1.900000000000000000e+01
4.280100000000000000e+04,5.000000000000000240e-05,1.000000000000000048e-04,1.100000000000000039e-04,-2.100000000000000087e-04,-8.000000000000000654e-05,4.499999999999999877e-04,2.500000000000000052e-04,1.199999999999999895e-04,4.000000000000000000e+00,1.900000000000000000e+01
4.280200000000000000e+04,5.000000000000000240e-05,1.000000000000000048e-04,1.100000000000000039e-04,-2.100000000000000087e-04,-8.000000000000000654e-05,4.499999999999999877e-04,2.500000000000000052e-04,1.199999999999999895e-04,4.000000000000000000e+00,1.900000000000000000e+01
4.280300000000000000e+04,5.000000000000000240e-05,1.000000000000000048e-04,1.100000000000000039e-04,-2.100000000000000087e-04,-8.000000000000000654e-05,4.499999999999999877e-04,2.500000000000000052e-04,1.199999999999999895e-04,4.000000000000000000e+00,1.900000000000000000e+01
4.280400000000000000e+04,5.000000000000000240e-05,1.000000000000000048e-04,1.100000000000000039e-04,-2.100000000000000087e-04,-8.000000000000000654e-05,4.499999999999999877e-04,2.500000000000000052e-04,1.199999999999999895e-04,4.000000000000000000e+00,1.900000000000000000e+01
4.280500000000000000e+04,5.000000000000000240e-05,1.000000000000000048e-04,1.100000000000000039e-04,-2.100000000000000087e-04,-8.000000000000000654e-05,4.499999999999999877e-04,2.500000000000000052e-04,1.199999999999999895e-04,4.000000000000000000e+00,1.900000000000000000e+01
4.280600000000000000e+04,5.000000000000000240e-05,1.000000000000000048e-04,1.100000000000000039e-04,-2.100000000000000087e-04,-8.000000000000000654e-05,4.499999999999999877e-04,2.500000000000000052e-04,1.199999999999999895e-04,4.000000000000000000e+00,1.900000000000000000e+01
4.280700000000000000e+04,5.000000000000000240e-05,1.000000000000000048e-04,1.100000000000000039e-04,-2.100000000000000087e-04,-8.000000000000000654e-05,4.499999999999999877e-04,2.500000000000000052e-04,1.199999999999999895e-04,4.000000000000000000e+00,1.900000000000000000e+01
4.280800000000000000e+04,5.000000000000000240e-05,1.000000000000000048e-04,1.100000000000000039e-04,-2.100000000000000087e-04,-8.000000000000000654e-05,4.499999999999999877e-04,2.500000000000000052e-04,1.199999999999999895e-04,4.000000000000000000e+00,1.900000000000000000e+01
4.280900000000000000e+04,5.000000000000000240e-05,1.000000000000000048e-04,1.100000000000000039e-04,-2.100000000000000087e-04,-8.000000000000000654e-05,4.499999999999999877e-04,2.500000000000000052e-04,1.199999999999999895e-04,4.000000000000000000e+00,1.900000000000000000e+01
4.281000000000000000e+04,5.000000000000000240e-05,1.000000000000000048e-04,1.100000000000000039e-04,-2.100000000000000087e-04,-8.000000000000000654e-05,4.499999999999999877e-04,2.500000000000000052e-04,1.199999999999999895e-04,4.000000000000000000e+00,1.900000000000000000e+01
4.281100000000000000e+04,5.000000000000000240e-05,1.000000000000000048e-04,1.100000000000000039e-04,-2.100000000000000087e-04,-8.000000000000000654e-05,4.499999999999999877e-04,2.500000000000000052e-04,1.199999999999999895e-04,4.000000000000000000e+00,1.900000000000000000e+01
4.281200000000000000e+04,5.000000000000000240e-05,1.000000000000000048e-04,1.100000000000000039e-04,-2.100000000000000087e-04,-8.000000000000000654e-05,4.499999999999999877e-04,2.500000000000000052e-04,1.199999999999999895e-04,4.000000000000000000e+00,1.900000000000000000e+01
4.281300000000000000e+04,5.000000000000000240e-05,1.000000000000000048e-04,1.100000000000000039e-04,-2.100000000000000087e-04,-8.000000000000000654e-05,4.499999999999999877e-04,2.500000000000000052e-04,1.199999999999999895e-04,4.000000000000000000e+00,1.900000000000000000e+01
4.281400000000000000e+04,-2.999999999999999737e-05,-5.000000000000000240e-05,-1.000000000000000048e-04,-2.999999999999999737e-04,-4.400000000000000157e-04,-2.999999999999999737e-05,-2.000000000000000096e-04,-1.000000000000000048e-04,4.000000000000000000e+00,1.900000000000000000e+01
4.281500000000000000e+04,-2.999999999999999737e-05,-5.000000000000000240e-05,-1.000000000000000048e-04,-2.999999999999999737e-04,-4.400000000000000157e-04,-2.999999999999999737e-05,-2.000000000000000096e-04,-1.000000000000000048e-04,4.000000000000000000e+00,1.900000000000000000e+01
4.281600000000000000e+04,-2.999999999999999737e-05,-5.000000000000000240e-05,-1.000000000000000048e-04,-2.999999999999999737e-04,-4.400000000000000157e-04,-2.999999999999999737e-05,-2.000000000000000096e-04,-1.000000000000000048e-04,4.000000000000000000e+00,1.900000000000000000e+01
4.281700000000000000e+04,-2.999999999999999737e-05,-5.000000000000000240e-05,-1.000000000000000048e-04,-2.999999999999999737e-04,-4.400000000000000157e-04,-2.999999999999999737e-05,-2.000000000000000096e-04,-1.000000000000000048e-04,4.000000000000000000e+00,1.900000000000000000e+01
4.281800000000000000e+04,-2.999999999999999737e-05,-5.000000000000000240e-05,-1.000000000000000048e-04,-2.999999999999999737e-04,-4.400000000000000157e-04,-2.999999999999999737e-05,-2.000000000000000096e-04,-1.000000000000000048e-04,4.000000000000000000e+00,1.900000000000000000e+01
4.281900000000000000e+04,-2.999999999999999737e-05,-5.000000000000000240e-05,-1.000000000000000048e-04,-2.999999999999999737e-04,-4.400000000000000157e-04,-2.999999999999999737e-05,-2.000000000000000096e-04,-1.000000000000000048e-04,4.000000000000000000e+00,1.900000000000000000e+01
4.282000000000000000e+04,-2.999999999999999737e-05,-5.000000000000000240e-05,-1.000000000000000048e-04,-2.999999999999999737e-04,-4.400000000000000157e-04,-2.999999999999999737e-05,-2.000000000000000096e-04,-1.000000000000000048e-04,4.000000000000000000e+00,1.900000000000000000e+01
4.282100000000000000e+04,-2.999999999999999737e-05,-5.000000000000000240e-05,-1.000000000000000048e-04,-2.999999999999999737e-04,-4.400000000000000157e-04,-2.999999999999999737e-05,-2.000000000000000096e-04,-1.000000000000000048e-04,4.000000000000000000e+00,1.900000000000000000e+01
4.282200000000000000e+04,-2.999999999999999737e-05,-5.000000000000000240e-05,-1.000000000000000048e-04,-2.999999999999999737e-04,-4.400000000000000157e-04,-2.999999999999999737e-05,-2.000000000000000096e-04,-1.000000000000000048e-04,4.000000000000000000e+00,1.900000000000000000e+01
4.282300000000000000e+04,-2.999999999999999737e-05,-5.000000000000000240e-05,-1.000000000000000048e-04,-2.999999999999999737e-04,-4.400000000000000157e-04,-2.999999999999999737e-05,-2.000000000000000096e-04,-1.000000000000000048e-04,4.000000000000000000e+00,1.900000000000000000e+01
4.282400000000000000e+04,-2.999999999999999737e-05,-5.000000000000000240e-05,-1.000000000000000048e-04,-2.999999999999999737e-04,-4.400000000000000157e-04,-2.999999999999999737e-05,-2.000000000000000096e-04,-1.000000000000000048e-04,4.000000000000000000e+00,1.900000000000000000e+01
4.282500000000000000e+04,-2.999999999999999737e-05,-5.000000000000000240e-05,-1.000000000000000048e-04,-2.999999999999999737e-04,-4.400000000000000157e-04,-2.999999999999999737e-05,-2.000000000000000096e-04,-1.000000000000000048e-04,4.000000000000000000e+00,1.900000000000000000e+01
4.282600000000000000e+04,-2.999999999999999737e-05,-5.000000000000000240e-05,-1.000000000000000048e-04,-2.999999999999999737e-04,-4.400000000000000157e-04,-2.999999999999999737e-05,-2.000000000000000096e-04,-1.000000000000000048e-04,4.000000000000000000e+00,1.900000000000000000e+01
4.282700000000000000e+04,-2.999999999999999737e-05,-5.000000000000000240e-05,-1.000000000000000048e-04,-2.999999999999999737e-04,-4.400000000000000157e-04,-2.999999999999999737e-05,-2.000000000000000096e-04,-1.000000000000000048e-04,4.000000000000000000e+00,1.900000000000000000e+01
4.282800000000000000e+04,-2.999999999999999737e-05,-5.000000000000000240e-05,-1.000000000000000048e-04,-2.999999999999999737e-04,-4.400000000000000157e-04,-2.999999999999999737e-05,-2.000000000000000096e-04,-1.000000000000000048e-04,4.000000000000000000e+00,1.900000000000000000e+01
4.282900000000000000e+04,-2.999999999999999737e-05,-5.000000000000000240e-05,-1.000000000000000048e-04,-2.999999999999999737e-04,-4.400000000000000157e-04,-2.999999999999999737e-05,-2.000000000000000096e-04,-1.000000000000000048e-04,4.000000000000000000e+00,1.900000000000000000e+01
4.283000000000000000e+04,-2.999999999999999737e-05,-5.000000000000000240e-05,-1.000000000000000048e-04,-2.999999999999999737e-04,-4.400000000000000157e-04,-2.999999999999999737e-05,-2.000000000000000096e-04,-1.000000000000000048e-04,4.000000000000000000e+00,1.900000000000000000e+01
4.283100000000000000e+04,-2.999999999999999737e-05,-5.000000000000000240e-05,-1.000000000000000048e-04,-2.999999999999999737e-04,-4.400000000000000157e-04,-2.999999999999999737e-05,-2.000000000000000096e-04,-1.000000000000000048e-04,4.000000000000000000e+00,1.900000000000000000e+01
4.283200000000000000e+04,-2.999999999999999737e-05,-5.000000000000000240e-05,-1.000000000000000048e-04,-2.999999999999999737e-04,-4.400000000000000157e-04,-2.999999999999999737e-05,-2.000000000000000096e-04,-1.000000000000000048e-04,4.000000000000000000e+00,1.900000000000000000e+01
4.283300000000000000e+04,-2.999999999999999737e-05,-5.000000000000000240e-05,-1.000000000000000048e-04,-2.999999999999999737e-04,-4.400000000000000157e-04,-2.999999999999999737e-05,-2.000000000000000096e-04,-1.000000000000000048e-04,4.000000000000000000e+00,1.900000000000000000e+01
4.283400000000000000e+04,-2.999999999999999737e-05,-5.000000000000000240e-05,-1.000000000000000048e-04,-2.999999999999999737e-04,-4.400000000000000157e-04,-2.999999999999999737e-05,-2.000000000000000096e-04,-1.000000000000000048e-04,4.000000000000000000e+00,1.900000000000000000e+01
4.283500000000000000e+04,-2.999999999999999737e-05,-5.000000000000000240e-05,-1.000000000000000048e-04,-2.999999999999999737e-04,-4.400000000000000157e-04,-2.999999999999999737e-05,-2.000000000000000096e-04,-1.000000000000000048e-04,4.000000000000000000e+00,1.900000000000000000e+01
4.283700000000000000e+04,9.000000000000000567e-05,1.000000000000000048e-04,1.000000000000000048e-04,1.399999999999999877e-04,6.499999999999999702e-04,2.100000000000000087e-04,1.000000000000000048e-04,1.899999999999999834e-04,4.000000000000000000e+00,1.900000000000000000e+01
4.284000000000000000e+04,9.000000000000000567e-05,1.000000000000000048e-04,1.000000000000000048e-04,1.399999999999999877e-04,6.499999999999999702e-04,2.100000000000000087e-04,1.000000000000000048e-04,1.899999999999999834e-04,4.000000000000000000e+00,1.900000000000000000e+01
4.284100000000000000e+04,9.000000000000000567e-05,1.000000000000000048e-04,1.000000000000000048e-04,1.399999999999999877e-04,6.499999999999999702e-04,2.100000000000000087e-04,1.000000000000000048e-04,1.899999999999999834e-04,4.000000000000000000e+00,1.900000000000000000e+01
4.284200000000000000e+04,9.000000000000000567e-05,1.000000000000000048e-04,1.000000000000000048e-04,1.399999999999999877e-04,6.499999999999999702e-04,2.100000000000000087e-04,1.000000000000000048e-04,1.899999999999999834e-04,4.000000000000000000e+00,1.900000000000000000e+01
4.284300000000000000e+04,9.000000000000000567e-05,1.000000000000000048e-04,1.000000000000000048e-04,1.399999999999999877e-04,6.499999999999999702e-04,2.100000000000000087e-04,1.000000000000000048e-04,1.899999999999999834e-04,4.000000000000000000e+00,1.900000000000000000e+01
4.284400000000000000e+04,-9.000000000000000567e-05,-8.000000000000000654e-05,1.000000000000000048e-04,9.599999999999999159e-04,1.090000000000000040e-03,3.200000000000000262e-04,2.000000000000000164e-05,2.999999999999999737e-05,4.000000000000000000e+00,1.900000000000000000e+01
4.284500000000000000e+04,-8.000000000000000654e-05,-1.499999999999999869e-04,-1.600000000000000131e-04,-1.300000000000000157e-04,-8.000000000000000654e-05,8.000000000000000654e-05,2.999999999999999737e-05,-1.000000000000000048e-04,4.000000000000000000e+00,1.900000000000000000e+01
4.284600000000000000e+04,-8.000000000000000654e-05,-1.499999999999999869e-04,-1.600000000000000131e-04,-1.300000000000000157e-04,-8.000000000000000654e-05,8.000000000000000654e-05,2.999999999999999737e-05,-1.000000000000000048e-04,4.000000000000000000e+00,1.900000000000000000e+01
4.284800000000000000e+04,-8.000000000000000654e-05,-1.499999999999999869e-04,-1.600000000000000131e-04,-1.300000000000000157e-04,-8.000000000000000654e-05,8.000000000000000654e-05,2.999999999999999737e-05,-1.000000000000000048e-04,4.000000000000000000e+00,1.900000000000000000e+01
4.284900000000000000e+04,-8.000000000000000654e-05,-1.499999999999999869e-04,-1.600000000000000131e-04,-1.300000000000000157e-04,-8.000000000000000654e-05,8.000000000000000654e-05,2.999999999999999737e-05,-1.000000000000000048e-04,4.000000000000000000e+00,1.900000000000000000e+01
4.285000000000000000e+04,-2.999999999999999737e-05,0.000000000000000000e+00,-8.000000000000000654e-05,-4.099999999999999912e-04,4.000000000000000192e-04,-2.299999999999999799e-04,-2.999999999999999737e-05,-5.000000000000000240e-05,4.000000000000000000e+00,1.900000000000000000e+01
4.285100000000000000e+04,-2.999999999999999737e-05,0.000000000000000000e+00,-8.000000000000000654e-05,-4.099999999999999912e-04,4.000000000000000192e-04,-2.299999999999999799e-04,-2.999999999999999737e-05,-5.000000000000000240e-05,4.000000000000000000e+00,1.900000000000000000e+01
4.285200000000000000e+04,-2.999999999999999737e-05,0.000000000000000000e+00,-8.000000000000000654e-05,-4.099999999999999912e-04,4.000000000000000192e-04,-2.299999999999999799e-04,-2.999999999999999737e-05,-5.000000000000000240e-05,4.000000000000000000e+00,1.900000000000000000e+01
4.285300000000000000e+04,-2.999999999999999737e-05,0.000000000000000000e+00,-8.000000000000000654e-05,-4.099999999999999912e-04,4.000000000000000192e-04,-2.299999999999999799e-04,-2.999999999999999737e-05,-5.000000000000000240e-05,4.000000000000000000e+00,1.900000000000000000e+01
4.285400000000000000e+04,-2.999999999999999737e-05,0.000000000000000000e+00,-8.000000000000000654e-05,-4.099999999999999912e-04,4.000000000000000192e-04,-2.299999999999999799e-04,-2.999999999999999737e-05,-5.000000000000000240e-05,4.000000000000000000e+00,1.900000000000000000e+01
4.285500000000000000e+04,-2.999999999999999737e-05,0.000000000000000000e+00,-8.000000000000000654e-05,-4.099999999999999912e-04,4.000000000000000192e-04,-2.299999999999999799e-04,-2.999999999999999737e-05,-5.000000000000000240e-05,4.000000000000000000e+00,1.900000000000000000e+01
4.285600000000000000e+04,-2.999999999999999737e-05,0.000000000000000000e+00,-8.000000000000000654e-05,-4.099999999999999912e-04,4.000000000000000192e-04,-2.299999999999999799e-04,-2.999999999999999737e-05,-5.000000000000000240e-05,4.000000000000000000e+00,1.900000000000000000e+01
4.285700000000000000e+04,-2.999999999999999737e-05,0.000000000000000000e+00,-8.000000000000000654e-05,-4.099999999999999912e-04,4.000000000000000192e-04,-2.299999999999999799e-04,-2.999999999999999737e-05,-5.000000000000000240e-05,4.000000000000000000e+00,1.900000000000000000e+01
4.285800000000000000e+04,-2.999999999999999737e-05,0.000000000000000000e+00,-8.000000000000000654e-05,-4.099999999999999912e-04,4.000000000000000192e-04,-2.299999999999999799e-04,-2.999999999999999737e-05,-5.000000000000000240e-05,4.000000000000000000e+00,1.900000000000000000e+01
4.285900000000000000e+04,-2.999999999999999737e-05,0.000000000000000000e+00,-8.000000000000000654e-05,-4.099999999999999912e-04,4.000000000000000192e-04,-2.299999999999999799e-04,-2.999999999999999737e-05,-5.000000000000000240e-05,4.000000000000000000e+00,1.900000000000000000e+01
4.286000000000000000e+04,-2.999999999999999737e-05,0.000000000000000000e+00,-8.000000000000000654e-05,-4.099999999999999912e-04,4.000000000000000192e-04,-2.299999999999999799e-04,-2.999999999999999737e-05,-5.000000000000000240e-05,4.000000000000000000e+00,1.900000000000000000e+01
4.286100000000000000e+04,-2.999999999999999737e-05,0.000000000000000000e+00,-8.000000000000000654e-05,-4.099999999999999912e-04,4.000000000000000192e-04,-2.299999999999999799e-04,-2.999999999999999737e-05,-5.000000000000000240e-05,4.000000000000000000e+00,1.900000000000000000e+01
4.286200000000000000e+04,-2.999999999999999737e-05,0.000000000000000000e+00,-8.000000000000000654e-05,-4.099999999999999912e-04,4.000000000000000192e-04,-2.299999999999999799e-04,-2.999999999999999737e-05,-5.000000000000000240e-05,4.000000000000000000e+00,1.900000000000000000e+01
4.286300000000000000e+04,-2.999999999999999737e-05,0.000000000000000000e+00,-8.000000000000000654e-05,-4.099999999999999912e-04,4.000000000000000192e-04,-2.299999999999999799e-04,-2.999999999999999737e-05,-5.000000000000000240e-05,4.000000000000000000e+00,1.900000000000000000e+01
4.286400000000000000e+04,-2.999999999999999737e-05,0.000000000000000000e+00,-8.000000000000000654e-05,-4.099999999999999912e-04,4.000000000000000192e-04,-2.299999999999999799e-04,-2.999999999999999737e-05,-5.000000000000000240e-05,4.000000000000000000e+00,1.900000000000000000e+01
4.286500000000000000e+04,-2.999999999999999737e-05,0.000000000000000000e+00,-8.000000000000000654e-05,-4.099999999999999912e-04,4.000000000000000192e-04,-2.299999999999999799e-04,-2.999999999999999737e-05,-5.000000000000000240e-05,4.000000000000000000e+00,1.900000000000000000e+01
4.286600000000000000e+04,-2.999999999999999737e-05,0.000000000000000000e+00,-8.000000000000000654e-05,-4.099999999999999912e-04,4.000000000000000192e-04,-2.299999999999999799e-04,-2.999999999999999737e-05,-5.000000000000000240e-05,4.000000000000000000e+00,1.900000000000000000e+01
4.286700000000000000e+04,-2.999999999999999737e-05,0.000000000000000000e+00,-8.000000000000000654e-05,-4.099999999999999912e-04,4.000000000000000192e-04,-2.299999999999999799e-04,-2.999999999999999737e-05,-5.000000000000000240e-05,4.000000000000000000e+00,1.900000000000000000e+01
4.286800000000000000e+04,-2.999999999999999737e-05,0.000000000000000000e+00,-8.000000000000000654e-05,-4.099999999999999912e-04,4.000000000000000192e-04,-2.299999999999999799e-04,-2.999999999999999737e-05,-5.000000000000000240e-05,4.000000000000000000e+00,1.900000000000000000e+01
4.286900000000000000e+04,-2.999999999999999737e-05,0.000000000000000000e+00,-8.000000000000000654e-05,-4.099999999999999912e-04,4.000000000000000192e-04,-2.299999999999999799e-04,-2.999999999999999737e-05,-5.000000000000000240e-05,4.000000000000000000e+00,1.900000000000000000e+01
4.287000000000000000e+04,-2.999999999999999737e-05,0.000000000000000000e+00,-8.000000000000000654e-05,-4.099999999999999912e-04,4.000000000000000192e-04,-2.299999999999999799e-04,-2.999999999999999737e-05,-5.000000000000000240e-05,4.000000000000000000e+00,1.900000000000000000e+01
4.287100000000000000e+04,-2.999999999999999737e-05,0.000000000000000000e+00,-8.000000000000000654e-05,-4.099999999999999912e-04,4.000000000000000192e-04,-2.299999999999999799e-04,-2.999999999999999737e-05,-5.000000000000000240e-05,4.000000000000000000e+00,1.900000000000000000e+01
4.287200000000000000e+04,-2.999999999999999737e-05,0.000000000000000000e+00,-8.000000000000000654e-05,-4.099999999999999912e-04,4.000000000000000192e-04,-2.299999999999999799e-04,-2.999999999999999737e-05,-5.000000000000000240e-05,4.000000000000000000e+00,1.900000000000000000e+01
4.287300000000000000e+04,-2.999999999999999737e-05,0.000000000000000000e+00,-8.000000000000000654e-05,-4.099999999999999912e-04,4.000000000000000192e-04,-2.299999999999999799e-04,-2.999999999999999737e-05,-5.000000000000000240e-05,4.000000000000000000e+00,1.900000000000000000e+01
4.287400000000000000e+04,2.999999999999999737e-05,-4.000000000000000327e-05,-1.199999999999999895e-04,-7.399999999999999894e-04,-2.399999999999999790e-04,-1.300000000000000157e-04,1.399999999999999877e-04,6.999999999999999387e-05,4.000000000000000000e+00,1.900000000000000000e+01
4.287500000000000000e+04,2.999999999999999737e-05,-4.000000000000000327e-05,-1.199999999999999895e-04,-7.399999999999999894e-04,-2.399999999999999790e-04,-1.300000000000000157e-04,1.399999999999999877e-04,6.999999999999999387e-05,4.000000000000000000e+00,1.900000000000000000e+01
4.287600000000000000e+04,-1.100000000000000039e-04,-1.199999999999999895e-04,-1.300000000000000157e-04,1.000000000000000082e-05,-7.099999999999999107e-04,-3.899999999999999929e-04,-1.199999999999999895e-04,-1.699999999999999851e-04,4.000000000000000000e+00,1.900000000000000000e+01
4.287700000000000000e+04,-1.100000000000000039e-04,-1.199999999999999895e-04,-1.300000000000000157e-04,1.000000000000000082e-05,-7.099999999999999107e-04,-3.899999999999999929e-04,-1.199999999999999895e-04,-1.699999999999999851e-04,4.000000000000000000e+00,1.900000000000000000e+01
4.287800000000000000e+04,-1.100000000000000039e-04,-1.199999999999999895e-04,-1.300000000000000157e-04,1.000000000000000082e-05,-7.099999999999999107e-04,-3.899999999999999929e-04,-1.199999999999999895e-04,-1.699999999999999851e-04,4.000000000000000000e+00,1.900000000000000000e+01
4.287900000000000000e+04,-1.100000000000000039e-04,-1.199999999999999895e-04,-1.300000000000000157e-04,1.000000000000000082e-05,-7.099999999999999107e-04,-3.899999999999999929e-04,-1.199999999999999895e-04,-1.699999999999999851e-04,4.000000000000000000e+00,1.900000000000000000e+01
4.288000000000000000e+04,-1.100000000000000039e-04,-1.199999999999999895e-04,-1.300000000000000157e-04,1.000000000000000082e-05,-7.099999999999999107e-04,-3.899999999999999929e-04,-1.199999999999999895e-04,-1.699999999999999851e-04,4.000000000000000000e+00,1.900000000000000000e+01
4.288100000000000000e+04,-1.100000000000000039e-04,-1.199999999999999895e-04,-1.300000000000000157e-04,1.000000000000000082e-05,-7.099999999999999107e-04,-3.899999999999999929e-04,-1.199999999999999895e-04,-1.699999999999999851e-04,4.000000000000000000e+00,1.900000000000000000e+01
4.288200000000000000e+04,-1.100000000000000039e-04,-1.199999999999999895e-04,-1.300000000000000157e-04,1.000000000000000082e-05,-7.099999999999999107e-04,-3.899999999999999929e-04,-1.199999999999999895e-04,-1.699999999999999851e-04,4.000000000000000000e+00,1.900000000000000000e+01
4.288300000000000000e+04,-1.100000000000000039e-04,-1.199999999999999895e-04,-1.300000000000000157e-04,1.000000000000000082e-05,-7.099999999999999107e-04,-3.899999999999999929e-04,-1.199999999999999895e-04,-1.699999999999999851e-04,4.000000000000000000e+00,1.900000000000000000e+01
4.288400000000000000e+04,-1.100000000000000039e-04,-1.199999999999999895e-04,-1.300000000000000157e-04,1.000000000000000082e-05,-7.099999999999999107e-04,-3.899999999999999929e-04,-1.199999999999999895e-04,-1.699999999999999851e-04,4.000000000000000000e+00,1.900000000000000000e+01
4.288500000000000000e+04,-1.100000000000000039e-04,-1.199999999999999895e-04,-1.300000000000000157e-04,1.000000000000000082e-05,-7.099999999999999107e-04,-3.899999999999999929e-04,-1.199999999999999895e-04,-1.699999999999999851e-04,4.000000000000000000e+00,1.900000000000000000e+01
4.288600000000000000e+04,-1.100000000000000039e-04,-1.199999999999999895e-04,-1.300000000000000157e-04,1.000000000000000082e-05,-7.099999999999999107e-04,-3.899999999999999929e-04,-1.199999999999999895e-04,-1.699999999999999851e-04,4.000000000000000000e+00,1.900000000000000000e+01
4.288900000000000000e+04,-1.100000000000000039e-04,-1.199999999999999895e-04,-1.300000000000000157e-04,1.000000000000000082e-05,-7.099999999999999107e-04,-3.899999999999999929e-04,-1.199999999999999895e-04,-1.699999999999999851e-04,4.000000000000000000e+00,1.900000000000000000e+01
4.289000000000000000e+04,-1.100000000000000039e-04,-1.199999999999999895e-04,-1.300000000000000157e-04,1.000000000000000082e-05,-7.099999999999999107e-04,-3.899999999999999929e-04,-1.199999999999999895e-04,-1.699999999999999851e-04,4.000000000000000000e+00,1.900000000000000000e+01
4.289100000000000000e+04,-1.100000000000000039e-04,-1.199999999999999895e-04,-1.300000000000000157e-04,1.000000000000000082e-05,-7.099999999999999107e-04,-3.899999999999999929e-04,-1.199999999999999895e-04,-1.699999999999999851e-04,4.000000000000000000e+00,1.900000000000000000e+01
4.289200000000000000e+04,-1.100000000000000039e-04,-1.199999999999999895e-04,-1.300000000000000157e-04,1.000000000000000082e-05,-7.099999999999999107e-04,-3.899999999999999929e-04,-1.199999999999999895e-04,-1.699999999999999851e-04,4.000000000000000000e+00,1.900000000000000000e+01
4.289300000000000000e+04,-1.100000000000000039e-04,-1.199999999999999895e-04,-1.300000000000000157e-04,1.000000000000000082e-05,-7.099999999999999107e-04,-3.899999999999999929e-04,-1.199999999999999895e-04,-1.699999999999999851e-04,4.000000000000000000e+00,1.900000000000000000e+01
4.289400000000000000e+04,-1.100000000000000039e-04,-1.199999999999999895e-04,-1.300000000000000157e-04,1.000000000000000082e-05,-7.099999999999999107e-04,-3.899999999999999929e-04,-1.199999999999999895e-04,-1.699999999999999851e-04,4.000000000000000000e+00,1.900000000000000000e+01
4.289500000000000000e+04,-1.100000000000000039e-04,-1.199999999999999895e-04,-1.300000000000000157e-04,1.000000000000000082e-05,-7.099999999999999107e-04,-3.899999999999999929e-04,-1.199999999999999895e-04,-1.699999999999999851e-04,4.000000000000000000e+00,1.900000000000000000e+01
4.289600000000000000e+04,-1.100000000000000039e-04,-1.199999999999999895e-04,-1.300000000000000157e-04,1.000000000000000082e-05,-7.099999999999999107e-04,-3.899999999999999929e-04,-1.199999999999999895e-04,-1.699999999999999851e-04,4.000000000000000000e+00,1.900000000000000000e+01
4.289700000000000000e+04,-2.999999999999999737e-05,-1.100000000000000039e-04,-2.299999999999999799e-04,-7.700000000000000681e-04,-2.999999999999999737e-04,-2.000000000000000164e-05,-8.000000000000000654e-05,-4.000000000000000327e-05,4.000000000000000000e+00,1.900000000000000000e+01
4.289800000000000000e+04,5.999999999999999474e-05,8.000000000000000654e-05,1.000000000000000082e-05,-4.299999999999999894e-04,-2.100000000000000087e-04,2.999999999999999737e-05,1.300000000000000157e-04,8.000000000000000654e-05,4.000000000000000000e+00,1.900000000000000000e+01
4.289900000000000000e+04,5.999999999999999474e-05,8.000000000000000654e-05,1.000000000000000082e-05,-4.299999999999999894e-04,-2.100000000000000087e-04,2.999999999999999737e-05,1.300000000000000157e-04,8.000000000000000654e-05,4.000000000000000000e+00,1.900000000000000000e+01
4.290000000000000000e+04,5.999999999999999474e-05,8.000000000000000654e-05,1.000000000000000082e-05,-4.299999999999999894e-04,-2.100000000000000087e-04,2.999999999999999737e-05,1.300000000000000157e-04,8.000000000000000654e-05,4.000000000000000000e+00,1.900000000000000000e+01
4.290100000000000000e+04,5.999999999999999474e-05,8.000000000000000654e-05,1.000000000000000082e-05,-4.299999999999999894e-04,-2.100000000000000087e-04,2.999999999999999737e-05,1.300000000000000157e-04,8.000000000000000654e-05,4.000000000000000000e+00,1.900000000000000000e+01
4.290200000000000000e+04,5.999999999999999474e-05,8.000000000000000654e-05,1.000000000000000082e-05,-4.299999999999999894e-04,-2.100000000000000087e-04,2.999999999999999737e-05,1.300000000000000157e-04,8.000000000000000654e-05,4.000000000000000000e+00,1.900000000000000000e+01
4.290300000000000000e+04,5.000000000000000240e-05,-5.000000000000000240e-05,-1.100000000000000039e-04,-3.600000000000000227e-04,2.600000000000000314e-04,-1.899999999999999834e-04,-2.999999999999999737e-05,-2.000000000000000164e-05,4.000000000000000000e+00,1.900000000000000000e+01
4.290400000000000000e+04,-6.999999999999999387e-05,-4.000000000000000327e-05,-8.000000000000000654e-05,-9.000000000000000567e-05,-1.100000000000000039e-04,2.999999999999999737e-05,-8.000000000000000654e-05,-6.999999999999999387e-05,4.000000000000000000e+00,1.900000000000000000e+01
4.290500000000000000e+04,0.000000000000000000e+00,1.000000000000000082e-05,0.000000000000000000e+00,1.800000000000000113e-04,2.100000000000000087e-04,1.800000000000000113e-04,0.000000000000000000e+00,-4.000000000000000327e-05,4.000000000000000000e+00,1.900000000000000000e+01
4.290600000000000000e+04,0.000000000000000000e+00,1.000000000000000082e-05,0.000000000000000000e+00,1.800000000000000113e-04,2.100000000000000087e-04,1.800000000000000113e-04,0.000000000000000000e+00,-4.000000000000000327e-05,4.000000000000000000e+00,1.900000000000000000e+01
4.290700000000000000e+04,0.000000000000000000e+00,1.000000000000000082e-05,0.000000000000000000e+00,1.800000000000000113e-04,2.100000000000000087e-04,1.800000000000000113e-04,0.000000000000000000e+00,-4.000000000000000327e-05,4.000000000000000000e+00,1.900000000000000000e+01
4.290800000000000000e+04,0.000000000000000000e+00,1.000000000000000082e-05,0.000000000000000000e+00,1.800000000000000113e-04,2.100000000000000087e-04,1.800000000000000113e-04,0.000000000000000000e+00,-4.000000000000000327e-05,4.000000000000000000e+00,1.900000000000000000e+01
4.290900000000000000e+04,0.000000000000000000e+00,1.000000000000000082e-05,0.000000000000000000e+00,1.800000000000000113e-04,2.100000000000000087e-04,1.800000000000000113e-04,0.000000000000000000e+00,-4.000000000000000327e-05,4.000000000000000000e+00,1.900000000000000000e+01
4.291000000000000000e+04,0.000000000000000000e+00,1.000000000000000082e-05,0.000000000000000000e+00,1.800000000000000113e-04,2.100000000000000087e-04,1.800000000000000113e-04,0.000000000000000000e+00,-4.000000000000000327e-05,4.000000000000000000e+00,1.900000000000000000e+01
4.291100000000000000e+04,0.000000000000000000e+00,1.000000000000000082e-05,0.000000000000000000e+00,1.800000000000000113e-04,2.100000000000000087e-04,1.800000000000000113e-04,0.000000000000000000e+00,-4.000000000000000327e-05,4.000000000000000000e+00,1.900000000000000000e+01
4.291200000000000000e+04,0.000000000000000000e+00,1.000000000000000082e-05,0.000000000000000000e+00,1.800000000000000113e-04,2.100000000000000087e-04,1.800000000000000113e-04,0.000000000000000000e+00,-4.000000000000000327e-05,4.000000000000000000e+00,1.900000000000000000e+01
4.291300000000000000e+04,0.000000000000000000e+00,1.000000000000000082e-05,0.000000000000000000e+00,1.800000000000000113e-04,2.100000000000000087e-04,1.800000000000000113e-04,0.000000000000000000e+00,-4.000000000000000327e-05,4.000000000000000000e+00,1.900000000000000000e+01
4.291400000000000000e+04,0.000000000000000000e+00,1.000000000000000082e-05,0.000000000000000000e+00,1.800000000000000113e-04,2.100000000000000087e-04,1.800000000000000113e-04,0.000000000000000000e+00,-4.000000000000000327e-05,4.000000000000000000e+00,1.900000000000000000e+01
4.291500000000000000e+04,0.000000000000000000e+00,1.000000000000000082e-05,0.000000000000000000e+00,1.800000000000000113e-04,2.100000000000000087e-04,1.800000000000000113e-04,0.000000000000000000e+00,-4.000000000000000327e-05,4.000000000000000000e+00,1.900000000000000000e+01
4.291600000000000000e+04,0.000000000000000000e+00,1.000000000000000082e-05,0.000000000000000000e+00,1.800000000000000113e-04,2.100000000000000087e-04,1.800000000000000113e-04,0.000000000000000000e+00,-4.000000000000000327e-05,4.000000000000000000e+00,1.900000000000000000e+01
4.291700000000000000e+04,0.000000000000000000e+00,1.000000000000000082e-05,0.000000000000000000e+00,1.800000000000000113e-04,2.100000000000000087e-04,1.800000000000000113e-04,0.000000000000000000e+00,-4.000000000000000327e-05,4.000000000000000000e+00,1.900000000000000000e+01
4.291800000000000000e+04,0.000000000000000000e+00,1.000000000000000082e-05,0.000000000000000000e+00,1.800000000000000113e-04,2.100000000000000087e-04,1.800000000000000113e-04,0.000000000000000000e+00,-4.000000000000000327e-05,4.000000000000000000e+00,1.900000000000000000e+01
4.291900000000000000e+04,0.000000000000000000e+00,1.000000000000000082e-05,0.000000000000000000e+00,1.800000000000000113e-04,2.100000000000000087e-04,1.800000000000000113e-04,0.000000000000000000e+00,-4.000000000000000327e-05,4.000000000000000000e+00,1.900000000000000000e+01
4.292000000000000000e+04,0.000000000000000000e+00,1.000000000000000082e-05,0.000000000000000000e+00,1.800000000000000113e-04,2.100000000000000087e-04,1.800000000000000113e-04,0.000000000000000000e+00,-4.000000000000000327e-05,4.000000000000000000e+00,1.900000000000000000e+01
4.292100000000000000e+04,0.000000000000000000e+00,1.000000000000000082e-05,0.000000000000000000e+00,1.800000000000000113e-04,2.100000000000000087e-04,1.800000000000000113e-04,0.000000000000000000e+00,-4.000000000000000327e-05,4.000000000000000000e+00,1.900000000000000000e+01
4.292200000000000000e+04,0.000000000000000000e+00,1.000000000000000082e-05,0.000000000000000000e+00,1.800000000000000113e-04,2.100000000000000087e-04,1.800000000000000113e-04,0.000000000000000000e+00,-4.000000000000000327e-05,4.000000000000000000e+00,1.900000000000000000e+01
4.292300000000000000e+04,0.000000000000000000e+00,1.000000000000000082e-05,0.000000000000000000e+00,1.800000000000000113e-04,2.100000000000000087e-04,1.800000000000000113e-04,0.000000000000000000e+00,-4.000000000000000327e-05,4.000000000000000000e+00,1.900000000000000000e+01
4.292400000000000000e+04,0.000000000000000000e+00,1.000000000000000082e-05,0.000000000000000000e+00,1.800000000000000113e-04,2.100000000000000087e-04,1.800000000000000113e-04,0.000000000000000000e+00,-4.000000000000000327e-05,4.000000000000000000e+00,1.900000000000000000e+01
4.292500000000000000e+04,0.000000000000000000e+00,1.000000000000000082e-05,0.000000000000000000e+00,1.800000000000000113e-04,2.100000000000000087e-04,1.800000000000000113e-04,0.000000000000000000e+00,-4.000000000000000327e-05,4.000000000000000000e+00,1.900000000000000000e+01
4.292600000000000000e+04,0.000000000000000000e+00,1.000000000000000082e-05,0.000000000000000000e+00,1.800000000000000113e-04,2.100000000000000087e-04,1.800000000000000113e-04,0.000000000000000000e+00,-4.000000000000000327e-05,4.000000000000000000e+00,1.900000000000000000e+01
4.292700000000000000e+04,8.000000000000000654e-05,2.100000000000000087e-04,1.300000000000000157e-04,-1.699999999999999851e-04,-2.399999999999999790e-04,-1.499999999999999869e-04,2.000000000000000164e-05,1.399999999999999877e-04,4.000000000000000000e+00,1.900000000000000000e+01
4.292800000000000000e+04,-4.000000000000000327e-05,-1.800000000000000113e-04,-1.899999999999999834e-04,-2.799999999999999755e-04,-3.899999999999999929e-04,-1.600000000000000131e-04,-1.600000000000000131e-04,-2.900000000000000017e-04,4.000000000000000000e+00,1.900000000000000000e+01
4.292900000000000000e+04,-4.000000000000000327e-05,-1.800000000000000113e-04,-1.899999999999999834e-04,-2.799999999999999755e-04,-3.899999999999999929e-04,-1.600000000000000131e-04,-1.600000000000000131e-04,-2.900000000000000017e-04,4.000000000000000000e+00,1.900000000000000000e+01
4.293000000000000000e+04,-4.000000000000000327e-05,-1.800000000000000113e-04,-1.899999999999999834e-04,-2.799999999999999755e-04,-3.899999999999999929e-04,-1.600000000000000131e-04,-1.600000000000000131e-04,-2.900000000000000017e-04,4.000000000000000000e+00,1.900000000000000000e+01
4.293100000000000000e+04,-4.000000000000000327e-05,-1.800000000000000113e-04,-1.899999999999999834e-04,-2.799999999999999755e-04,-3.899999999999999929e-04,-1.600000000000000131e-04,-1.600000000000000131e-04,-2.900000000000000017e-04,4.000000000000000000e+00,1.900000000000000000e+01
4.293200000000000000e+04,-4.000000000000000327e-05,-1.800000000000000113e-04,-1.899999999999999834e-04,-2.799999999999999755e-04,-3.899999999999999929e-04,-1.600000000000000131e-04,-1.600000000000000131e-04,-2.900000000000000017e-04,4.000000000000000000e+00,1.900000000000000000e+01
4.293300000000000000e+04,-4.000000000000000327e-05,-1.800000000000000113e-04,-1.899999999999999834e-04,-2.799999999999999755e-04,-3.899999999999999929e-04,-1.600000000000000131e-04,-1.600000000000000131e-04,-2.900000000000000017e-04,4.000000000000000000e+00,1.900000000000000000e+01
4.293400000000000000e+04,-4.000000000000000327e-05,-1.800000000000000113e-04,-1.899999999999999834e-04,-2.799999999999999755e-04,-3.899999999999999929e-04,-1.600000000000000131e-04,-1.600000000000000131e-04,-2.900000000000000017e-04,4.000000000000000000e+00,1.900000000000000000e+01
4.293500000000000000e+04,-4.000000000000000327e-05,-1.800000000000000113e-04,-1.899999999999999834e-04,-2.799999999999999755e-04,-3.899999999999999929e-04,-1.600000000000000131e-04,-1.600000000000000131e-04,-2.900000000000000017e-04,4.000000000000000000e+00,1.900000000000000000e+01
4.293600000000000000e+04,-4.000000000000000327e-05,-1.800000000000000113e-04,-1.899999999999999834e-04,-2.799999999999999755e-04,-3.899999999999999929e-04,-1.600000000000000131e-04,-1.600000000000000131e-04,-2.900000000000000017e-04,4.000000000000000000e+00,1.900000000000000000e+01
4.293800000000000000e+04,-4.000000000000000327e-05,-1.800000000000000113e-04,-1.899999999999999834e-04,-2.799999999999999755e-04,-3.899999999999999929e-04,-1.600000000000000131e-04,-1.600000000000000131e-04,-2.900000000000000017e-04,4.000000000000000000e+00,1.900000000000000000e+01
4.293900000000000000e+04,-4.000000000000000327e-05,-1.800000000000000113e-04,-1.899999999999999834e-04,-2.799999999999999755e-04,-3.899999999999999929e-04,-1.600000000000000131e-04,-1.600000000000000131e-04,-2.900000000000000017e-04,4.000000000000000000e+00,1.900000000000000000e+01
4.294000000000000000e+04,1.000000000000000082e-05,-5.999999999999999474e-05,-1.000000000000000048e-04,-6.999999999999999387e-05,-5.099999999999999282e-04,-2.100000000000000087e-04,-1.499999999999999869e-04,-5.999999999999999474e-05,4.000000000000000000e+00,1.900000000000000000e+01
4.294100000000000000e+04,1.000000000000000082e-05,-5.999999999999999474e-05,-1.000000000000000048e-04,-6.999999999999999387e-05,-5.099999999999999282e-04,-2.100000000000000087e-04,-1.499999999999999869e-04,-5.999999999999999474e-05,4.000000000000000000e+00,1.900000000000000000e+01
4.294200000000000000e+04,1.000000000000000082e-05,-5.999999999999999474e-05,-1.000000000000000048e-04,-6.999999999999999387e-05,-5.099999999999999282e-04,-2.100000000000000087e-04,-1.499999999999999869e-04,-5.999999999999999474e-05,4.000000000000000000e+00,1.900000000000000000e+01
4.294300000000000000e+04,1.000000000000000082e-05,-5.999999999999999474e-05,-1.000000000000000048e-04,-6.999999999999999387e-05,-5.099999999999999282e-04,-2.100000000000000087e-04,-1.499999999999999869e-04,-5.999999999999999474e-05,4.000000000000000000e+00,1.900000000000000000e+01
4.294400000000000000e+04,1.000000000000000082e-05,-5.999999999999999474e-05,-1.000000000000000048e-04,-6.999999999999999387e-05,-5.099999999999999282e-04,-2.100000000000000087e-04,-1.499999999999999869e-04,-5.999999999999999474e-05,4.000000000000000000e+00,1.900000000000000000e+01
4.294500000000000000e+04,1.000000000000000082e-05,-5.999999999999999474e-05,-1.000000000000000048e-04,-6.999999999999999387e-05,-5.099999999999999282e-04,-2.100000000000000087e-04,-1.499999999999999869e-04,-5.999999999999999474e-05,4.000000000000000000e+00,1.900000000000000000e+01
4.294600000000000000e+04,1.000000000000000082e-05,-5.999999999999999474e-05,-1.000000000000000048e-04,-6.999999999999999387e-05,-5.099999999999999282e-04,-2.100000000000000087e-04,-1.499999999999999869e-04,-5.999999999999999474e-05,4.000000000000000000e+00,1.900000000000000000e+01
4.294700000000000000e+04,1.000000000000000082e-05,-5.999999999999999474e-05,-1.000000000000000048e-04,-6.999999999999999387e-05,-5.099999999999999282e-04,-2.100000000000000087e-04,-1.499999999999999869e-04,-5.999999999999999474e-05,4.000000000000000000e+00,1.900000000000000000e+01
4.294800000000000000e+04,-2.000000000000000164e-05,-5.000000000000000240e-05,-1.199999999999999895e-04,-5.699999999999999772e-04,-2.999999999999999737e-04,-3.299999999999999982e-04,-1.399999999999999877e-04,9.000000000000000567e-05,4.000000000000000000e+00,1.900000000000000000e+01
4.294900000000000000e+04,-2.000000000000000164e-05,-5.000000000000000240e-05,-1.199999999999999895e-04,-5.699999999999999772e-04,-2.999999999999999737e-04,-3.299999999999999982e-04,-1.399999999999999877e-04,9.000000000000000567e-05,4.000000000000000000e+00,1.900000000000000000e+01
4.295000000000000000e+04,-2.000000000000000164e-05,-5.000000000000000240e-05,-1.199999999999999895e-04,-5.699999999999999772e-04,-2.999999999999999737e-04,-3.299999999999999982e-04,-1.399999999999999877e-04,9.000000000000000567e-05,4.000000000000000000e+00,1.900000000000000000e+01
4.295100000000000000e+04,-2.000000000000000164e-05,-5.000000000000000240e-05,-1.199999999999999895e-04,-5.699999999999999772e-04,-2.999999999999999737e-04,-3.299999999999999982e-04,-1.399999999999999877e-04,9.000000000000000567e-05,4.000000000000000000e+00,1.900000000000000000e+01
4.295200000000000000e+04,-2.000000000000000164e-05,-5.000000000000000240e-05,-1.199999999999999895e-04,-5.699999999999999772e-04,-2.999999999999999737e-04,-3.299999999999999982e-04,-1.399999999999999877e-04,9.000000000000000567e-05,4.000000000000000000e+00,1.900000000000000000e+01
4.295300000000000000e+04,-2.000000000000000164e-05,-5.000000000000000240e-05,-1.199999999999999895e-04,-5.699999999999999772e-04,-2.999999999999999737e-04,-3.299999999999999982e-04,-1.399999999999999877e-04,9.000000000000000567e-05,4.000000000000000000e+00,1.900000000000000000e+01
4.295400000000000000e+04,-2.000000000000000164e-05,-5.000000000000000240e-05,-1.199999999999999895e-04,-5.699999999999999772e-04,-2.999999999999999737e-04,-3.299999999999999982e-04,-1.399999999999999877e-04,9.000000000000000567e-05,4.000000000000000000e+00,1.900000000000000000e+01
4.295500000000000000e+04,-2.000000000000000164e-05,-5.000000000000000240e-05,-1.199999999999999895e-04,-5.699999999999999772e-04,-2.999999999999999737e-04,-3.299999999999999982e-04,-1.399999999999999877e-04,9.000000000000000567e-05,4.000000000000000000e+00,1.900000000000000000e+01
4.295600000000000000e+04,-1.000000000000000082e-05,2.999999999999999737e-05,0.000000000000000000e+00,-1.800000000000000113e-04,2.200000000000000078e-04,-3.699999999999999947e-04,-1.199999999999999895e-04,-1.000000000000000048e-04,4.000000000000000000e+00,1.900000000000000000e+01
4.295700000000000000e+04,-1.000000000000000082e-05,2.999999999999999737e-05,0.000000000000000000e+00,-1.800000000000000113e-04,2.200000000000000078e-04,-3.699999999999999947e-04,-1.199999999999999895e-04,-1.000000000000000048e-04,4.000000000000000000e+00,1.900000000000000000e+01
4.295800000000000000e+04,-1.000000000000000082e-05,2.999999999999999737e-05,0.000000000000000000e+00,-1.800000000000000113e-04,2.200000000000000078e-04,-3.699999999999999947e-04,-1.199999999999999895e-04,-1.000000000000000048e-04,4.000000000000000000e+00,1.900000000000000000e+01
4.295900000000000000e+04,-1.000000000000000082e-05,2.999999999999999737e-05,0.000000000000000000e+00,-1.800000000000000113e-04,2.200000000000000078e-04,-3.699999999999999947e-04,-1.199999999999999895e-04,-1.000000000000000048e-04,4.000000000000000000e+00,1.900000000000000000e+01
4.296000000000000000e+04,-1.000000000000000082e-05,2.999999999999999737e-05,0.000000000000000000e+00,-1.800000000000000113e-04,2.200000000000000078e-04,-3.699999999999999947e-04,-1.199999999999999895e-04,-1.000000000000000048e-04,4.000000000000000000e+00,1.900000000000000000e+01
4.296100000000000000e+04,-1.000000000000000082e-05,2.999999999999999737e-05,0.000000000000000000e+00,-1.800000000000000113e-04,2.200000000000000078e-04,-3.699999999999999947e-04,-1.199999999999999895e-04,-1.000000000000000048e-04,4.000000000000000000e+00,1.900000000000000000e+01
4.296200000000000000e+04,-1.000000000000000082e-05,2.999999999999999737e-05,0.000000000000000000e+00,-1.800000000000000113e-04,2.200000000000000078e-04,-3.699999999999999947e-04,-1.199999999999999895e-04,-1.000000000000000048e-04,4.000000000000000000e+00,1.900000000000000000e+01
4.296300000000000000e+04,-1.000000000000000082e-05,2.999999999999999737e-05,0.000000000000000000e+00,-1.800000000000000113e-04,2.200000000000000078e-04,-3.699999999999999947e-04,-1.199999999999999895e-04,-1.000000000000000048e-04,4.000000000000000000e+00,1.900000000000000000e+01
4.296400000000000000e+04,4.000000000000000327e-05,-2.999999999999999737e-05,2.100000000000000087e-04,9.400000000000000803e-04,8.000000000000000383e-04,4.599999999999999597e-04,2.000000000000000164e-05,-9.000000000000000567e-05,4.000000000000000000e+00,1.900000000000000000e+01
4.296500000000000000e+04,5.000000000000000240e-05,1.000000000000000048e-04,2.299999999999999799e-04,5.400000000000000069e-04,6.300000000000000261e-04,4.499999999999999877e-04,1.800000000000000113e-04,1.899999999999999834e-04,4.000000000000000000e+00,1.900000000000000000e+01
4.296600000000000000e+04,5.000000000000000240e-05,1.000000000000000048e-04,2.299999999999999799e-04,5.400000000000000069e-04,6.300000000000000261e-04,4.499999999999999877e-04,1.800000000000000113e-04,1.899999999999999834e-04,4.000000000000000000e+00,1.900000000000000000e+01
4.296700000000000000e+04,5.000000000000000240e-05,1.000000000000000048e-04,2.299999999999999799e-04,5.400000000000000069e-04,6.300000000000000261e-04,4.499999999999999877e-04,1.800000000000000113e-04,1.899999999999999834e-04,4.000000000000000000e+00,1.900000000000000000e+01
4.296800000000000000e+04,5.000000000000000240e-05,1.000000000000000048e-04,2.299999999999999799e-04,5.400000000000000069e-04,6.300000000000000261e-04,4.499999999999999877e-04,1.800000000000000113e-04,1.899999999999999834e-04,4.000000000000000000e+00,1.900000000000000000e+01
4.296900000000000000e+04,5.000000000000000240e-05,1.000000000000000048e-04,2.299999999999999799e-04,5.400000000000000069e-04,6.300000000000000261e-04,4.499999999999999877e-04,1.800000000000000113e-04,1.899999999999999834e-04,4.000000000000000000e+00,1.900000000000000000e+01
4.297000000000000000e+04,5.000000000000000240e-05,1.000000000000000048e-04,2.299999999999999799e-04,5.400000000000000069e-04,6.300000000000000261e-04,4.499999999999999877e-04,1.800000000000000113e-04,1.899999999999999834e-04,4.000000000000000000e+00,1.900000000000000000e+01
4.297100000000000000e+04,5.000000000000000240e-05,1.000000000000000048e-04,2.299999999999999799e-04,5.400000000000000069e-04,6.300000000000000261e-04,4.499999999999999877e-04,1.800000000000000113e-04,1.899999999999999834e-04,4.000000000000000000e+00,1.900000000000000000e+01
4.297200000000000000e+04,5.000000000000000240e-05,1.000000000000000048e-04,2.299999999999999799e-04,5.400000000000000069e-04,6.300000000000000261e-04,4.499999999999999877e-04,1.800000000000000113e-04,1.899999999999999834e-04,4.000000000000000000e+00,1.900000000000000000e+01
4.297300000000000000e+04,5.000000000000000240e-05,1.000000000000000048e-04,2.299999999999999799e-04,5.400000000000000069e-04,6.300000000000000261e-04,4.499999999999999877e-04,1.800000000000000113e-04,1.899999999999999834e-04,4.000000000000000000e+00,1.900000000000000000e+01
4.297400000000000000e+04,5.000000000000000240e-05,1.000000000000000048e-04,2.299999999999999799e-04,5.400000000000000069e-04,6.300000000000000261e-04,4.499999999999999877e-04,1.800000000000000113e-04,1.899999999999999834e-04,4.000000000000000000e+00,1.900000000000000000e+01
4.297500000000000000e+04,5.000000000000000240e-05,1.000000000000000048e-04,2.299999999999999799e-04,5.400000000000000069e-04,6.300000000000000261e-04,4.499999999999999877e-04,1.800000000000000113e-04,1.899999999999999834e-04,4.000000000000000000e+00,1.900000000000000000e+01
4.297600000000000000e+04,5.000000000000000240e-05,1.000000000000000048e-04,2.299999999999999799e-04,5.400000000000000069e-04,6.300000000000000261e-04,4.499999999999999877e-04,1.800000000000000113e-04,1.899999999999999834e-04,4.000000000000000000e+00,1.900000000000000000e+01
4.297700000000000000e+04,5.000000000000000240e-05,1.000000000000000048e-04,2.299999999999999799e-04,5.400000000000000069e-04,6.300000000000000261e-04,4.499999999999999877e-04,1.800000000000000113e-04,1.899999999999999834e-04,4.000000000000000000e+00,1.900000000000000000e+01
4.297800000000000000e+04,5.000000000000000240e-05,1.000000000000000048e-04,2.299999999999999799e-04,5.400000000000000069e-04,6.300000000000000261e-04,4.499999999999999877e-04,1.800000000000000113e-04,1.899999999999999834e-04,4.000000000000000000e+00,1.900000000000000000e+01
4.297900000000000000e+04,5.000000000000000240e-05,1.000000000000000048e-04,2.299999999999999799e-04,5.400000000000000069e-04,6.300000000000000261e-04,4.499999999999999877e-04,1.800000000000000113e-04,1.899999999999999834e-04,4.000000000000000000e+00,1.900000000000000000e+01
4.298000000000000000e+04,5.000000000000000240e-05,1.000000000000000048e-04,2.299999999999999799e-04,5.400000000000000069e-04,6.300000000000000261e-04,4.499999999999999877e-04,1.800000000000000113e-04,1.899999999999999834e-04,4.000000000000000000e+00,1.900000000000000000e+01
4.298100000000000000e+04,5.000000000000000240e-05,1.000000000000000048e-04,2.299999999999999799e-04,5.400000000000000069e-04,6.300000000000000261e-04,4.499999999999999877e-04,1.800000000000000113e-04,1.899999999999999834e-04,4.000000000000000000e+00,1.900000000000000000e+01
4.298200000000000000e+04,5.000000000000000240e-05,1.000000000000000048e-04,2.299999999999999799e-04,5.400000000000000069e-04,6.300000000000000261e-04,4.499999999999999877e-04,1.800000000000000113e-04,1.899999999999999834e-04,4.000000000000000000e+00,1.900000000000000000e+01
4.298300000000000000e+04,5.000000000000000240e-05,1.000000000000000048e-04,2.299999999999999799e-04,5.400000000000000069e-04,6.300000000000000261e-04,4.499999999999999877e-04,1.800000000000000113e-04,1.899999999999999834e-04,4.000000000000000000e+00,1.900000000000000000e+01
4.298400000000000000e+04,5.000000000000000240e-05,1.000000000000000048e-04,2.299999999999999799e-04,5.400000000000000069e-04,6.300000000000000261e-04,4.499999999999999877e-04,1.800000000000000113e-04,1.899999999999999834e-04,4.000000000000000000e+00,1.900000000000000000e+01
4.298500000000000000e+04,5.000000000000000240e-05,1.000000000000000048e-04,2.299999999999999799e-04,5.400000000000000069e-04,6.300000000000000261e-04,4.499999999999999877e-04,1.800000000000000113e-04,1.899999999999999834e-04,4.000000000000000000e+00,1.900000000000000000e+01
4.298600000000000000e+04,8.000000000000000654e-05,3.200000000000000262e-04,4.200000000000000174e-04,9.400000000000000803e-04,7.500000000000000156e-04,4.000000000000000192e-04,2.100000000000000087e-04,1.600000000000000131e-04,4.000000000000000000e+00,1.900000000000000000e+01
4.298800000000000000e+04,-2.999999999999999737e-05,-5.000000000000000240e-05,-1.699999999999999851e-04,-5.000000000000000240e-05,-2.500000000000000052e-04,-2.799999999999999755e-04,-6.999999999999999387e-05,1.000000000000000048e-04,4.000000000000000000e+00,1.900000000000000000e+01
4.298900000000000000e+04,-2.999999999999999737e-05,-5.000000000000000240e-05,-1.699999999999999851e-04,-5.000000000000000240e-05,-2.500000000000000052e-04,-2.799999999999999755e-04,-6.999999999999999387e-05,1.000000000000000048e-04,4.000000000000000000e+00,1.900000000000000000e+01
4.299000000000000000e+04,-2.999999999999999737e-05,-5.000000000000000240e-05,-1.699999999999999851e-04,-5.000000000000000240e-05,-2.500000000000000052e-04,-2.799999999999999755e-04,-6.999999999999999387e-05,1.000000000000000048e-04,4.000000000000000000e+00,1.900000000000000000e+01
4.299100000000000000e+04,-2.999999999999999737e-05,-5.000000000000000240e-05,-1.699999999999999851e-04,-5.000000000000000240e-05,-2.500000000000000052e-04,-2.799999999999999755e-04,-6.999999999999999387e-05,1.000000000000000048e-04,4.000000000000000000e+00,1.900000000000000000e+01
4.299200000000000000e+04,-2.999999999999999737e-05,-5.000000000000000240e-05,-1.699999999999999851e-04,-5.000000000000000240e-05,-2.500000000000000052e-04,-2.799999999999999755e-04,-6.999999999999999387e-05,1.000000000000000048e-04,4.000000000000000000e+00,1.900000000000000000e+01
4.299300000000000000e+04,-2.999999999999999737e-05,-5.000000000000000240e-05,-1.699999999999999851e-04,-5.000000000000000240e-05,-2.500000000000000052e-04,-2.799999999999999755e-04,-6.999999999999999387e-05,1.000000000000000048e-04,4.000000000000000000e+00,1.900000000000000000e+01
4.299400000000000000e+04,-2.999999999999999737e-05,-5.000000000000000240e-05,-1.699999999999999851e-04,-5.000000000000000240e-05,-2.500000000000000052e-04,-2.799999999999999755e-04,-6.999999999999999387e-05,1.000000000000000048e-04,4.000000000000000000e+00,1.900000000000000000e+01
4.299500000000000000e+04,-2.999999999999999737e-05,-5.000000000000000240e-05,-1.699999999999999851e-04,-5.000000000000000240e-05,-2.500000000000000052e-04,-2.799999999999999755e-04,-6.999999999999999387e-05,1.000000000000000048e-04,4.000000000000000000e+00,1.900000000000000000e+01
4.299600000000000000e+04,-2.999999999999999737e-05,-5.000000000000000240e-05,-1.699999999999999851e-04,-5.000000000000000240e-05,-2.500000000000000052e-04,-2.799999999999999755e-04,-6.999999999999999387e-05,1.000000000000000048e-04,4.000000000000000000e+00,1.900000000000000000e+01
4.299700000000000000e+04,-2.999999999999999737e-05,-5.000000000000000240e-05,-1.699999999999999851e-04,-5.000000000000000240e-05,-2.500000000000000052e-04,-2.799999999999999755e-04,-6.999999999999999387e-05,1.000000000000000048e-04,4.000000000000000000e+00,1.900000000000000000e+01
4.299800000000000000e+04,-2.999999999999999737e-05,-5.000000000000000240e-05,-1.699999999999999851e-04,-5.000000000000000240e-05,-2.500000000000000052e-04,-2.799999999999999755e-04,-6.999999999999999387e-05,1.000000000000000048e-04,4.000000000000000000e+00,1.900000000000000000e+01
4.299900000000000000e+04,-2.999999999999999737e-05,-5.000000000000000240e-05,-1.699999999999999851e-04,-5.000000000000000240e-05,-2.500000000000000052e-04,-2.799999999999999755e-04,-6.999999999999999387e-05,1.000000000000000048e-04,4.000000000000000000e+00,1.900000000000000000e+01
4.300000000000000000e+04,-2.999999999999999737e-05,-5.000000000000000240e-05,-1.699999999999999851e-04,-5.000000000000000240e-05,-2.500000000000000052e-04,-2.799999999999999755e-04,-6.999999999999999387e-05,1.000000000000000048e-04,4.000000000000000000e+00,1.900000000000000000e+01
4.300100000000000000e+04,-2.999999999999999737e-05,-5.000000000000000240e-05,-1.699999999999999851e-04,-5.000000000000000240e-05,-2.500000000000000052e-04,-2.799999999999999755e-04,-6.999999999999999387e-05,1.000000000000000048e-04,4.000000000000000000e+00,1.900000000000000000e+01
4.300200000000000000e+04,-2.999999999999999737e-05,-5.000000000000000240e-05,-1.699999999999999851e-04,-5.000000000000000240e-05,-2.500000000000000052e-04,-2.799999999999999755e-04,-6.999999999999999387e-05,1.000000000000000048e-04,4.000000000000000000e+00,1.900000000000000000e+01
4.300300000000000000e+04,-2.999999999999999737e-05,-5.000000000000000240e-05,-1.699999999999999851e-04,-5.000000000000000240e-05,-2.500000000000000052e-04,-2.799999999999999755e-04,-6.999999999999999387e-05,1.000000000000000048e-04,4.000000000000000000e+00,1.900000000000000000e+01
4.300400000000000000e+04,-2.999999999999999737e-05,-5.000000000000000240e-05,-1.699999999999999851e-04,-5.000000000000000240e-05,-2.500000000000000052e-04,-2.799999999999999755e-04,-6.999999999999999387e-05,1.000000000000000048e-04,4.000000000000000000e+00,1.900000000000000000e+01
4.300500000000000000e+04,-2.999999999999999737e-05,-5.000000000000000240e-05,-1.699999999999999851e-04,-5.000000000000000240e-05,-2.500000000000000052e-04,-2.799999999999999755e-04,-6.999999999999999387e-05,1.000000000000000048e-04,4.000000000000000000e+00,1.900000000000000000e+01
4.300600000000000000e+04,-2.999999999999999737e-05,-5.000000000000000240e-05,-1.699999999999999851e-04,-5.000000000000000240e-05,-2.500000000000000052e-04,-2.799999999999999755e-04,-6.999999999999999387e-05,1.000000000000000048e-04,4.000000000000000000e+00,1.900000000000000000e+01
4.300700000000000000e+04,-2.999999999999999737e-05,-5.000000000000000240e-05,-1.699999999999999851e-04,-5.000000000000000240e-05,-2.500000000000000052e-04,-2.799999999999999755e-04,-6.999999999999999387e-05,1.000000000000000048e-04,4.000000000000000000e+00,1.900000000000000000e+01
4.300800000000000000e+04,-2.999999999999999737e-05,-1.100000000000000039e-04,-1.899999999999999834e-04,-1.800000000000000113e-04,9.000000000000000567e-05,-2.000000000000000164e-05,-1.800000000000000113e-04,-4.000000000000000327e-05,4.000000000000000000e+00,1.900000000000000000e+01
4.300900000000000000e+04,-2.000000000000000164e-05,-9.000000000000000567e-05,-9.000000000000000567e-05,-8.000000000000000654e-05,-3.799999999999999667e-04,2.000000000000000164e-05,2.000000000000000164e-05,1.000000000000000082e-05,4.000000000000000000e+00,1.900000000000000000e+01
4.301000000000000000e+04,1.199999999999999895e-04,2.299999999999999799e-04,3.499999999999999964e-04,9.400000000000000803e-04,3.899999999999999929e-04,4.099999999999999912e-04,1.899999999999999834e-04,9.000000000000000567e-05,4.000000000000000000e+00,1.900000000000000000e+01
4.301100000000000000e+04,1.199999999999999895e-04,2.299999999999999799e-04,3.499999999999999964e-04,9.400000000000000803e-04,3.899999999999999929e-04,4.099999999999999912e-04,1.899999999999999834e-04,9.000000000000000567e-05,4.000000000000000000e+00,1.900000000000000000e+01
4.301200000000000000e+04,1.199999999999999895e-04,2.299999999999999799e-04,3.499999999999999964e-04,9.400000000000000803e-04,3.899999999999999929e-04,4.099999999999999912e-04,1.899999999999999834e-04,9.000000000000000567e-05,4.000000000000000000e+00,1.900000000000000000e+01
4.301300000000000000e+04,1.199999999999999895e-04,2.299999999999999799e-04,3.499999999999999964e-04,9.400000000000000803e-04,3.899999999999999929e-04,4.099999999999999912e-04,1.899999999999999834e-04,9.000000000000000567e-05,4.000000000000000000e+00,1.900000000000000000e+01
4.301400000000000000e+04,1.199999999999999895e-04,2.299999999999999799e-04,3.499999999999999964e-04,9.400000000000000803e-04,3.899999999999999929e-04,4.099999999999999912e-04,1.899999999999999834e-04,9.000000000000000567e-05,4.000000000000000000e+00,1.900000000000000000e+01
4.301500000000000000e+04,1.199999999999999895e-04,2.299999999999999799e-04,3.499999999999999964e-04,9.400000000000000803e-04,3.899999999999999929e-04,4.099999999999999912e-04,1.899999999999999834e-04,9.000000000000000567e-05,4.000000000000000000e+00,1.900000000000000000e+01
4.301600000000000000e+04,1.199999999999999895e-04,2.299999999999999799e-04,3.499999999999999964e-04,9.400000000000000803e-04,3.899999999999999929e-04,4.099999999999999912e-04,1.899999999999999834e-04,9.000000000000000567e-05,4.000000000000000000e+00,1.900000000000000000e+01
4.301700000000000000e+04,1.199999999999999895e-04,2.299999999999999799e-04,3.499999999999999964e-04,9.400000000000000803e-04,3.899999999999999929e-04,4.099999999999999912e-04,1.899999999999999834e-04,9.000000000000000567e-05,4.000000000000000000e+00,1.900000000000000000e+01
4.301800000000000000e+04,1.199999999999999895e-04,2.299999999999999799e-04,3.499999999999999964e-04,9.400000000000000803e-04,3.899999999999999929e-04,4.099999999999999912e-04,1.899999999999999834e-04,9.000000000000000567e-05,4.000000000000000000e+00,1.900000000000000000e+01
4.301900000000000000e+04,1.199999999999999895e-04,2.299999999999999799e-04,3.499999999999999964e-04,9.400000000000000803e-04,3.899999999999999929e-04,4.099999999999999912e-04,1.899999999999999834e-04,9.000000000000000567e-05,4.000000000000000000e+00,1.900000000000000000e+01
4.302000000000000000e+04,1.199999999999999895e-04,2.299999999999999799e-04,3.499999999999999964e-04,9.400000000000000803e-04,3.899999999999999929e-04,4.099999999999999912e-04,1.899999999999999834e-04,9.000000000000000567e-05,4.000000000000000000e+00,1.900000000000000000e+01
4.302100000000000000e+04,1.199999999999999895e-04,2.299999999999999799e-04,3.499999999999999964e-04,9.400000000000000803e-04,3.899999999999999929e-04,4.099999999999999912e-04,1.899999999999999834e-04,9.000000000000000567e-05,4.000000000000000000e+00,1.900000000000000000e+01
4.302200000000000000e+04,1.199999999999999895e-04,2.299999999999999799e-04,3.499999999999999964e-04,9.400000000000000803e-04,3.899999999999999929e-04,4.099999999999999912e-04,1.899999999999999834e-04,9.000000000000000567e-05,4.000000000000000000e+00,1.900000000000000000e+01
4.302300000000000000e+04,1.199999999999999895e-04,2.299999999999999799e-04,3.499999999999999964e-04,9.400000000000000803e-04,3.899999999999999929e-04,4.099999999999999912e-04,1.899999999999999834e-04,9.000000000000000567e-05,4.000000000000000000e+00,1.900000000000000000e+01
4.302400000000000000e+04,1.199999999999999895e-04,2.299999999999999799e-04,3.499999999999999964e-04,9.400000000000000803e-04,3.899999999999999929e-04,4.099999999999999912e-04,1.899999999999999834e-04,9.000000000000000567e-05,4.000000000000000000e+00,1.900000000000000000e+01
4.302500000000000000e+04,1.199999999999999895e-04,2.299999999999999799e-04,3.499999999999999964e-04,9.400000000000000803e-04,3.899999999999999929e-04,4.099999999999999912e-04,1.899999999999999834e-04,9.000000000000000567e-05,4.000000000000000000e+00,1.900000000000000000e+01
4.302600000000000000e+04,1.199999999999999895e-04,2.299999999999999799e-04,3.499999999999999964e-04,9.400000000000000803e-04,3.899999999999999929e-04,4.099999999999999912e-04,1.899999999999999834e-04,9.000000000000000567e-05,4.000000000000000000e+00,1.900000000000000000e+01
4.302700000000000000e+04,1.199999999999999895e-04,2.299999999999999799e-04,3.499999999999999964e-04,9.400000000000000803e-04,3.899999999999999929e-04,4.099999999999999912e-04,1.899999999999999834e-04,9.000000000000000567e-05,4.000000000000000000e+00,1.900000000000000000e+01
4.302800000000000000e+04,1.199999999999999895e-04,2.299999999999999799e-04,3.499999999999999964e-04,9.400000000000000803e-04,3.899999999999999929e-04,4.099999999999999912e-04,1.899999999999999834e-04,9.000000000000000567e-05,4.000000000000000000e+00,1.900000000000000000e+01
4.302900000000000000e+04,1.199999999999999895e-04,2.299999999999999799e-04,3.499999999999999964e-04,9.400000000000000803e-04,3.899999999999999929e-04,4.099999999999999912e-04,1.899999999999999834e-04,9.000000000000000567e-05,4.000000000000000000e+00,1.900000000000000000e+01
4.303000000000000000e+04,1.199999999999999895e-04,2.299999999999999799e-04,3.499999999999999964e-04,9.400000000000000803e-04,3.899999999999999929e-04,4.099999999999999912e-04,1.899999999999999834e-04,9.000000000000000567e-05,4.000000000000000000e+00,1.900000000000000000e+01
4.303100000000000000e+04,1.199999999999999895e-04,2.299999999999999799e-04,3.499999999999999964e-04,9.400000000000000803e-04,3.899999999999999929e-04,4.099999999999999912e-04,1.899999999999999834e-04,9.000000000000000567e-05,4.000000000000000000e+00,1.900000000000000000e+01
4.303200000000000000e+04,1.199999999999999895e-04,2.299999999999999799e-04,3.499999999999999964e-04,9.400000000000000803e-04,3.899999999999999929e-04,4.099999999999999912e-04,1.899999999999999834e-04,9.000000000000000567e-05,4.000000000000000000e+00,1.900000000000000000e+01
4.303300000000000000e+04,1.199999999999999895e-04,2.299999999999999799e-04,3.499999999999999964e-04,9.400000000000000803e-04,3.899999999999999929e-04,4.099999999999999912e-04,1.899999999999999834e-04,9.000000000000000567e-05,4.000000000000000000e+00,1.900000000000000000e+01
4.303400000000000000e+04,1.199999999999999895e-04,2.299999999999999799e-04,3.499999999999999964e-04,9.400000000000000803e-04,3.899999999999999929e-04,4.099999999999999912e-04,1.899999999999999834e-04,9.000000000000000567e-05,4.000000000000000000e+00,1.900000000000000000e+01
4.303500000000000000e+04,1.199999999999999895e-04,2.299999999999999799e-04,3.499999999999999964e-04,9.400000000000000803e-04,3.899999999999999929e-04,4.099999999999999912e-04,1.899999999999999834e-04,9.000000000000000567e-05,4.000000000000000000e+00,1.900000000000000000e+01
4.303600000000000000e+04,1.199999999999999895e-04,2.299999999999999799e-04,3.499999999999999964e-04,9.400000000000000803e-04,3.899999999999999929e-04,4.099999999999999912e-04,1.899999999999999834e-04,9.000000000000000567e-05,4.000000000000000000e+00,1.900000000000000000e+01
4.303800000000000000e+04,-1.100000000000000039e-04,-2.200000000000000078e-04,-2.200000000000000078e-04,-3.499999999999999964e-04,1.000000000000000048e-04,-2.799999999999999755e-04,-2.000000000000000164e-05,-6.999999999999999387e-05,4.000000000000000000e+00,1.900000000000000000e+01
4.303900000000000000e+04,1.100000000000000039e-04,2.299999999999999799e-04,2.100000000000000087e-04,-4.400000000000000157e-04,-4.499999999999999877e-04,-6.999999999999999387e-05,5.999999999999999474e-05,1.199999999999999895e-04,4.000000000000000000e+00,1.900000000000000000e+01
4.304000000000000000e+04,-1.300000000000000157e-04,-2.399999999999999790e-04,-3.299999999999999982e-04,-5.999999999999999474e-04,-6.300000000000000261e-04,-2.999999999999999737e-04,-1.100000000000000039e-04,-9.000000000000000567e-05,4.000000000000000000e+00,1.900000000000000000e+01
4.304100000000000000e+04,-1.300000000000000157e-04,-2.399999999999999790e-04,-3.299999999999999982e-04,-5.999999999999999474e-04,-6.300000000000000261e-04,-2.999999999999999737e-04,-1.100000000000000039e-04,-9.000000000000000567e-05,4.000000000000000000e+00,1.900000000000000000e+01
4.304200000000000000e+04,-1.300000000000000157e-04,-2.399999999999999790e-04,-3.299999999999999982e-04,-5.999999999999999474e-04,-6.300000000000000261e-04,-2.999999999999999737e-04,-1.100000000000000039e-04,-9.000000000000000567e-05,4.000000000000000000e+00,1.900000000000000000e+01
4.304300000000000000e+04,-1.300000000000000157e-04,-2.399999999999999790e-04,-3.299999999999999982e-04,-5.999999999999999474e-04,-6.300000000000000261e-04,-2.999999999999999737e-04,-1.100000000000000039e-04,-9.000000000000000567e-05,4.000000000000000000e+00,1.900000000000000000e+01
4.304400000000000000e+04,-1.300000000000000157e-04,-2.399999999999999790e-04,-3.299999999999999982e-04,-5.999999999999999474e-04,-6.300000000000000261e-04,-2.999999999999999737e-04,-1.100000000000000039e-04,-9.000000000000000567e-05,4.000000000000000000e+00,1.900000000000000000e+01
4.304500000000000000e+04,-1.300000000000000157e-04,-2.399999999999999790e-04,-3.299999999999999982e-04,-5.999999999999999474e-04,-6.300000000000000261e-04,-2.999999999999999737e-04,-1.100000000000000039e-04,-9.000000000000000567e-05,4.000000000000000000e+00,1.900000000000000000e+01
