4.440600000000000000e+04,1.800000000000000113e-04,4.099999999999999912e-04,9.000000000000000567e-05,-2.999999999999999737e-05,0.000000000000000000e+00,-4.000000000000000327e-05,-6.999999999999999387e-05,6.999999999999999387e-05,3.000000000000000000e+00,1.700000000000000000e+01
4.440700000000000000e+04,1.800000000000000113e-04,4.099999999999999912e-04,9.000000000000000567e-05,-2.999999999999999737e-05,0.000000000000000000e+00,-4.000000000000000327e-05,-6.999999999999999387e-05,6.999999999999999387e-05,3.000000000000000000e+00,1.700000000000000000e+01
4.440800000000000000e+04,1.800000000000000113e-04,4.099999999999999912e-04,9.000000000000000567e-05,-2.999999999999999737e-05,0.000000000000000000e+00,-4.000000000000000327e-05,-6.999999999999999387e-05,6.999999999999999387e-05,3.000000000000000000e+00,1.700000000000000000e+01
4.440900000000000000e+04,1.800000000000000113e-04,4.099999999999999912e-04,9.000000000000000567e-05,-2.999999999999999737e-05,0.000000000000000000e+00,-4.000000000000000327e-05,-6.999999999999999387e-05,6.999999999999999387e-05,3.000000000000000000e+00,1.700000000000000000e+01
4.441000000000000000e+04,-1.300000000000000157e-04,1.000000000000000082e-05,2.999999999999999737e-05,5.999999999999999474e-05,1.600000000000000131e-04,1.000000000000000082e-05,9.000000000000000567e-05,6.999999999999999387e-05,3.000000000000000000e+00,1.700000000000000000e+01
4.441100000000000000e+04,-1.300000000000000157e-04,1.000000000000000082e-05,2.999999999999999737e-05,5.999999999999999474e-05,1.600000000000000131e-04,1.000000000000000082e-05,9.000000000000000567e-05,6.999999999999999387e-05,3.000000000000000000e+00,1.700000000000000000e+01
4.441200000000000000e+04,-1.300000000000000157e-04,1.000000000000000082e-05,2.999999999999999737e-05,5.999999999999999474e-05,1.600000000000000131e-04,1.000000000000000082e-05,9.000000000000000567e-05,6.999999999999999387e-05,3.000000000000000000e+00,1.700000000000000000e+01
4.441300000000000000e+04,-1.300000000000000157e-04,1.000000000000000082e-05,2.999999999999999737e-05,5.999999999999999474e-05,1.600000000000000131e-04,1.000000000000000082e-05,9.000000000000000567e-05,6.999999999999999387e-05,3.000000000000000000e+00,1.700000000000000000e+01
4.441400000000000000e+04,-1.300000000000000157e-04,1.000000000000000082e-05,2.999999999999999737e-05,5.999999999999999474e-05,1.600000000000000131e-04,1.000000000000000082e-05,9.000000000000000567e-05,6.999999999999999387e-05,3.000000000000000000e+00,1.700000000000000000e+01
4.441500000000000000e+04,-1.300000000000000157e-04,1.000000000000000082e-05,2.999999999999999737e-05,5.999999999999999474e-05,1.600000000000000131e-04,1.000000000000000082e-05,9.000000000000000567e-05,6.999999999999999387e-05,3.000000000000000000e+00,1.700000000000000000e+01
4.441600000000000000e+04,-1.300000000000000157e-04,1.000000000000000082e-05,2.999999999999999737e-05,5.999999999999999474e-05,1.600000000000000131e-04,1.000000000000000082e-05,9.000000000000000567e-05,6.999999999999999387e-05,3.000000000000000000e+00,1.700000000000000000e+01
4.441700000000000000e+04,-1.300000000000000157e-04,1.000000000000000082e-05,2.999999999999999737e-05,5.999999999999999474e-05,1.600000000000000131e-04,1.000000000000000082e-05,9.000000000000000567e-05,6.999999999999999387e-05,3.000000000000000000e+00,1.700000000000000000e+01
4.441800000000000000e+04,-1.300000000000000157e-04,1.000000000000000082e-05,2.999999999999999737e-05,5.999999999999999474e-05,1.600000000000000131e-04,1.000000000000000082e-05,9.000000000000000567e-05,6.999999999999999387e-05,3.000000000000000000e+00,1.700000000000000000e+01
4.441900000000000000e+04,-1.300000000000000157e-04,1.000000000000000082e-05,2.999999999999999737e-05,5.999999999999999474e-05,1.600000000000000131e-04,1.000000000000000082e-05,9.000000000000000567e-05,6.999999999999999387e-05,3.000000000000000000e+00,1.700000000000000000e+01
4.442000000000000000e+04,-1.300000000000000157e-04,1.000000000000000082e-05,2.999999999999999737e-05,5.999999999999999474e-05,1.600000000000000131e-04,1.000000000000000082e-05,9.000000000000000567e-05,6.999999999999999387e-05,3.000000000000000000e+00,1.700000000000000000e+01
4.442100000000000000e+04,-1.300000000000000157e-04,1.000000000000000082e-05,2.999999999999999737e-05,5.999999999999999474e-05,1.600000000000000131e-04,1.000000000000000082e-05,9.000000000000000567e-05,6.999999999999999387e-05,3.000000000000000000e+00,1.700000000000000000e+01
4.442200000000000000e+04,-1.300000000000000157e-04,1.000000000000000082e-05,2.999999999999999737e-05,5.999999999999999474e-05,1.600000000000000131e-04,1.000000000000000082e-05,9.000000000000000567e-05,6.999999999999999387e-05,3.000000000000000000e+00,1.700000000000000000e+01
4.442300000000000000e+04,-1.300000000000000157e-04,1.000000000000000082e-05,2.999999999999999737e-05,5.999999999999999474e-05,1.600000000000000131e-04,1.000000000000000082e-05,9.000000000000000567e-05,6.999999999999999387e-05,3.000000000000000000e+00,1.700000000000000000e+01
4.442400000000000000e+04,-1.300000000000000157e-04,1.000000000000000082e-05,2.999999999999999737e-05,5.999999999999999474e-05,1.600000000000000131e-04,1.000000000000000082e-05,9.000000000000000567e-05,6.999999999999999387e-05,3.000000000000000000e+00,1.700000000000000000e+01
4.442500000000000000e+04,-1.300000000000000157e-04,1.000000000000000082e-05,2.999999999999999737e-05,5.999999999999999474e-05,1.600000000000000131e-04,1.000000000000000082e-05,9.000000000000000567e-05,6.999999999999999387e-05,3.000000000000000000e+00,1.700000000000000000e+01
4.442600000000000000e+04,2.100000000000000087e-04,3.299999999999999982e-04,5.000000000000000240e-05,-1.000000000000000048e-04,-2.299999999999999799e-04,-5.999999999999999474e-05,-6.999999999999999387e-05,0.000000000000000000e+00,3.000000000000000000e+00,1.700000000000000000e+01
4.442700000000000000e+04,-1.899999999999999834e-04,-3.699999999999999947e-04,-4.000000000000000327e-05,1.699999999999999851e-04,5.000000000000000104e-04,1.300000000000000157e-04,1.100000000000000039e-04,-1.000000000000000082e-05,3.000000000000000000e+00,1.700000000000000000e+01
4.442800000000000000e+04,-1.899999999999999834e-04,-3.699999999999999947e-04,-4.000000000000000327e-05,1.699999999999999851e-04,5.000000000000000104e-04,1.300000000000000157e-04,1.100000000000000039e-04,-1.000000000000000082e-05,3.000000000000000000e+00,1.700000000000000000e+01
4.442900000000000000e+04,-1.899999999999999834e-04,-3.699999999999999947e-04,-4.000000000000000327e-05,1.699999999999999851e-04,5.000000000000000104e-04,1.300000000000000157e-04,1.100000000000000039e-04,-1.000000000000000082e-05,3.000000000000000000e+00,1.700000000000000000e+01
4.443000000000000000e+04,-1.899999999999999834e-04,-3.699999999999999947e-04,-4.000000000000000327e-05,1.699999999999999851e-04,5.000000000000000104e-04,1.300000000000000157e-04,1.100000000000000039e-04,-1.000000000000000082e-05,3.000000000000000000e+00,1.700000000000000000e+01
4.443100000000000000e+04,-1.899999999999999834e-04,-3.699999999999999947e-04,-4.000000000000000327e-05,1.699999999999999851e-04,5.000000000000000104e-04,1.300000000000000157e-04,1.100000000000000039e-04,-1.000000000000000082e-05,3.000000000000000000e+00,1.700000000000000000e+01
4.443200000000000000e+04,-1.899999999999999834e-04,-3.699999999999999947e-04,-4.000000000000000327e-05,1.699999999999999851e-04,5.000000000000000104e-04,1.300000000000000157e-04,1.100000000000000039e-04,-1.000000000000000082e-05,3.000000000000000000e+00,1.700000000000000000e+01
4.443300000000000000e+04,-1.899999999999999834e-04,-3.699999999999999947e-04,-4.000000000000000327e-05,1.699999999999999851e-04,5.000000000000000104e-04,1.300000000000000157e-04,1.100000000000000039e-04,-1.000000000000000082e-05,3.000000000000000000e+00,1.700000000000000000e+01
4.443400000000000000e+04,-1.899999999999999834e-04,-3.699999999999999947e-04,-4.000000000000000327e-05,1.699999999999999851e-04,5.000000000000000104e-04,1.300000000000000157e-04,1.100000000000000039e-04,-1.000000000000000082e-05,3.000000000000000000e+00,1.700000000000000000e+01
4.443500000000000000e+04,-1.899999999999999834e-04,-3.699999999999999947e-04,-4.000000000000000327e-05,1.699999999999999851e-04,5.000000000000000104e-04,1.300000000000000157e-04,1.100000000000000039e-04,-1.000000000000000082e-05,3.000000000000000000e+00,1.700000000000000000e+01
4.443600000000000000e+04,-1.899999999999999834e-04,-3.699999999999999947e-04,-4.000000000000000327e-05,1.699999999999999851e-04,5.000000000000000104e-04,1.300000000000000157e-04,1.100000000000000039e-04,-1.000000000000000082e-05,3.000000000000000000e+00,1.700000000000000000e+01
4.443800000000000000e+04,-1.899999999999999834e-04,-3.699999999999999947e-04,-4.000000000000000327e-05,1.699999999999999851e-04,5.000000000000000104e-04,1.300000000000000157e-04,1.100000000000000039e-04,-1.000000000000000082e-05,3.000000000000000000e+00,1.700000000000000000e+01
4.443900000000000000e+04,-1.899999999999999834e-04,-3.699999999999999947e-04,-4.000000000000000327e-05,1.699999999999999851e-04,5.000000000000000104e-04,1.300000000000000157e-04,1.100000000000000039e-04,-1.000000000000000082e-05,3.000000000000000000e+00,1.700000000000000000e+01
4.444000000000000000e+04,-1.899999999999999834e-04,-3.699999999999999947e-04,-4.000000000000000327e-05,1.699999999999999851e-04,5.000000000000000104e-04,1.300000000000000157e-04,1.100000000000000039e-04,-1.000000000000000082e-05,3.000000000000000000e+00,1.700000000000000000e+01
4.444100000000000000e+04,-1.899999999999999834e-04,-3.699999999999999947e-04,-4.000000000000000327e-05,1.699999999999999851e-04,5.000000000000000104e-04,1.300000000000000157e-04,1.100000000000000039e-04,-1.000000000000000082e-05,3.000000000000000000e+00,1.700000000000000000e+01
4.444200000000000000e+04,-1.899999999999999834e-04,-3.699999999999999947e-04,-4.000000000000000327e-05,1.699999999999999851e-04,5.000000000000000104e-04,1.300000000000000157e-04,1.100000000000000039e-04,-1.000000000000000082e-05,3.000000000000000000e+00,1.700000000000000000e+01
4.444300000000000000e+04,-1.899999999999999834e-04,-3.699999999999999947e-04,-4.000000000000000327e-05,1.699999999999999851e-04,5.000000000000000104e-04,1.300000000000000157e-04,1.100000000000000039e-04,-1.000000000000000082e-05,3.000000000000000000e+00,1.700000000000000000e+01
4.444400000000000000e+04,-1.899999999999999834e-04,-3.699999999999999947e-04,-4.000000000000000327e-05,1.699999999999999851e-04,5.000000000000000104e-04,1.300000000000000157e-04,1.100000000000000039e-04,-1.000000000000000082e-05,3.000000000000000000e+00,1.700000000000000000e+01
4.444500000000000000e+04,-1.899999999999999834e-04,-3.699999999999999947e-04,-4.000000000000000327e-05,1.699999999999999851e-04,5.000000000000000104e-04,1.300000000000000157e-04,1.100000000000000039e-04,-1.000000000000000082e-05,3.000000000000000000e+00,1.700000000000000000e+01
4.444600000000000000e+04,-1.899999999999999834e-04,-3.699999999999999947e-04,-4.000000000000000327e-05,1.699999999999999851e-04,5.000000000000000104e-04,1.300000000000000157e-04,1.100000000000000039e-04,-1.000000000000000082e-05,3.000000000000000000e+00,1.700000000000000000e+01
4.444700000000000000e+04,-3.299999999999999982e-04,-4.599999999999999597e-04,-4.000000000000000327e-05,-4.000000000000000327e-05,-8.000000000000000654e-05,-9.000000000000000567e-05,-2.000000000000000164e-05,-4.000000000000000192e-04,3.000000000000000000e+00,1.700000000000000000e+01
4.444800000000000000e+04,-3.299999999999999982e-04,-4.599999999999999597e-04,-4.000000000000000327e-05,-4.000000000000000327e-05,-8.000000000000000654e-05,-9.000000000000000567e-05,-2.000000000000000164e-05,-4.000000000000000192e-04,3.000000000000000000e+00,1.700000000000000000e+01
4.444900000000000000e+04,-3.299999999999999982e-04,-4.599999999999999597e-04,-4.000000000000000327e-05,-4.000000000000000327e-05,-8.000000000000000654e-05,-9.000000000000000567e-05,-2.000000000000000164e-05,-4.000000000000000192e-04,3.000000000000000000e+00,1.700000000000000000e+01
4.445000000000000000e+04,-3.299999999999999982e-04,-4.599999999999999597e-04,-4.000000000000000327e-05,-4.000000000000000327e-05,-8.000000000000000654e-05,-9.000000000000000567e-05,-2.000000000000000164e-05,-4.000000000000000192e-04,3.000000000000000000e+00,1.700000000000000000e+01
4.445100000000000000e+04,-3.299999999999999982e-04,-4.599999999999999597e-04,-4.000000000000000327e-05,-4.000000000000000327e-05,-8.000000000000000654e-05,-9.000000000000000567e-05,-2.000000000000000164e-05,-4.000000000000000192e-04,3.000000000000000000e+00,1.700000000000000000e+01
4.445200000000000000e+04,-3.299999999999999982e-04,-4.599999999999999597e-04,-4.000000000000000327e-05,-4.000000000000000327e-05,-8.000000000000000654e-05,-9.000000000000000567e-05,-2.000000000000000164e-05,-4.000000000000000192e-04,3.000000000000000000e+00,1.700000000000000000e+01
4.445300000000000000e+04,-3.299999999999999982e-04,-4.599999999999999597e-04,-4.000000000000000327e-05,-4.000000000000000327e-05,-8.000000000000000654e-05,-9.000000000000000567e-05,-2.000000000000000164e-05,-4.000000000000000192e-04,3.000000000000000000e+00,1.700000000000000000e+01
4.445400000000000000e+04,-3.299999999999999982e-04,-4.599999999999999597e-04,-4.000000000000000327e-05,-4.000000000000000327e-05,-8.000000000000000654e-05,-9.000000000000000567e-05,-2.000000000000000164e-05,-4.000000000000000192e-04,3.000000000000000000e+00,1.700000000000000000e+01
4.445500000000000000e+04,6.999999999999999387e-05,1.100000000000000039e-04,-4.000000000000000327e-05,-1.000000000000000048e-04,-2.700000000000000035e-04,-1.399999999999999877e-04,-3.499999999999999964e-04,-2.900000000000000017e-04,3.000000000000000000e+00,1.700000000000000000e+01
4.445600000000000000e+04,6.999999999999999387e-05,1.100000000000000039e-04,-4.000000000000000327e-05,-1.000000000000000048e-04,-2.700000000000000035e-04,-1.399999999999999877e-04,-3.499999999999999964e-04,-2.900000000000000017e-04,3.000000000000000000e+00,1.700000000000000000e+01
4.445700000000000000e+04,6.999999999999999387e-05,1.100000000000000039e-04,-4.000000000000000327e-05,-1.000000000000000048e-04,-2.700000000000000035e-04,-1.399999999999999877e-04,-3.499999999999999964e-04,-2.900000000000000017e-04,3.000000000000000000e+00,1.700000000000000000e+01
4.445800000000000000e+04,6.999999999999999387e-05,1.100000000000000039e-04,-4.000000000000000327e-05,-1.000000000000000048e-04,-2.700000000000000035e-04,-1.399999999999999877e-04,-3.499999999999999964e-04,-2.900000000000000017e-04,3.000000000000000000e+00,1.700000000000000000e+01
4.445900000000000000e+04,6.999999999999999387e-05,1.100000000000000039e-04,-4.000000000000000327e-05,-1.000000000000000048e-04,-2.700000000000000035e-04,-1.399999999999999877e-04,-3.499999999999999964e-04,-2.900000000000000017e-04,3.000000000000000000e+00,1.700000000000000000e+01
4.446000000000000000e+04,6.999999999999999387e-05,1.100000000000000039e-04,-4.000000000000000327e-05,-1.000000000000000048e-04,-2.700000000000000035e-04,-1.399999999999999877e-04,-3.499999999999999964e-04,-2.900000000000000017e-04,3.000000000000000000e+00,1.700000000000000000e+01
4.446100000000000000e+04,6.999999999999999387e-05,1.100000000000000039e-04,-4.000000000000000327e-05,-1.000000000000000048e-04,-2.700000000000000035e-04,-1.399999999999999877e-04,-3.499999999999999964e-04,-2.900000000000000017e-04,3.000000000000000000e+00,1.700000000000000000e+01
4.446200000000000000e+04,6.999999999999999387e-05,1.100000000000000039e-04,-4.000000000000000327e-05,-1.000000000000000048e-04,-2.700000000000000035e-04,-1.399999999999999877e-04,-3.499999999999999964e-04,-2.900000000000000017e-04,3.000000000000000000e+00,1.700000000000000000e+01
4.446300000000000000e+04,6.999999999999999387e-05,1.100000000000000039e-04,-4.000000000000000327e-05,-1.000000000000000048e-04,-2.700000000000000035e-04,-1.399999999999999877e-04,-3.499999999999999964e-04,-2.900000000000000017e-04,3.000000000000000000e+00,1.700000000000000000e+01
4.446400000000000000e+04,6.999999999999999387e-05,1.100000000000000039e-04,-4.000000000000000327e-05,-1.000000000000000048e-04,-2.700000000000000035e-04,-1.399999999999999877e-04,-3.499999999999999964e-04,-2.900000000000000017e-04,3.000000000000000000e+00,1.700000000000000000e+01
4.446500000000000000e+04,6.999999999999999387e-05,1.100000000000000039e-04,-4.000000000000000327e-05,-1.000000000000000048e-04,-2.700000000000000035e-04,-1.399999999999999877e-04,-3.499999999999999964e-04,-2.900000000000000017e-04,3.000000000000000000e+00,1.700000000000000000e+01
4.446600000000000000e+04,6.999999999999999387e-05,1.100000000000000039e-04,-4.000000000000000327e-05,-1.000000000000000048e-04,-2.700000000000000035e-04,-1.399999999999999877e-04,-3.499999999999999964e-04,-2.900000000000000017e-04,3.000000000000000000e+00,1.700000000000000000e+01
4.446700000000000000e+04,6.999999999999999387e-05,1.100000000000000039e-04,-4.000000000000000327e-05,-1.000000000000000048e-04,-2.700000000000000035e-04,-1.399999999999999877e-04,-3.499999999999999964e-04,-2.900000000000000017e-04,3.000000000000000000e+00,1.700000000000000000e+01
4.446800000000000000e+04,6.999999999999999387e-05,1.100000000000000039e-04,-4.000000000000000327e-05,-1.000000000000000048e-04,-2.700000000000000035e-04,-1.399999999999999877e-04,-3.499999999999999964e-04,-2.900000000000000017e-04,3.000000000000000000e+00,1.700000000000000000e+01
4.446900000000000000e+04,6.999999999999999387e-05,1.100000000000000039e-04,-4.000000000000000327e-05,-1.000000000000000048e-04,-2.700000000000000035e-04,-1.399999999999999877e-04,-3.499999999999999964e-04,-2.900000000000000017e-04,3.000000000000000000e+00,1.700000000000000000e+01
4.447000000000000000e+04,6.999999999999999387e-05,1.100000000000000039e-04,-4.000000000000000327e-05,-1.000000000000000048e-04,-2.700000000000000035e-04,-1.399999999999999877e-04,-3.499999999999999964e-04,-2.900000000000000017e-04,3.000000000000000000e+00,1.700000000000000000e+01
4.447100000000000000e+04,6.999999999999999387e-05,1.100000000000000039e-04,-4.000000000000000327e-05,-1.000000000000000048e-04,-2.700000000000000035e-04,-1.399999999999999877e-04,-3.499999999999999964e-04,-2.900000000000000017e-04,3.000000000000000000e+00,1.700000000000000000e+01
4.447200000000000000e+04,6.999999999999999387e-05,1.100000000000000039e-04,-4.000000000000000327e-05,-1.000000000000000048e-04,-2.700000000000000035e-04,-1.399999999999999877e-04,-3.499999999999999964e-04,-2.900000000000000017e-04,3.000000000000000000e+00,1.700000000000000000e+01
4.447300000000000000e+04,6.999999999999999387e-05,1.100000000000000039e-04,-4.000000000000000327e-05,-1.000000000000000048e-04,-2.700000000000000035e-04,-1.399999999999999877e-04,-3.499999999999999964e-04,-2.900000000000000017e-04,3.000000000000000000e+00,1.700000000000000000e+01
4.447400000000000000e+04,6.999999999999999387e-05,1.100000000000000039e-04,-4.000000000000000327e-05,-1.000000000000000048e-04,-2.700000000000000035e-04,-1.399999999999999877e-04,-3.499999999999999964e-04,-2.900000000000000017e-04,3.000000000000000000e+00,1.700000000000000000e+01
4.447500000000000000e+04,6.999999999999999387e-05,1.100000000000000039e-04,-4.000000000000000327e-05,-1.000000000000000048e-04,-2.700000000000000035e-04,-1.399999999999999877e-04,-3.499999999999999964e-04,-2.900000000000000017e-04,3.000000000000000000e+00,1.700000000000000000e+01
4.447600000000000000e+04,6.999999999999999387e-05,1.100000000000000039e-04,-4.000000000000000327e-05,-1.000000000000000048e-04,-2.700000000000000035e-04,-1.399999999999999877e-04,-3.499999999999999964e-04,-2.900000000000000017e-04,3.000000000000000000e+00,1.700000000000000000e+01
4.447700000000000000e+04,6.999999999999999387e-05,1.100000000000000039e-04,-4.000000000000000327e-05,-1.000000000000000048e-04,-2.700000000000000035e-04,-1.399999999999999877e-04,-3.499999999999999964e-04,-2.900000000000000017e-04,3.000000000000000000e+00,1.700000000000000000e+01
4.447800000000000000e+04,2.000000000000000164e-05,-6.999999999999999387e-05,-1.499999999999999869e-04,-5.000000000000000240e-05,-2.999999999999999737e-05,-1.000000000000000082e-05,1.000000000000000048e-04,2.100000000000000087e-04,3.000000000000000000e+00,1.700000000000000000e+01
4.447900000000000000e+04,-3.299999999999999982e-04,-5.000000000000000104e-04,-1.800000000000000113e-04,-1.399999999999999877e-04,-2.600000000000000314e-04,-1.199999999999999895e-04,-4.000000000000000327e-05,-8.000000000000000654e-05,3.000000000000000000e+00,1.700000000000000000e+01
4.448000000000000000e+04,-3.299999999999999982e-04,-5.000000000000000104e-04,-1.800000000000000113e-04,-1.399999999999999877e-04,-2.600000000000000314e-04,-1.199999999999999895e-04,-4.000000000000000327e-05,-8.000000000000000654e-05,3.000000000000000000e+00,1.700000000000000000e+01
4.448100000000000000e+04,-3.299999999999999982e-04,-5.000000000000000104e-04,-1.800000000000000113e-04,-1.399999999999999877e-04,-2.600000000000000314e-04,-1.199999999999999895e-04,-4.000000000000000327e-05,-8.000000000000000654e-05,3.000000000000000000e+00,1.700000000000000000e+01
4.448200000000000000e+04,-3.299999999999999982e-04,-5.000000000000000104e-04,-1.800000000000000113e-04,-1.399999999999999877e-04,-2.600000000000000314e-04,-1.199999999999999895e-04,-4.000000000000000327e-05,-8.000000000000000654e-05,3.000000000000000000e+00,1.700000000000000000e+01
4.448300000000000000e+04,-3.299999999999999982e-04,-5.000000000000000104e-04,-1.800000000000000113e-04,-1.399999999999999877e-04,-2.600000000000000314e-04,-1.199999999999999895e-04,-4.000000000000000327e-05,-8.000000000000000654e-05,3.000000000000000000e+00,1.700000000000000000e+01
4.448400000000000000e+04,-1.000000000000000082e-05,2.999999999999999737e-05,2.000000000000000164e-05,1.000000000000000082e-05,1.000000000000000082e-05,-4.000000000000000327e-05,-2.000000000000000164e-05,-1.199999999999999895e-04,3.000000000000000000e+00,1.700000000000000000e+01
4.448500000000000000e+04,-5.999999999999999474e-05,-2.000000000000000096e-04,-2.999999999999999737e-05,-4.000000000000000327e-05,-1.699999999999999851e-04,2.000000000000000164e-05,-1.000000000000000082e-05,0.000000000000000000e+00,3.000000000000000000e+00,1.700000000000000000e+01
4.448600000000000000e+04,-5.999999999999999474e-05,-2.000000000000000096e-04,-2.999999999999999737e-05,-4.000000000000000327e-05,-1.699999999999999851e-04,2.000000000000000164e-05,-1.000000000000000082e-05,0.000000000000000000e+00,3.000000000000000000e+00,1.700000000000000000e+01
4.448800000000000000e+04,-5.999999999999999474e-05,-2.000000000000000096e-04,-2.999999999999999737e-05,-4.000000000000000327e-05,-1.699999999999999851e-04,2.000000000000000164e-05,-1.000000000000000082e-05,0.000000000000000000e+00,3.000000000000000000e+00,1.700000000000000000e+01
4.448900000000000000e+04,-5.999999999999999474e-05,-2.000000000000000096e-04,-2.999999999999999737e-05,-4.000000000000000327e-05,-1.699999999999999851e-04,2.000000000000000164e-05,-1.000000000000000082e-05,0.000000000000000000e+00,3.000000000000000000e+00,1.700000000000000000e+01
4.449000000000000000e+04,-5.999999999999999474e-05,-2.000000000000000096e-04,-2.999999999999999737e-05,-4.000000000000000327e-05,-1.699999999999999851e-04,2.000000000000000164e-05,-1.000000000000000082e-05,0.000000000000000000e+00,3.000000000000000000e+00,1.700000000000000000e+01
4.449100000000000000e+04,-5.999999999999999474e-05,-2.000000000000000096e-04,-2.999999999999999737e-05,-4.000000000000000327e-05,-1.699999999999999851e-04,2.000000000000000164e-05,-1.000000000000000082e-05,0.000000000000000000e+00,3.000000000000000000e+00,1.700000000000000000e+01
4.449200000000000000e+04,-5.999999999999999474e-05,-2.000000000000000096e-04,-2.999999999999999737e-05,-4.000000000000000327e-05,-1.699999999999999851e-04,2.000000000000000164e-05,-1.000000000000000082e-05,0.000000000000000000e+00,3.000000000000000000e+00,1.700000000000000000e+01
4.449300000000000000e+04,-5.999999999999999474e-05,-2.000000000000000096e-04,-2.999999999999999737e-05,-4.000000000000000327e-05,-1.699999999999999851e-04,2.000000000000000164e-05,-1.000000000000000082e-05,0.000000000000000000e+00,3.000000000000000000e+00,1.700000000000000000e+01
4.449400000000000000e+04,-5.999999999999999474e-05,-2.000000000000000096e-04,-2.999999999999999737e-05,-4.000000000000000327e-05,-1.699999999999999851e-04,2.000000000000000164e-05,-1.000000000000000082e-05,0.000000000000000000e+00,3.000000000000000000e+00,1.700000000000000000e+01
4.449500000000000000e+04,-5.999999999999999474e-05,-2.000000000000000096e-04,-2.999999999999999737e-05,-4.000000000000000327e-05,-1.699999999999999851e-04,2.000000000000000164e-05,-1.000000000000000082e-05,0.000000000000000000e+00,3.000000000000000000e+00,1.700000000000000000e+01
4.449600000000000000e+04,-5.999999999999999474e-05,-2.000000000000000096e-04,-2.999999999999999737e-05,-4.000000000000000327e-05,-1.699999999999999851e-04,2.000000000000000164e-05,-1.000000000000000082e-05,0.000000000000000000e+00,3.000000000000000000e+00,1.700000000000000000e+01
4.449700000000000000e+04,-5.999999999999999474e-05,-2.000000000000000096e-04,-2.999999999999999737e-05,-4.000000000000000327e-05,-1.699999999999999851e-04,2.000000000000000164e-05,-1.000000000000000082e-05,0.000000000000000000e+00,3.000000000000000000e+00,1.700000000000000000e+01
4.449800000000000000e+04,-5.999999999999999474e-05,-2.000000000000000096e-04,-2.999999999999999737e-05,-4.000000000000000327e-05,-1.699999999999999851e-04,2.000000000000000164e-05,-1.000000000000000082e-05,0.000000000000000000e+00,3.000000000000000000e+00,1.700000000000000000e+01
4.449900000000000000e+04,1.300000000000000157e-04,1.899999999999999834e-04,-9.000000000000000567e-05,-5.000000000000000240e-05,-9.000000000000000567e-05,4.000000000000000327e-05,5.000000000000000240e-05,1.600000000000000131e-04,3.000000000000000000e+00,1.700000000000000000e+01
4.450000000000000000e+04,1.300000000000000157e-04,1.899999999999999834e-04,-9.000000000000000567e-05,-5.000000000000000240e-05,-9.000000000000000567e-05,4.000000000000000327e-05,5.000000000000000240e-05,1.600000000000000131e-04,3.000000000000000000e+00,1.700000000000000000e+01
4.450100000000000000e+04,1.300000000000000157e-04,1.899999999999999834e-04,-9.000000000000000567e-05,-5.000000000000000240e-05,-9.000000000000000567e-05,4.000000000000000327e-05,5.000000000000000240e-05,1.600000000000000131e-04,3.000000000000000000e+00,1.700000000000000000e+01
4.450200000000000000e+04,1.300000000000000157e-04,1.899999999999999834e-04,-9.000000000000000567e-05,-5.000000000000000240e-05,-9.000000000000000567e-05,4.000000000000000327e-05,5.000000000000000240e-05,1.600000000000000131e-04,3.000000000000000000e+00,1.700000000000000000e+01
4.450300000000000000e+04,1.300000000000000157e-04,1.899999999999999834e-04,-9.000000000000000567e-05,-5.000000000000000240e-05,-9.000000000000000567e-05,4.000000000000000327e-05,5.000000000000000240e-05,1.600000000000000131e-04,3.000000000000000000e+00,1.700000000000000000e+01
4.450400000000000000e+04,1.300000000000000157e-04,1.899999999999999834e-04,-9.000000000000000567e-05,-5.000000000000000240e-05,-9.000000000000000567e-05,4.000000000000000327e-05,5.000000000000000240e-05,1.600000000000000131e-04,3.000000000000000000e+00,1.700000000000000000e+01
4.450500000000000000e+04,1.300000000000000157e-04,1.899999999999999834e-04,-9.000000000000000567e-05,-5.000000000000000240e-05,-9.000000000000000567e-05,4.000000000000000327e-05,5.000000000000000240e-05,1.600000000000000131e-04,3.000000000000000000e+00,1.700000000000000000e+01
4.450600000000000000e+04,1.300000000000000157e-04,1.899999999999999834e-04,-9.000000000000000567e-05,-5.000000000000000240e-05,-9.000000000000000567e-05,4.000000000000000327e-05,5.000000000000000240e-05,1.600000000000000131e-04,3.000000000000000000e+00,1.700000000000000000e+01
4.450700000000000000e+04,1.300000000000000157e-04,1.899999999999999834e-04,-9.000000000000000567e-05,-5.000000000000000240e-05,-9.000000000000000567e-05,4.000000000000000327e-05,5.000000000000000240e-05,1.600000000000000131e-04,3.000000000000000000e+00,1.700000000000000000e+01
4.450800000000000000e+04,-5.999999999999999474e-04,-5.000000000000000104e-04,-9.000000000000000567e-05,2.000000000000000164e-05,1.199999999999999895e-04,6.999999999999999387e-05,1.000000000000000082e-05,-1.899999999999999834e-04,3.000000000000000000e+00,1.700000000000000000e+01
4.450900000000000000e+04,2.900000000000000017e-04,5.999999999999999474e-04,1.199999999999999895e-04,1.000000000000000082e-05,-8.000000000000000654e-05,0.000000000000000000e+00,-5.000000000000000240e-05,-5.000000000000000240e-05,3.000000000000000000e+00,1.700000000000000000e+01
4.451000000000000000e+04,2.900000000000000017e-04,5.999999999999999474e-04,1.199999999999999895e-04,1.000000000000000082e-05,-8.000000000000000654e-05,0.000000000000000000e+00,-5.000000000000000240e-05,-5.000000000000000240e-05,3.000000000000000000e+00,1.700000000000000000e+01
4.451100000000000000e+04,2.900000000000000017e-04,5.999999999999999474e-04,1.199999999999999895e-04,1.000000000000000082e-05,-8.000000000000000654e-05,0.000000000000000000e+00,-5.000000000000000240e-05,-5.000000000000000240e-05,3.000000000000000000e+00,1.700000000000000000e+01
4.451200000000000000e+04,2.900000000000000017e-04,5.999999999999999474e-04,1.199999999999999895e-04,1.000000000000000082e-05,-8.000000000000000654e-05,0.000000000000000000e+00,-5.000000000000000240e-05,-5.000000000000000240e-05,3.000000000000000000e+00,1.700000000000000000e+01
4.451300000000000000e+04,2.900000000000000017e-04,5.999999999999999474e-04,1.199999999999999895e-04,1.000000000000000082e-05,-8.000000000000000654e-05,0.000000000000000000e+00,-5.000000000000000240e-05,-5.000000000000000240e-05,3.000000000000000000e+00,1.700000000000000000e+01
4.451400000000000000e+04,2.900000000000000017e-04,5.999999999999999474e-04,1.199999999999999895e-04,1.000000000000000082e-05,-8.000000000000000654e-05,0.000000000000000000e+00,-5.000000000000000240e-05,-5.000000000000000240e-05,3.000000000000000000e+00,1.700000000000000000e+01
4.451500000000000000e+04,2.900000000000000017e-04,5.999999999999999474e-04,1.199999999999999895e-04,1.000000000000000082e-05,-8.000000000000000654e-05,0.000000000000000000e+00,-5.000000000000000240e-05,-5.000000000000000240e-05,3.000000000000000000e+00,1.700000000000000000e+01
4.451600000000000000e+04,2.900000000000000017e-04,5.999999999999999474e-04,1.199999999999999895e-04,1.000000000000000082e-05,-8.000000000000000654e-05,0.000000000000000000e+00,-5.000000000000000240e-05,-5.000000000000000240e-05,3.000000000000000000e+00,1.700000000000000000e+01
4.451700000000000000e+04,2.900000000000000017e-04,5.999999999999999474e-04,1.199999999999999895e-04,1.000000000000000082e-05,-8.000000000000000654e-05,0.000000000000000000e+00,-5.000000000000000240e-05,-5.000000000000000240e-05,3.000000000000000000e+00,1.700000000000000000e+01
4.451800000000000000e+04,2.900000000000000017e-04,5.999999999999999474e-04,1.199999999999999895e-04,1.000000000000000082e-05,-8.000000000000000654e-05,0.000000000000000000e+00,-5.000000000000000240e-05,-5.000000000000000240e-05,3.000000000000000000e+00,1.700000000000000000e+01
4.451900000000000000e+04,2.900000000000000017e-04,5.999999999999999474e-04,1.199999999999999895e-04,1.000000000000000082e-05,-8.000000000000000654e-05,0.000000000000000000e+00,-5.000000000000000240e-05,-5.000000000000000240e-05,3.000000000000000000e+00,1.700000000000000000e+01
4.452000000000000000e+04,2.900000000000000017e-04,5.999999999999999474e-04,1.199999999999999895e-04,1.000000000000000082e-05,-8.000000000000000654e-05,0.000000000000000000e+00,-5.000000000000000240e-05,-5.000000000000000240e-05,3.000000000000000000e+00,1.700000000000000000e+01
4.452100000000000000e+04,2.900000000000000017e-04,5.999999999999999474e-04,1.199999999999999895e-04,1.000000000000000082e-05,-8.000000000000000654e-05,0.000000000000000000e+00,-5.000000000000000240e-05,-5.000000000000000240e-05,3.000000000000000000e+00,1.700000000000000000e+01
4.452200000000000000e+04,2.900000000000000017e-04,5.999999999999999474e-04,1.199999999999999895e-04,1.000000000000000082e-05,-8.000000000000000654e-05,0.000000000000000000e+00,-5.000000000000000240e-05,-5.000000000000000240e-05,3.000000000000000000e+00,1.700000000000000000e+01
4.452300000000000000e+04,2.900000000000000017e-04,5.999999999999999474e-04,1.199999999999999895e-04,1.000000000000000082e-05,-8.000000000000000654e-05,0.000000000000000000e+00,-5.000000000000000240e-05,-5.000000000000000240e-05,3.000000000000000000e+00,1.700000000000000000e+01
4.452400000000000000e+04,2.900000000000000017e-04,5.999999999999999474e-04,1.199999999999999895e-04,1.000000000000000082e-05,-8.000000000000000654e-05,0.000000000000000000e+00,-5.000000000000000240e-05,-5.000000000000000240e-05,3.000000000000000000e+00,1.700000000000000000e+01
4.452500000000000000e+04,2.900000000000000017e-04,5.999999999999999474e-04,1.199999999999999895e-04,1.000000000000000082e-05,-8.000000000000000654e-05,0.000000000000000000e+00,-5.000000000000000240e-05,-5.000000000000000240e-05,3.000000000000000000e+00,1.700000000000000000e+01
4.452600000000000000e+04,2.900000000000000017e-04,5.999999999999999474e-04,1.199999999999999895e-04,1.000000000000000082e-05,-8.000000000000000654e-05,0.000000000000000000e+00,-5.000000000000000240e-05,-5.000000000000000240e-05,3.000000000000000000e+00,1.700000000000000000e+01
4.452700000000000000e+04,2.900000000000000017e-04,5.999999999999999474e-04,1.199999999999999895e-04,1.000000000000000082e-05,-8.000000000000000654e-05,0.000000000000000000e+00,-5.000000000000000240e-05,-5.000000000000000240e-05,3.000000000000000000e+00,1.700000000000000000e+01
4.452800000000000000e+04,2.900000000000000017e-04,5.999999999999999474e-04,1.199999999999999895e-04,1.000000000000000082e-05,-8.000000000000000654e-05,0.000000000000000000e+00,-5.000000000000000240e-05,-5.000000000000000240e-05,3.000000000000000000e+00,1.700000000000000000e+01
4.452900000000000000e+04,2.900000000000000017e-04,5.999999999999999474e-04,1.199999999999999895e-04,1.000000000000000082e-05,-8.000000000000000654e-05,0.000000000000000000e+00,-5.000000000000000240e-05,-5.000000000000000240e-05,3.000000000000000000e+00,1.700000000000000000e+01
4.453000000000000000e+04,1.499999999999999869e-04,3.600000000000000227e-04,5.999999999999999474e-05,1.000000000000000082e-05,-2.999999999999999737e-05,-1.000000000000000082e-05,-4.000000000000000327e-05,-2.000000000000000164e-05,3.000000000000000000e+00,1.700000000000000000e+01
4.453100000000000000e+04,1.499999999999999869e-04,3.600000000000000227e-04,5.999999999999999474e-05,1.000000000000000082e-05,-2.999999999999999737e-05,-1.000000000000000082e-05,-4.000000000000000327e-05,-2.000000000000000164e-05,3.000000000000000000e+00,1.700000000000000000e+01
4.453200000000000000e+04,-2.399999999999999790e-04,2.000000000000000096e-04,5.000000000000000240e-05,-1.000000000000000048e-04,-3.299999999999999982e-04,-1.800000000000000113e-04,-1.199999999999999895e-04,-3.799999999999999667e-04,3.000000000000000000e+00,1.700000000000000000e+01
4.453300000000000000e+04,-2.399999999999999790e-04,2.000000000000000096e-04,5.000000000000000240e-05,-1.000000000000000048e-04,-3.299999999999999982e-04,-1.800000000000000113e-04,-1.199999999999999895e-04,-3.799999999999999667e-04,3.000000000000000000e+00,1.700000000000000000e+01
4.453400000000000000e+04,-2.399999999999999790e-04,2.000000000000000096e-04,5.000000000000000240e-05,-1.000000000000000048e-04,-3.299999999999999982e-04,-1.800000000000000113e-04,-1.199999999999999895e-04,-3.799999999999999667e-04,3.000000000000000000e+00,1.700000000000000000e+01
4.453500000000000000e+04,-2.399999999999999790e-04,2.000000000000000096e-04,5.000000000000000240e-05,-1.000000000000000048e-04,-3.299999999999999982e-04,-1.800000000000000113e-04,-1.199999999999999895e-04,-3.799999999999999667e-04,3.000000000000000000e+00,1.700000000000000000e+01
4.453600000000000000e+04,-2.399999999999999790e-04,2.000000000000000096e-04,5.000000000000000240e-05,-1.000000000000000048e-04,-3.299999999999999982e-04,-1.800000000000000113e-04,-1.199999999999999895e-04,-3.799999999999999667e-04,3.000000000000000000e+00,1.700000000000000000e+01
4.453800000000000000e+04,-2.399999999999999790e-04,2.000000000000000096e-04,5.000000000000000240e-05,-1.000000000000000048e-04,-3.299999999999999982e-04,-1.800000000000000113e-04,-1.199999999999999895e-04,-3.799999999999999667e-04,3.000000000000000000e+00,1.700000000000000000e+01
4.453900000000000000e+04,-2.399999999999999790e-04,2.000000000000000096e-04,5.000000000000000240e-05,-1.000000000000000048e-04,-3.299999999999999982e-04,-1.800000000000000113e-04,-1.199999999999999895e-04,-3.799999999999999667e-04,3.000000000000000000e+00,1.700000000000000000e+01
4.454000000000000000e+04,-2.399999999999999790e-04,2.000000000000000096e-04,5.000000000000000240e-05,-1.000000000000000048e-04,-3.299999999999999982e-04,-1.800000000000000113e-04,-1.199999999999999895e-04,-3.799999999999999667e-04,3.000000000000000000e+00,1.700000000000000000e+01
4.454100000000000000e+04,-2.399999999999999790e-04,2.000000000000000096e-04,5.000000000000000240e-05,-1.000000000000000048e-04,-3.299999999999999982e-04,-1.800000000000000113e-04,-1.199999999999999895e-04,-3.799999999999999667e-04,3.000000000000000000e+00,1.700000000000000000e+01
4.454200000000000000e+04,-2.399999999999999790e-04,2.000000000000000096e-04,5.000000000000000240e-05,-1.000000000000000048e-04,-3.299999999999999982e-04,-1.800000000000000113e-04,-1.199999999999999895e-04,-3.799999999999999667e-04,3.000000000000000000e+00,1.700000000000000000e+01
4.454300000000000000e+04,-2.399999999999999790e-04,2.000000000000000096e-04,5.000000000000000240e-05,-1.000000000000000048e-04,-3.299999999999999982e-04,-1.800000000000000113e-04,-1.199999999999999895e-04,-3.799999999999999667e-04,3.000000000000000000e+00,1.700000000000000000e+01
4.454400000000000000e+04,-2.399999999999999790e-04,2.000000000000000096e-04,5.000000000000000240e-05,-1.000000000000000048e-04,-3.299999999999999982e-04,-1.800000000000000113e-04,-1.199999999999999895e-04,-3.799999999999999667e-04,3.000000000000000000e+00,1.700000000000000000e+01
4.454500000000000000e+04,-2.399999999999999790e-04,2.000000000000000096e-04,5.000000000000000240e-05,-1.000000000000000048e-04,-3.299999999999999982e-04,-1.800000000000000113e-04,-1.199999999999999895e-04,-3.799999999999999667e-04,3.000000000000000000e+00,1.700000000000000000e+01
4.454600000000000000e+04,-2.399999999999999790e-04,2.000000000000000096e-04,5.000000000000000240e-05,-1.000000000000000048e-04,-3.299999999999999982e-04,-1.800000000000000113e-04,-1.199999999999999895e-04,-3.799999999999999667e-04,3.000000000000000000e+00,1.700000000000000000e+01
4.454700000000000000e+04,-2.399999999999999790e-04,2.000000000000000096e-04,5.000000000000000240e-05,-1.000000000000000048e-04,-3.299999999999999982e-04,-1.800000000000000113e-04,-1.199999999999999895e-04,-3.799999999999999667e-04,3.000000000000000000e+00,1.700000000000000000e+01
4.454800000000000000e+04,-2.399999999999999790e-04,2.000000000000000096e-04,5.000000000000000240e-05,-1.000000000000000048e-04,-3.299999999999999982e-04,-1.800000000000000113e-04,-1.199999999999999895e-04,-3.799999999999999667e-04,3.000000000000000000e+00,1.700000000000000000e+01
4.454900000000000000e+04,-2.399999999999999790e-04,2.000000000000000096e-04,5.000000000000000240e-05,-1.000000000000000048e-04,-3.299999999999999982e-04,-1.800000000000000113e-04,-1.199999999999999895e-04,-3.799999999999999667e-04,3.000000000000000000e+00,1.700000000000000000e+01
4.455000000000000000e+04,-2.399999999999999790e-04,2.000000000000000096e-04,5.000000000000000240e-05,-1.000000000000000048e-04,-3.299999999999999982e-04,-1.800000000000000113e-04,-1.199999999999999895e-04,-3.799999999999999667e-04,3.000000000000000000e+00,1.700000000000000000e+01
4.455100000000000000e+04,-2.399999999999999790e-04,2.000000000000000096e-04,5.000000000000000240e-05,-1.000000000000000048e-04,-3.299999999999999982e-04,-1.800000000000000113e-04,-1.199999999999999895e-04,-3.799999999999999667e-04,3.000000000000000000e+00,1.700000000000000000e+01
4.455200000000000000e+04,-2.399999999999999790e-04,2.000000000000000096e-04,5.000000000000000240e-05,-1.000000000000000048e-04,-3.299999999999999982e-04,-1.800000000000000113e-04,-1.199999999999999895e-04,-3.799999999999999667e-04,3.000000000000000000e+00,1.700000000000000000e+01
4.455300000000000000e+04,-1.800000000000000113e-04,-2.299999999999999799e-04,-8.000000000000000654e-05,0.000000000000000000e+00,2.999999999999999737e-05,6.999999999999999387e-05,-1.100000000000000039e-04,-2.600000000000000314e-04,3.000000000000000000e+00,1.700000000000000000e+01
4.455400000000000000e+04,1.100000000000000039e-04,5.000000000000000240e-05,8.000000000000000654e-05,1.000000000000000048e-04,1.499999999999999869e-04,1.300000000000000157e-04,1.600000000000000131e-04,5.000000000000000240e-05,3.000000000000000000e+00,1.700000000000000000e+01
4.455500000000000000e+04,1.100000000000000039e-04,5.000000000000000240e-05,8.000000000000000654e-05,1.000000000000000048e-04,1.499999999999999869e-04,1.300000000000000157e-04,1.600000000000000131e-04,5.000000000000000240e-05,3.000000000000000000e+00,1.700000000000000000e+01
4.455600000000000000e+04,1.100000000000000039e-04,5.000000000000000240e-05,8.000000000000000654e-05,1.000000000000000048e-04,1.499999999999999869e-04,1.300000000000000157e-04,1.600000000000000131e-04,5.000000000000000240e-05,3.000000000000000000e+00,1.700000000000000000e+01
4.455700000000000000e+04,1.100000000000000039e-04,5.000000000000000240e-05,8.000000000000000654e-05,1.000000000000000048e-04,1.499999999999999869e-04,1.300000000000000157e-04,1.600000000000000131e-04,5.000000000000000240e-05,3.000000000000000000e+00,1.700000000000000000e+01
4.455800000000000000e+04,1.100000000000000039e-04,5.000000000000000240e-05,8.000000000000000654e-05,1.000000000000000048e-04,1.499999999999999869e-04,1.300000000000000157e-04,1.600000000000000131e-04,5.000000000000000240e-05,3.000000000000000000e+00,1.700000000000000000e+01
4.455900000000000000e+04,1.100000000000000039e-04,5.000000000000000240e-05,8.000000000000000654e-05,1.000000000000000048e-04,1.499999999999999869e-04,1.300000000000000157e-04,1.600000000000000131e-04,5.000000000000000240e-05,3.000000000000000000e+00,1.700000000000000000e+01
4.456000000000000000e+04,1.100000000000000039e-04,5.000000000000000240e-05,8.000000000000000654e-05,1.000000000000000048e-04,1.499999999999999869e-04,1.300000000000000157e-04,1.600000000000000131e-04,5.000000000000000240e-05,3.000000000000000000e+00,1.700000000000000000e+01
4.456100000000000000e+04,1.100000000000000039e-04,5.000000000000000240e-05,8.000000000000000654e-05,1.000000000000000048e-04,1.499999999999999869e-04,1.300000000000000157e-04,1.600000000000000131e-04,5.000000000000000240e-05,3.000000000000000000e+00,1.700000000000000000e+01
4.456200000000000000e+04,1.100000000000000039e-04,5.000000000000000240e-05,8.000000000000000654e-05,1.000000000000000048e-04,1.499999999999999869e-04,1.300000000000000157e-04,1.600000000000000131e-04,5.000000000000000240e-05,3.000000000000000000e+00,1.700000000000000000e+01
4.456300000000000000e+04,1.100000000000000039e-04,5.000000000000000240e-05,8.000000000000000654e-05,1.000000000000000048e-04,1.499999999999999869e-04,1.300000000000000157e-04,1.600000000000000131e-04,5.000000000000000240e-05,3.000000000000000000e+00,1.700000000000000000e+01
4.456400000000000000e+04,1.100000000000000039e-04,5.000000000000000240e-05,8.000000000000000654e-05,1.000000000000000048e-04,1.499999999999999869e-04,1.300000000000000157e-04,1.600000000000000131e-04,5.000000000000000240e-05,3.000000000000000000e+00,1.700000000000000000e+01
4.456500000000000000e+04,1.100000000000000039e-04,5.000000000000000240e-05,8.000000000000000654e-05,1.000000000000000048e-04,1.499999999999999869e-04,1.300000000000000157e-04,1.600000000000000131e-04,5.000000000000000240e-05,3.000000000000000000e+00,1.700000000000000000e+01
4.456600000000000000e+04,1.100000000000000039e-04,5.000000000000000240e-05,8.000000000000000654e-05,1.000000000000000048e-04,1.499999999999999869e-04,1.300000000000000157e-04,1.600000000000000131e-04,5.000000000000000240e-05,3.000000000000000000e+00,1.700000000000000000e+01
4.456700000000000000e+04,1.100000000000000039e-04,5.000000000000000240e-05,8.000000000000000654e-05,1.000000000000000048e-04,1.499999999999999869e-04,1.300000000000000157e-04,1.600000000000000131e-04,5.000000000000000240e-05,3.000000000000000000e+00,1.700000000000000000e+01
4.456800000000000000e+04,6.999999999999999387e-05,2.200000000000000078e-04,5.000000000000000240e-05,1.000000000000000082e-05,2.000000000000000164e-05,5.999999999999999474e-05,2.999999999999999737e-05,-1.100000000000000039e-04,3.000000000000000000e+00,1.700000000000000000e+01
4.456900000000000000e+04,6.999999999999999387e-05,2.200000000000000078e-04,5.000000000000000240e-05,1.000000000000000082e-05,2.000000000000000164e-05,5.999999999999999474e-05,2.999999999999999737e-05,-1.100000000000000039e-04,3.000000000000000000e+00,1.700000000000000000e+01
4.457000000000000000e+04,6.999999999999999387e-05,2.200000000000000078e-04,5.000000000000000240e-05,1.000000000000000082e-05,2.000000000000000164e-05,5.999999999999999474e-05,2.999999999999999737e-05,-1.100000000000000039e-04,3.000000000000000000e+00,1.700000000000000000e+01
4.457100000000000000e+04,6.999999999999999387e-05,2.200000000000000078e-04,5.000000000000000240e-05,1.000000000000000082e-05,2.000000000000000164e-05,5.999999999999999474e-05,2.999999999999999737e-05,-1.100000000000000039e-04,3.000000000000000000e+00,1.700000000000000000e+01
4.457200000000000000e+04,6.999999999999999387e-05,2.200000000000000078e-04,5.000000000000000240e-05,1.000000000000000082e-05,2.000000000000000164e-05,5.999999999999999474e-05,2.999999999999999737e-05,-1.100000000000000039e-04,3.000000000000000000e+00,1.700000000000000000e+01
4.457300000000000000e+04,6.999999999999999387e-05,2.200000000000000078e-04,5.000000000000000240e-05,1.000000000000000082e-05,2.000000000000000164e-05,5.999999999999999474e-05,2.999999999999999737e-05,-1.100000000000000039e-04,3.000000000000000000e+00,1.700000000000000000e+01
4.457400000000000000e+04,-1.000000000000000082e-05,-1.000000000000000048e-04,-4.000000000000000327e-05,-9.000000000000000567e-05,-2.200000000000000078e-04,-1.600000000000000131e-04,-1.000000000000000082e-05,5.999999999999999474e-05,3.000000000000000000e+00,1.700000000000000000e+01
4.457500000000000000e+04,-1.000000000000000082e-05,-1.000000000000000048e-04,-4.000000000000000327e-05,-9.000000000000000567e-05,-2.200000000000000078e-04,-1.600000000000000131e-04,-1.000000000000000082e-05,5.999999999999999474e-05,3.000000000000000000e+00,1.700000000000000000e+01
4.457600000000000000e+04,-1.000000000000000082e-05,-1.000000000000000048e-04,-4.000000000000000327e-05,-9.000000000000000567e-05,-2.200000000000000078e-04,-1.600000000000000131e-04,-1.000000000000000082e-05,5.999999999999999474e-05,3.000000000000000000e+00,1.700000000000000000e+01
4.457700000000000000e+04,-1.000000000000000082e-05,-1.000000000000000048e-04,-4.000000000000000327e-05,-9.000000000000000567e-05,-2.200000000000000078e-04,-1.600000000000000131e-04,-1.000000000000000082e-05,5.999999999999999474e-05,3.000000000000000000e+00,1.700000000000000000e+01
4.457800000000000000e+04,-1.000000000000000082e-05,-1.000000000000000048e-04,-4.000000000000000327e-05,-9.000000000000000567e-05,-2.200000000000000078e-04,-1.600000000000000131e-04,-1.000000000000000082e-05,5.999999999999999474e-05,3.000000000000000000e+00,1.700000000000000000e+01
4.457900000000000000e+04,-1.000000000000000082e-05,-1.000000000000000048e-04,-4.000000000000000327e-05,-9.000000000000000567e-05,-2.200000000000000078e-04,-1.600000000000000131e-04,-1.000000000000000082e-05,5.999999999999999474e-05,3.000000000000000000e+00,1.700000000000000000e+01
4.458000000000000000e+04,-1.000000000000000082e-05,-1.000000000000000048e-04,-4.000000000000000327e-05,-9.000000000000000567e-05,-2.200000000000000078e-04,-1.600000000000000131e-04,-1.000000000000000082e-05,5.999999999999999474e-05,3.000000000000000000e+00,1.700000000000000000e+01
4.458100000000000000e+04,-1.000000000000000082e-05,-1.000000000000000048e-04,-4.000000000000000327e-05,-9.000000000000000567e-05,-2.200000000000000078e-04,-1.600000000000000131e-04,-1.000000000000000082e-05,5.999999999999999474e-05,3.000000000000000000e+00,1.700000000000000000e+01
4.458200000000000000e+04,-1.000000000000000082e-05,-1.000000000000000048e-04,-4.000000000000000327e-05,-9.000000000000000567e-05,-2.200000000000000078e-04,-1.600000000000000131e-04,-1.000000000000000082e-05,5.999999999999999474e-05,3.000000000000000000e+00,1.700000000000000000e+01
4.458300000000000000e+04,-1.000000000000000082e-05,-1.000000000000000048e-04,-4.000000000000000327e-05,-9.000000000000000567e-05,-2.200000000000000078e-04,-1.600000000000000131e-04,-1.000000000000000082e-05,5.999999999999999474e-05,3.000000000000000000e+00,1.700000000000000000e+01
4.458400000000000000e+04,-1.000000000000000082e-05,-1.000000000000000048e-04,-4.000000000000000327e-05,-9.000000000000000567e-05,-2.200000000000000078e-04,-1.600000000000000131e-04,-1.000000000000000082e-05,5.999999999999999474e-05,3.000000000000000000e+00,1.700000000000000000e+01
4.458500000000000000e+04,-1.000000000000000082e-05,-1.000000000000000048e-04,-4.000000000000000327e-05,-9.000000000000000567e-05,-2.200000000000000078e-04,-1.600000000000000131e-04,-1.000000000000000082e-05,5.999999999999999474e-05,3.000000000000000000e+00,1.700000000000000000e+01
4.458600000000000000e+04,-1.000000000000000082e-05,-1.000000000000000048e-04,-4.000000000000000327e-05,-9.000000000000000567e-05,-2.200000000000000078e-04,-1.600000000000000131e-04,-1.000000000000000082e-05,5.999999999999999474e-05,3.000000000000000000e+00,1.700000000000000000e+01
4.458800000000000000e+04,-1.000000000000000082e-05,-1.000000000000000048e-04,-4.000000000000000327e-05,-9.000000000000000567e-05,-2.200000000000000078e-04,-1.600000000000000131e-04,-1.000000000000000082e-05,5.999999999999999474e-05,3.000000000000000000e+00,1.700000000000000000e+01
4.458900000000000000e+04,-1.000000000000000082e-05,-1.000000000000000048e-04,-4.000000000000000327e-05,-9.000000000000000567e-05,-2.200000000000000078e-04,-1.600000000000000131e-04,-1.000000000000000082e-05,5.999999999999999474e-05,3.000000000000000000e+00,1.700000000000000000e+01
4.459000000000000000e+04,-1.600000000000000131e-04,-4.400000000000000157e-04,-2.000000000000000096e-04,-5.999999999999999474e-05,-8.000000000000000654e-05,-6.999999999999999387e-05,-8.000000000000000654e-05,2.999999999999999737e-05,3.000000000000000000e+00,1.700000000000000000e+01
4.459100000000000000e+04,-1.600000000000000131e-04,-4.400000000000000157e-04,-2.000000000000000096e-04,-5.999999999999999474e-05,-8.000000000000000654e-05,-6.999999999999999387e-05,-8.000000000000000654e-05,2.999999999999999737e-05,3.000000000000000000e+00,1.700000000000000000e+01
4.459200000000000000e+04,-5.999999999999999474e-05,-1.199999999999999895e-04,-2.999999999999999737e-05,-1.199999999999999895e-04,-1.399999999999999877e-04,-2.999999999999999737e-05,-2.999999999999999737e-05,8.000000000000000654e-05,3.000000000000000000e+00,1.700000000000000000e+01
4.459300000000000000e+04,-5.999999999999999474e-05,-1.199999999999999895e-04,-2.999999999999999737e-05,-1.199999999999999895e-04,-1.399999999999999877e-04,-2.999999999999999737e-05,-2.999999999999999737e-05,8.000000000000000654e-05,3.000000000000000000e+00,1.700000000000000000e+01
4.459400000000000000e+04,-5.999999999999999474e-05,-1.199999999999999895e-04,-2.999999999999999737e-05,-1.199999999999999895e-04,-1.399999999999999877e-04,-2.999999999999999737e-05,-2.999999999999999737e-05,8.000000000000000654e-05,3.000000000000000000e+00,1.700000000000000000e+01
4.459500000000000000e+04,-5.999999999999999474e-05,-1.199999999999999895e-04,-2.999999999999999737e-05,-1.199999999999999895e-04,-1.399999999999999877e-04,-2.999999999999999737e-05,-2.999999999999999737e-05,8.000000000000000654e-05,3.000000000000000000e+00,1.700000000000000000e+01
4.459600000000000000e+04,-5.999999999999999474e-05,-1.199999999999999895e-04,-2.999999999999999737e-05,-1.199999999999999895e-04,-1.399999999999999877e-04,-2.999999999999999737e-05,-2.999999999999999737e-05,8.000000000000000654e-05,3.000000000000000000e+00,1.700000000000000000e+01
4.459700000000000000e+04,-5.999999999999999474e-05,-1.199999999999999895e-04,-2.999999999999999737e-05,-1.199999999999999895e-04,-1.399999999999999877e-04,-2.999999999999999737e-05,-2.999999999999999737e-05,8.000000000000000654e-05,3.000000000000000000e+00,1.700000000000000000e+01
4.459800000000000000e+04,-5.999999999999999474e-05,-1.199999999999999895e-04,-2.999999999999999737e-05,-1.199999999999999895e-04,-1.399999999999999877e-04,-2.999999999999999737e-05,-2.999999999999999737e-05,8.000000000000000654e-05,3.000000000000000000e+00,1.700000000000000000e+01
4.459900000000000000e+04,-5.999999999999999474e-05,-1.199999999999999895e-04,-2.999999999999999737e-05,-1.199999999999999895e-04,-1.399999999999999877e-04,-2.999999999999999737e-05,-2.999999999999999737e-05,8.000000000000000654e-05,3.000000000000000000e+00,1.700000000000000000e+01
4.460000000000000000e+04,-5.999999999999999474e-05,-1.199999999999999895e-04,-2.999999999999999737e-05,-1.199999999999999895e-04,-1.399999999999999877e-04,-2.999999999999999737e-05,-2.999999999999999737e-05,8.000000000000000654e-05,3.000000000000000000e+00,1.700000000000000000e+01
4.460100000000000000e+04,-5.999999999999999474e-05,-1.199999999999999895e-04,-2.999999999999999737e-05,-1.199999999999999895e-04,-1.399999999999999877e-04,-2.999999999999999737e-05,-2.999999999999999737e-05,8.000000000000000654e-05,3.000000000000000000e+00,1.700000000000000000e+01
4.460200000000000000e+04,-5.999999999999999474e-05,-1.199999999999999895e-04,-2.999999999999999737e-05,-1.199999999999999895e-04,-1.399999999999999877e-04,-2.999999999999999737e-05,-2.999999999999999737e-05,8.000000000000000654e-05,3.000000000000000000e+00,1.700000000000000000e+01
4.460300000000000000e+04,-5.999999999999999474e-05,-1.199999999999999895e-04,-2.999999999999999737e-05,-1.199999999999999895e-04,-1.399999999999999877e-04,-2.999999999999999737e-05,-2.999999999999999737e-05,8.000000000000000654e-05,3.000000000000000000e+00,1.700000000000000000e+01
4.460400000000000000e+04,-5.999999999999999474e-05,-1.199999999999999895e-04,-2.999999999999999737e-05,-1.199999999999999895e-04,-1.399999999999999877e-04,-2.999999999999999737e-05,-2.999999999999999737e-05,8.000000000000000654e-05,3.000000000000000000e+00,1.700000000000000000e+01
4.460500000000000000e+04,2.299999999999999799e-04,2.700000000000000035e-04,1.699999999999999851e-04,2.999999999999999737e-05,1.000000000000000048e-04,2.000000000000000164e-05,2.999999999999999737e-05,1.699999999999999851e-04,3.000000000000000000e+00,1.700000000000000000e+01
4.460600000000000000e+04,2.299999999999999799e-04,2.700000000000000035e-04,1.699999999999999851e-04,2.999999999999999737e-05,1.000000000000000048e-04,2.000000000000000164e-05,2.999999999999999737e-05,1.699999999999999851e-04,3.000000000000000000e+00,1.700000000000000000e+01
4.460700000000000000e+04,2.299999999999999799e-04,2.700000000000000035e-04,1.699999999999999851e-04,2.999999999999999737e-05,1.000000000000000048e-04,2.000000000000000164e-05,2.999999999999999737e-05,1.699999999999999851e-04,3.000000000000000000e+00,1.700000000000000000e+01
4.460800000000000000e+04,2.299999999999999799e-04,2.700000000000000035e-04,1.699999999999999851e-04,2.999999999999999737e-05,1.000000000000000048e-04,2.000000000000000164e-05,2.999999999999999737e-05,1.699999999999999851e-04,3.000000000000000000e+00,1.700000000000000000e+01
4.460900000000000000e+04,2.299999999999999799e-04,2.700000000000000035e-04,1.699999999999999851e-04,2.999999999999999737e-05,1.000000000000000048e-04,2.000000000000000164e-05,2.999999999999999737e-05,1.699999999999999851e-04,3.000000000000000000e+00,1.700000000000000000e+01
4.461000000000000000e+04,2.299999999999999799e-04,2.700000000000000035e-04,1.699999999999999851e-04,2.999999999999999737e-05,1.000000000000000048e-04,2.000000000000000164e-05,2.999999999999999737e-05,1.699999999999999851e-04,3.000000000000000000e+00,1.700000000000000000e+01
4.461100000000000000e+04,-2.900000000000000017e-04,-5.999999999999999474e-04,-2.299999999999999799e-04,-1.499999999999999869e-04,-9.000000000000000567e-05,0.000000000000000000e+00,-5.000000000000000240e-05,1.000000000000000048e-04,3.000000000000000000e+00,1.700000000000000000e+01
4.461300000000000000e+04,-2.900000000000000017e-04,-5.999999999999999474e-04,-2.299999999999999799e-04,-1.499999999999999869e-04,-9.000000000000000567e-05,0.000000000000000000e+00,-5.000000000000000240e-05,1.000000000000000048e-04,3.000000000000000000e+00,1.700000000000000000e+01
4.461400000000000000e+04,-2.900000000000000017e-04,-5.999999999999999474e-04,-2.299999999999999799e-04,-1.499999999999999869e-04,-9.000000000000000567e-05,0.000000000000000000e+00,-5.000000000000000240e-05,1.000000000000000048e-04,3.000000000000000000e+00,1.700000000000000000e+01
4.461500000000000000e+04,-2.900000000000000017e-04,-5.999999999999999474e-04,-2.299999999999999799e-04,-1.499999999999999869e-04,-9.000000000000000567e-05,0.000000000000000000e+00,-5.000000000000000240e-05,1.000000000000000048e-04,3.000000000000000000e+00,1.700000000000000000e+01
4.461600000000000000e+04,-2.900000000000000017e-04,-5.999999999999999474e-04,-2.299999999999999799e-04,-1.499999999999999869e-04,-9.000000000000000567e-05,0.000000000000000000e+00,-5.000000000000000240e-05,1.000000000000000048e-04,3.000000000000000000e+00,1.700000000000000000e+01
4.461700000000000000e+04,-2.900000000000000017e-04,-5.999999999999999474e-04,-2.299999999999999799e-04,-1.499999999999999869e-04,-9.000000000000000567e-05,0.000000000000000000e+00,-5.000000000000000240e-05,1.000000000000000048e-04,3.000000000000000000e+00,1.700000000000000000e+01
4.461800000000000000e+04,-2.900000000000000017e-04,-5.999999999999999474e-04,-2.299999999999999799e-04,-1.499999999999999869e-04,-9.000000000000000567e-05,0.000000000000000000e+00,-5.000000000000000240e-05,1.000000000000000048e-04,3.000000000000000000e+00,1.700000000000000000e+01
4.461900000000000000e+04,-2.900000000000000017e-04,-5.999999999999999474e-04,-2.299999999999999799e-04,-1.499999999999999869e-04,-9.000000000000000567e-05,0.000000000000000000e+00,-5.000000000000000240e-05,1.000000000000000048e-04,3.000000000000000000e+00,1.700000000000000000e+01
4.462000000000000000e+04,-2.900000000000000017e-04,-5.999999999999999474e-04,-2.299999999999999799e-04,-1.499999999999999869e-04,-9.000000000000000567e-05,0.000000000000000000e+00,-5.000000000000000240e-05,1.000000000000000048e-04,3.000000000000000000e+00,1.700000000000000000e+01
4.462100000000000000e+04,-2.900000000000000017e-04,-5.999999999999999474e-04,-2.299999999999999799e-04,-1.499999999999999869e-04,-9.000000000000000567e-05,0.000000000000000000e+00,-5.000000000000000240e-05,1.000000000000000048e-04,3.000000000000000000e+00,1.700000000000000000e+01
4.462200000000000000e+04,-2.900000000000000017e-04,-5.999999999999999474e-04,-2.299999999999999799e-04,-1.499999999999999869e-04,-9.000000000000000567e-05,0.000000000000000000e+00,-5.000000000000000240e-05,1.000000000000000048e-04,3.000000000000000000e+00,1.700000000000000000e+01
4.462300000000000000e+04,-2.900000000000000017e-04,-5.999999999999999474e-04,-2.299999999999999799e-04,-1.499999999999999869e-04,-9.000000000000000567e-05,0.000000000000000000e+00,-5.000000000000000240e-05,1.000000000000000048e-04,3.000000000000000000e+00,1.700000000000000000e+01
4.462400000000000000e+04,-2.900000000000000017e-04,-5.999999999999999474e-04,-2.299999999999999799e-04,-1.499999999999999869e-04,-9.000000000000000567e-05,0.000000000000000000e+00,-5.000000000000000240e-05,1.000000000000000048e-04,3.000000000000000000e+00,1.700000000000000000e+01
4.462500000000000000e+04,-2.900000000000000017e-04,-5.999999999999999474e-04,-2.299999999999999799e-04,-1.499999999999999869e-04,-9.000000000000000567e-05,0.000000000000000000e+00,-5.000000000000000240e-05,1.000000000000000048e-04,3.000000000000000000e+00,1.700000000000000000e+01
4.462600000000000000e+04,-2.900000000000000017e-04,-5.999999999999999474e-04,-2.299999999999999799e-04,-1.499999999999999869e-04,-9.000000000000000567e-05,0.000000000000000000e+00,-5.000000000000000240e-05,1.000000000000000048e-04,3.000000000000000000e+00,1.700000000000000000e+01
4.462700000000000000e+04,-2.900000000000000017e-04,-5.999999999999999474e-04,-2.299999999999999799e-04,-1.499999999999999869e-04,-9.000000000000000567e-05,0.000000000000000000e+00,-5.000000000000000240e-05,1.000000000000000048e-04,3.000000000000000000e+00,1.700000000000000000e+01
4.462800000000000000e+04,-1.000000000000000048e-04,-6.999999999999999387e-05,2.000000000000000164e-05,2.000000000000000164e-05,1.000000000000000048e-04,8.000000000000000654e-05,-1.000000000000000082e-05,-4.000000000000000327e-05,3.000000000000000000e+00,1.700000000000000000e+01
4.462900000000000000e+04,-1.000000000000000048e-04,-6.999999999999999387e-05,2.000000000000000164e-05,2.000000000000000164e-05,1.000000000000000048e-04,8.000000000000000654e-05,-1.000000000000000082e-05,-4.000000000000000327e-05,3.000000000000000000e+00,1.700000000000000000e+01
4.463000000000000000e+04,2.600000000000000314e-04,2.799999999999999755e-04,1.300000000000000157e-04,1.399999999999999877e-04,4.700000000000000401e-04,9.000000000000000567e-05,8.000000000000000654e-05,5.000000000000000240e-05,3.000000000000000000e+00,1.700000000000000000e+01
4.463100000000000000e+04,2.600000000000000314e-04,2.799999999999999755e-04,1.300000000000000157e-04,1.399999999999999877e-04,4.700000000000000401e-04,9.000000000000000567e-05,8.000000000000000654e-05,5.000000000000000240e-05,3.000000000000000000e+00,1.700000000000000000e+01
4.463200000000000000e+04,2.600000000000000314e-04,2.799999999999999755e-04,1.300000000000000157e-04,1.399999999999999877e-04,4.700000000000000401e-04,9.000000000000000567e-05,8.000000000000000654e-05,5.000000000000000240e-05,3.000000000000000000e+00,1.700000000000000000e+01
4.463300000000000000e+04,2.600000000000000314e-04,2.799999999999999755e-04,1.300000000000000157e-04,1.399999999999999877e-04,4.700000000000000401e-04,9.000000000000000567e-05,8.000000000000000654e-05,5.000000000000000240e-05,3.000000000000000000e+00,1.700000000000000000e+01
4.463400000000000000e+04,2.600000000000000314e-04,2.799999999999999755e-04,1.300000000000000157e-04,1.399999999999999877e-04,4.700000000000000401e-04,9.000000000000000567e-05,8.000000000000000654e-05,5.000000000000000240e-05,3.000000000000000000e+00,1.700000000000000000e+01
4.463500000000000000e+04,2.600000000000000314e-04,2.799999999999999755e-04,1.300000000000000157e-04,1.399999999999999877e-04,4.700000000000000401e-04,9.000000000000000567e-05,8.000000000000000654e-05,5.000000000000000240e-05,3.000000000000000000e+00,1.700000000000000000e+01
4.463600000000000000e+04,2.600000000000000314e-04,2.799999999999999755e-04,1.300000000000000157e-04,1.399999999999999877e-04,4.700000000000000401e-04,9.000000000000000567e-05,8.000000000000000654e-05,5.000000000000000240e-05,3.000000000000000000e+00,1.700000000000000000e+01
4.463800000000000000e+04,2.600000000000000314e-04,2.799999999999999755e-04,1.300000000000000157e-04,1.399999999999999877e-04,4.700000000000000401e-04,9.000000000000000567e-05,8.000000000000000654e-05,5.000000000000000240e-05,3.000000000000000000e+00,1.700000000000000000e+01
4.463900000000000000e+04,2.600000000000000314e-04,2.799999999999999755e-04,1.300000000000000157e-04,1.399999999999999877e-04,4.700000000000000401e-04,9.000000000000000567e-05,8.000000000000000654e-05,5.000000000000000240e-05,3.000000000000000000e+00,1.700000000000000000e+01
4.464000000000000000e+04,2.600000000000000314e-04,2.799999999999999755e-04,1.300000000000000157e-04,1.399999999999999877e-04,4.700000000000000401e-04,9.000000000000000567e-05,8.000000000000000654e-05,5.000000000000000240e-05,3.000000000000000000e+00,1.700000000000000000e+01
4.464100000000000000e+04,2.600000000000000314e-04,2.799999999999999755e-04,1.300000000000000157e-04,1.399999999999999877e-04,4.700000000000000401e-04,9.000000000000000567e-05,8.000000000000000654e-05,5.000000000000000240e-05,3.000000000000000000e+00,1.700000000000000000e+01
4.464200000000000000e+04,2.600000000000000314e-04,2.799999999999999755e-04,1.300000000000000157e-04,1.399999999999999877e-04,4.700000000000000401e-04,9.000000000000000567e-05,8.000000000000000654e-05,5.000000000000000240e-05,3.000000000000000000e+00,1.700000000000000000e+01
4.464300000000000000e+04,2.600000000000000314e-04,2.799999999999999755e-04,1.300000000000000157e-04,1.399999999999999877e-04,4.700000000000000401e-04,9.000000000000000567e-05,8.000000000000000654e-05,5.000000000000000240e-05,3.000000000000000000e+00,1.700000000000000000e+01
4.464400000000000000e+04,2.600000000000000314e-04,2.799999999999999755e-04,1.300000000000000157e-04,1.399999999999999877e-04,4.700000000000000401e-04,9.000000000000000567e-05,8.000000000000000654e-05,5.000000000000000240e-05,3.000000000000000000e+00,1.700000000000000000e+01
4.464500000000000000e+04,2.600000000000000314e-04,2.799999999999999755e-04,1.300000000000000157e-04,1.399999999999999877e-04,4.700000000000000401e-04,9.000000000000000567e-05,8.000000000000000654e-05,5.000000000000000240e-05,3.000000000000000000e+00,1.700000000000000000e+01
4.464600000000000000e+04,2.600000000000000314e-04,2.799999999999999755e-04,1.300000000000000157e-04,1.399999999999999877e-04,4.700000000000000401e-04,9.000000000000000567e-05,8.000000000000000654e-05,5.000000000000000240e-05,3.000000000000000000e+00,1.700000000000000000e+01
4.464700000000000000e+04,2.600000000000000314e-04,2.799999999999999755e-04,1.300000000000000157e-04,1.399999999999999877e-04,4.700000000000000401e-04,9.000000000000000567e-05,8.000000000000000654e-05,5.000000000000000240e-05,3.000000000000000000e+00,1.700000000000000000e+01
4.464800000000000000e+04,2.600000000000000314e-04,2.799999999999999755e-04,1.300000000000000157e-04,1.399999999999999877e-04,4.700000000000000401e-04,9.000000000000000567e-05,8.000000000000000654e-05,5.000000000000000240e-05,3.000000000000000000e+00,1.700000000000000000e+01
4.464900000000000000e+04,2.600000000000000314e-04,2.799999999999999755e-04,1.300000000000000157e-04,1.399999999999999877e-04,4.700000000000000401e-04,9.000000000000000567e-05,8.000000000000000654e-05,5.000000000000000240e-05,3.000000000000000000e+00,1.700000000000000000e+01
4.465000000000000000e+04,-4.000000000000000327e-05,1.899999999999999834e-04,1.199999999999999895e-04,-2.999999999999999737e-05,-5.999999999999999474e-05,-4.000000000000000327e-05,9.000000000000000567e-05,6.999999999999999387e-05,3.000000000000000000e+00,1.700000000000000000e+01
4.465100000000000000e+04,-4.000000000000000327e-05,1.899999999999999834e-04,1.199999999999999895e-04,-2.999999999999999737e-05,-5.999999999999999474e-05,-4.000000000000000327e-05,9.000000000000000567e-05,6.999999999999999387e-05,3.000000000000000000e+00,1.700000000000000000e+01
4.465200000000000000e+04,-1.100000000000000039e-04,-2.700000000000000035e-04,-1.000000000000000048e-04,-5.999999999999999474e-05,-1.399999999999999877e-04,-6.999999999999999387e-05,-6.999999999999999387e-05,-2.000000000000000164e-05,3.000000000000000000e+00,1.700000000000000000e+01
4.465300000000000000e+04,-1.100000000000000039e-04,-2.700000000000000035e-04,-1.000000000000000048e-04,-5.999999999999999474e-05,-1.399999999999999877e-04,-6.999999999999999387e-05,-6.999999999999999387e-05,-2.000000000000000164e-05,3.000000000000000000e+00,1.700000000000000000e+01
4.465400000000000000e+04,-1.100000000000000039e-04,-2.700000000000000035e-04,-1.000000000000000048e-04,-5.999999999999999474e-05,-1.399999999999999877e-04,-6.999999999999999387e-05,-6.999999999999999387e-05,-2.000000000000000164e-05,3.000000000000000000e+00,1.700000000000000000e+01
4.465500000000000000e+04,-1.100000000000000039e-04,-2.700000000000000035e-04,-1.000000000000000048e-04,-5.999999999999999474e-05,-1.399999999999999877e-04,-6.999999999999999387e-05,-6.999999999999999387e-05,-2.000000000000000164e-05,3.000000000000000000e+00,1.700000000000000000e+01
4.465600000000000000e+04,-1.100000000000000039e-04,-2.700000000000000035e-04,-1.000000000000000048e-04,-5.999999999999999474e-05,-1.399999999999999877e-04,-6.999999999999999387e-05,-6.999999999999999387e-05,-2.000000000000000164e-05,3.000000000000000000e+00,1.700000000000000000e+01
4.465700000000000000e+04,-1.100000000000000039e-04,-2.700000000000000035e-04,-1.000000000000000048e-04,-5.999999999999999474e-05,-1.399999999999999877e-04,-6.999999999999999387e-05,-6.999999999999999387e-05,-2.000000000000000164e-05,3.000000000000000000e+00,1.700000000000000000e+01
4.465800000000000000e+04,-1.100000000000000039e-04,-2.700000000000000035e-04,-1.000000000000000048e-04,-5.999999999999999474e-05,-1.399999999999999877e-04,-6.999999999999999387e-05,-6.999999999999999387e-05,-2.000000000000000164e-05,3.000000000000000000e+00,1.700000000000000000e+01
4.465900000000000000e+04,-1.100000000000000039e-04,-2.700000000000000035e-04,-1.000000000000000048e-04,-5.999999999999999474e-05,-1.399999999999999877e-04,-6.999999999999999387e-05,-6.999999999999999387e-05,-2.000000000000000164e-05,3.000000000000000000e+00,1.700000000000000000e+01
4.466000000000000000e+04,-1.100000000000000039e-04,-2.700000000000000035e-04,-1.000000000000000048e-04,-5.999999999999999474e-05,-1.399999999999999877e-04,-6.999999999999999387e-05,-6.999999999999999387e-05,-2.000000000000000164e-05,3.000000000000000000e+00,1.700000000000000000e+01
4.466100000000000000e+04,-1.100000000000000039e-04,-2.700000000000000035e-04,-1.000000000000000048e-04,-5.999999999999999474e-05,-1.399999999999999877e-04,-6.999999999999999387e-05,-6.999999999999999387e-05,-2.000000000000000164e-05,3.000000000000000000e+00,1.700000000000000000e+01
4.466200000000000000e+04,-1.100000000000000039e-04,-2.700000000000000035e-04,-1.000000000000000048e-04,-5.999999999999999474e-05,-1.399999999999999877e-04,-6.999999999999999387e-05,-6.999999999999999387e-05,-2.000000000000000164e-05,3.000000000000000000e+00,1.700000000000000000e+01
4.466300000000000000e+04,-1.100000000000000039e-04,-2.700000000000000035e-04,-1.000000000000000048e-04,-5.999999999999999474e-05,-1.399999999999999877e-04,-6.999999999999999387e-05,-6.999999999999999387e-05,-2.000000000000000164e-05,3.000000000000000000e+00,1.700000000000000000e+01
4.466400000000000000e+04,-1.100000000000000039e-04,-2.700000000000000035e-04,-1.000000000000000048e-04,-5.999999999999999474e-05,-1.399999999999999877e-04,-6.999999999999999387e-05,-6.999999999999999387e-05,-2.000000000000000164e-05,3.000000000000000000e+00,1.700000000000000000e+01
4.466500000000000000e+04,-9.000000000000000567e-05,-1.300000000000000157e-04,-1.000000000000000082e-05,6.999999999999999387e-05,1.600000000000000131e-04,5.000000000000000240e-05,-1.499999999999999869e-04,-1.399999999999999877e-04,3.000000000000000000e+00,1.700000000000000000e+01
4.466600000000000000e+04,-9.000000000000000567e-05,-1.300000000000000157e-04,-1.000000000000000082e-05,6.999999999999999387e-05,1.600000000000000131e-04,5.000000000000000240e-05,-1.499999999999999869e-04,-1.399999999999999877e-04,3.000000000000000000e+00,1.700000000000000000e+01
4.466700000000000000e+04,-9.000000000000000567e-05,-1.300000000000000157e-04,-1.000000000000000082e-05,6.999999999999999387e-05,1.600000000000000131e-04,5.000000000000000240e-05,-1.499999999999999869e-04,-1.399999999999999877e-04,3.000000000000000000e+00,1.700000000000000000e+01
4.466800000000000000e+04,-9.000000000000000567e-05,-1.300000000000000157e-04,-1.000000000000000082e-05,6.999999999999999387e-05,1.600000000000000131e-04,5.000000000000000240e-05,-1.499999999999999869e-04,-1.399999999999999877e-04,3.000000000000000000e+00,1.700000000000000000e+01
4.466900000000000000e+04,-9.000000000000000567e-05,-1.300000000000000157e-04,-1.000000000000000082e-05,6.999999999999999387e-05,1.600000000000000131e-04,5.000000000000000240e-05,-1.499999999999999869e-04,-1.399999999999999877e-04,3.000000000000000000e+00,1.700000000000000000e+01
4.467000000000000000e+04,-9.000000000000000567e-05,-1.300000000000000157e-04,-1.000000000000000082e-05,6.999999999999999387e-05,1.600000000000000131e-04,5.000000000000000240e-05,-1.499999999999999869e-04,-1.399999999999999877e-04,3.000000000000000000e+00,1.700000000000000000e+01
4.467100000000000000e+04,-9.000000000000000567e-05,-1.300000000000000157e-04,-1.000000000000000082e-05,6.999999999999999387e-05,1.600000000000000131e-04,5.000000000000000240e-05,-1.499999999999999869e-04,-1.399999999999999877e-04,3.000000000000000000e+00,1.700000000000000000e+01
4.467200000000000000e+04,-9.000000000000000567e-05,-1.300000000000000157e-04,-1.000000000000000082e-05,6.999999999999999387e-05,1.600000000000000131e-04,5.000000000000000240e-05,-1.499999999999999869e-04,-1.399999999999999877e-04,3.000000000000000000e+00,1.700000000000000000e+01
4.467300000000000000e+04,-9.000000000000000567e-05,-1.300000000000000157e-04,-1.000000000000000082e-05,6.999999999999999387e-05,1.600000000000000131e-04,5.000000000000000240e-05,-1.499999999999999869e-04,-1.399999999999999877e-04,3.000000000000000000e+00,1.700000000000000000e+01
4.467400000000000000e+04,-9.000000000000000567e-05,-1.300000000000000157e-04,-1.000000000000000082e-05,6.999999999999999387e-05,1.600000000000000131e-04,5.000000000000000240e-05,-1.499999999999999869e-04,-1.399999999999999877e-04,3.000000000000000000e+00,1.700000000000000000e+01
4.467500000000000000e+04,-9.000000000000000567e-05,-1.300000000000000157e-04,-1.000000000000000082e-05,6.999999999999999387e-05,1.600000000000000131e-04,5.000000000000000240e-05,-1.499999999999999869e-04,-1.399999999999999877e-04,3.000000000000000000e+00,1.700000000000000000e+01
4.467600000000000000e+04,-9.000000000000000567e-05,-1.300000000000000157e-04,-1.000000000000000082e-05,6.999999999999999387e-05,1.600000000000000131e-04,5.000000000000000240e-05,-1.499999999999999869e-04,-1.399999999999999877e-04,3.000000000000000000e+00,1.700000000000000000e+01
4.467700000000000000e+04,-9.000000000000000567e-05,-1.300000000000000157e-04,-1.000000000000000082e-05,6.999999999999999387e-05,1.600000000000000131e-04,5.000000000000000240e-05,-1.499999999999999869e-04,-1.399999999999999877e-04,3.000000000000000000e+00,1.700000000000000000e+01
4.467800000000000000e+04,-9.000000000000000567e-05,-1.300000000000000157e-04,-1.000000000000000082e-05,6.999999999999999387e-05,1.600000000000000131e-04,5.000000000000000240e-05,-1.499999999999999869e-04,-1.399999999999999877e-04,3.000000000000000000e+00,1.700000000000000000e+01
4.467900000000000000e+04,3.099999999999999999e-04,2.299999999999999799e-04,2.100000000000000087e-04,5.999999999999999474e-05,-1.000000000000000082e-05,5.000000000000000240e-05,-1.000000000000000082e-05,8.000000000000000654e-05,3.000000000000000000e+00,1.700000000000000000e+01
4.468000000000000000e+04,3.099999999999999999e-04,2.299999999999999799e-04,2.100000000000000087e-04,5.999999999999999474e-05,-1.000000000000000082e-05,5.000000000000000240e-05,-1.000000000000000082e-05,8.000000000000000654e-05,3.000000000000000000e+00,1.700000000000000000e+01
4.468100000000000000e+04,3.099999999999999999e-04,2.299999999999999799e-04,2.100000000000000087e-04,5.999999999999999474e-05,-1.000000000000000082e-05,5.000000000000000240e-05,-1.000000000000000082e-05,8.000000000000000654e-05,3.000000000000000000e+00,1.700000000000000000e+01
4.468200000000000000e+04,3.099999999999999999e-04,2.299999999999999799e-04,2.100000000000000087e-04,5.999999999999999474e-05,-1.000000000000000082e-05,5.000000000000000240e-05,-1.000000000000000082e-05,8.000000000000000654e-05,3.000000000000000000e+00,1.700000000000000000e+01
4.468300000000000000e+04,3.099999999999999999e-04,2.299999999999999799e-04,2.100000000000000087e-04,5.999999999999999474e-05,-1.000000000000000082e-05,5.000000000000000240e-05,-1.000000000000000082e-05,8.000000000000000654e-05,3.000000000000000000e+00,1.700000000000000000e+01
4.468400000000000000e+04,3.099999999999999999e-04,2.299999999999999799e-04,2.100000000000000087e-04,5.999999999999999474e-05,-1.000000000000000082e-05,5.000000000000000240e-05,-1.000000000000000082e-05,8.000000000000000654e-05,3.000000000000000000e+00,1.700000000000000000e+01
4.468500000000000000e+04,3.099999999999999999e-04,2.299999999999999799e-04,2.100000000000000087e-04,5.999999999999999474e-05,-1.000000000000000082e-05,5.000000000000000240e-05,-1.000000000000000082e-05,8.000000000000000654e-05,3.000000000000000000e+00,1.700000000000000000e+01
4.468600000000000000e+04,3.099999999999999999e-04,2.299999999999999799e-04,2.100000000000000087e-04,5.999999999999999474e-05,-1.000000000000000082e-05,5.000000000000000240e-05,-1.000000000000000082e-05,8.000000000000000654e-05,3.000000000000000000e+00,1.700000000000000000e+01
4.468800000000000000e+04,2.999999999999999737e-04,6.400000000000000524e-04,1.000000000000000048e-04,4.000000000000000327e-05,1.000000000000000082e-05,1.600000000000000131e-04,1.600000000000000131e-04,1.000000000000000082e-05,3.000000000000000000e+00,1.700000000000000000e+01
4.468900000000000000e+04,-4.000000000000000327e-05,-1.100000000000000039e-04,-1.100000000000000039e-04,-2.999999999999999737e-05,2.000000000000000164e-05,1.000000000000000082e-05,-6.999999999999999387e-05,9.000000000000000567e-05,3.000000000000000000e+00,1.700000000000000000e+01
4.469000000000000000e+04,-4.000000000000000327e-05,-1.100000000000000039e-04,-1.100000000000000039e-04,-2.999999999999999737e-05,2.000000000000000164e-05,1.000000000000000082e-05,-6.999999999999999387e-05,9.000000000000000567e-05,3.000000000000000000e+00,1.700000000000000000e+01
4.469100000000000000e+04,-4.000000000000000327e-05,-1.100000000000000039e-04,-1.100000000000000039e-04,-2.999999999999999737e-05,2.000000000000000164e-05,1.000000000000000082e-05,-6.999999999999999387e-05,9.000000000000000567e-05,3.000000000000000000e+00,1.700000000000000000e+01
4.469200000000000000e+04,-4.000000000000000327e-05,-1.100000000000000039e-04,-1.100000000000000039e-04,-2.999999999999999737e-05,2.000000000000000164e-05,1.000000000000000082e-05,-6.999999999999999387e-05,9.000000000000000567e-05,3.000000000000000000e+00,1.700000000000000000e+01
4.469300000000000000e+04,-4.000000000000000327e-05,-1.100000000000000039e-04,-1.100000000000000039e-04,-2.999999999999999737e-05,2.000000000000000164e-05,1.000000000000000082e-05,-6.999999999999999387e-05,9.000000000000000567e-05,3.000000000000000000e+00,1.700000000000000000e+01
4.469400000000000000e+04,-4.000000000000000327e-05,-1.100000000000000039e-04,-1.100000000000000039e-04,-2.999999999999999737e-05,2.000000000000000164e-05,1.000000000000000082e-05,-6.999999999999999387e-05,9.000000000000000567e-05,3.000000000000000000e+00,1.700000000000000000e+01
4.469500000000000000e+04,-4.000000000000000327e-05,-1.100000000000000039e-04,-1.100000000000000039e-04,-2.999999999999999737e-05,2.000000000000000164e-05,1.000000000000000082e-05,-6.999999999999999387e-05,9.000000000000000567e-05,3.000000000000000000e+00,1.700000000000000000e+01
4.469600000000000000e+04,-4.000000000000000327e-05,-1.100000000000000039e-04,-1.100000000000000039e-04,-2.999999999999999737e-05,2.000000000000000164e-05,1.000000000000000082e-05,-6.999999999999999387e-05,9.000000000000000567e-05,3.000000000000000000e+00,1.700000000000000000e+01
4.469700000000000000e+04,-4.000000000000000327e-05,-1.100000000000000039e-04,-1.100000000000000039e-04,-2.999999999999999737e-05,2.000000000000000164e-05,1.000000000000000082e-05,-6.999999999999999387e-05,9.000000000000000567e-05,3.000000000000000000e+00,1.700000000000000000e+01
4.469800000000000000e+04,-4.000000000000000327e-05,-1.100000000000000039e-04,-1.100000000000000039e-04,-2.999999999999999737e-05,2.000000000000000164e-05,1.000000000000000082e-05,-6.999999999999999387e-05,9.000000000000000567e-05,3.000000000000000000e+00,1.700000000000000000e+01
4.469900000000000000e+04,-4.000000000000000327e-05,-1.100000000000000039e-04,-1.100000000000000039e-04,-2.999999999999999737e-05,2.000000000000000164e-05,1.000000000000000082e-05,-6.999999999999999387e-05,9.000000000000000567e-05,3.000000000000000000e+00,1.700000000000000000e+01
4.470000000000000000e+04,-4.000000000000000327e-05,-1.100000000000000039e-04,-1.100000000000000039e-04,-2.999999999999999737e-05,2.000000000000000164e-05,1.000000000000000082e-05,-6.999999999999999387e-05,9.000000000000000567e-05,3.000000000000000000e+00,1.700000000000000000e+01
4.470100000000000000e+04,-4.000000000000000327e-05,-1.100000000000000039e-04,-1.100000000000000039e-04,-2.999999999999999737e-05,2.000000000000000164e-05,1.000000000000000082e-05,-6.999999999999999387e-05,9.000000000000000567e-05,3.000000000000000000e+00,1.700000000000000000e+01
4.470200000000000000e+04,-4.000000000000000327e-05,-1.100000000000000039e-04,-1.100000000000000039e-04,-2.999999999999999737e-05,2.000000000000000164e-05,1.000000000000000082e-05,-6.999999999999999387e-05,9.000000000000000567e-05,3.000000000000000000e+00,1.700000000000000000e+01
4.470300000000000000e+04,-4.000000000000000327e-05,-1.100000000000000039e-04,-1.100000000000000039e-04,-2.999999999999999737e-05,2.000000000000000164e-05,1.000000000000000082e-05,-6.999999999999999387e-05,9.000000000000000567e-05,3.000000000000000000e+00,1.700000000000000000e+01
4.470400000000000000e+04,-4.000000000000000327e-05,-1.100000000000000039e-04,-1.100000000000000039e-04,-2.999999999999999737e-05,2.000000000000000164e-05,1.000000000000000082e-05,-6.999999999999999387e-05,9.000000000000000567e-05,3.000000000000000000e+00,1.700000000000000000e+01
4.470500000000000000e+04,-4.000000000000000327e-05,-1.100000000000000039e-04,-1.100000000000000039e-04,-2.999999999999999737e-05,2.000000000000000164e-05,1.000000000000000082e-05,-6.999999999999999387e-05,9.000000000000000567e-05,3.000000000000000000e+00,1.700000000000000000e+01
4.470600000000000000e+04,-4.000000000000000327e-05,-1.100000000000000039e-04,-1.100000000000000039e-04,-2.999999999999999737e-05,2.000000000000000164e-05,1.000000000000000082e-05,-6.999999999999999387e-05,9.000000000000000567e-05,3.000000000000000000e+00,1.700000000000000000e+01
4.470700000000000000e+04,-4.000000000000000327e-05,-1.100000000000000039e-04,-1.100000000000000039e-04,-2.999999999999999737e-05,2.000000000000000164e-05,1.000000000000000082e-05,-6.999999999999999387e-05,9.000000000000000567e-05,3.000000000000000000e+00,1.700000000000000000e+01
4.470800000000000000e+04,-4.000000000000000327e-05,-1.100000000000000039e-04,-1.100000000000000039e-04,-2.999999999999999737e-05,2.000000000000000164e-05,1.000000000000000082e-05,-6.999999999999999387e-05,9.000000000000000567e-05,3.000000000000000000e+00,1.700000000000000000e+01
4.470900000000000000e+04,-4.000000000000000327e-05,-1.100000000000000039e-04,-1.100000000000000039e-04,-2.999999999999999737e-05,2.000000000000000164e-05,1.000000000000000082e-05,-6.999999999999999387e-05,9.000000000000000567e-05,3.000000000000000000e+00,1.700000000000000000e+01
4.471000000000000000e+04,-4.000000000000000327e-05,-1.100000000000000039e-04,-1.100000000000000039e-04,-2.999999999999999737e-05,2.000000000000000164e-05,1.000000000000000082e-05,-6.999999999999999387e-05,9.000000000000000567e-05,3.000000000000000000e+00,1.700000000000000000e+01
4.471100000000000000e+04,-4.000000000000000327e-05,1.600000000000000131e-04,-1.000000000000000082e-05,-5.000000000000000240e-05,-1.000000000000000048e-04,2.000000000000000164e-05,2.999999999999999737e-05,-2.200000000000000078e-04,3.000000000000000000e+00,1.700000000000000000e+01
4.471200000000000000e+04,-4.000000000000000327e-05,1.600000000000000131e-04,-1.000000000000000082e-05,-5.000000000000000240e-05,-1.000000000000000048e-04,2.000000000000000164e-05,2.999999999999999737e-05,-2.200000000000000078e-04,3.000000000000000000e+00,1.700000000000000000e+01
4.471300000000000000e+04,-4.000000000000000327e-05,1.600000000000000131e-04,-1.000000000000000082e-05,-5.000000000000000240e-05,-1.000000000000000048e-04,2.000000000000000164e-05,2.999999999999999737e-05,-2.200000000000000078e-04,3.000000000000000000e+00,1.700000000000000000e+01
4.471400000000000000e+04,-4.000000000000000327e-05,1.600000000000000131e-04,-1.000000000000000082e-05,-5.000000000000000240e-05,-1.000000000000000048e-04,2.000000000000000164e-05,2.999999999999999737e-05,-2.200000000000000078e-04,3.000000000000000000e+00,1.700000000000000000e+01
4.471500000000000000e+04,-4.000000000000000327e-05,1.600000000000000131e-04,-1.000000000000000082e-05,-5.000000000000000240e-05,-1.000000000000000048e-04,2.000000000000000164e-05,2.999999999999999737e-05,-2.200000000000000078e-04,3.000000000000000000e+00,1.700000000000000000e+01
4.471600000000000000e+04,-1.000000000000000048e-04,-2.000000000000000096e-04,-1.199999999999999895e-04,-1.300000000000000157e-04,-3.399999999999999702e-04,-4.400000000000000157e-04,-2.999999999999999737e-05,-2.000000000000000096e-04,3.000000000000000000e+00,1.700000000000000000e+01
4.471700000000000000e+04,-1.000000000000000048e-04,-2.000000000000000096e-04,-1.199999999999999895e-04,-1.300000000000000157e-04,-3.399999999999999702e-04,-4.400000000000000157e-04,-2.999999999999999737e-05,-2.000000000000000096e-04,3.000000000000000000e+00,1.700000000000000000e+01
4.471800000000000000e+04,-1.000000000000000048e-04,-2.000000000000000096e-04,-1.199999999999999895e-04,-1.300000000000000157e-04,-3.399999999999999702e-04,-4.400000000000000157e-04,-2.999999999999999737e-05,-2.000000000000000096e-04,3.000000000000000000e+00,1.700000000000000000e+01
4.471900000000000000e+04,-1.000000000000000048e-04,-2.000000000000000096e-04,-1.199999999999999895e-04,-1.300000000000000157e-04,-3.399999999999999702e-04,-4.400000000000000157e-04,-2.999999999999999737e-05,-2.000000000000000096e-04,3.000000000000000000e+00,1.700000000000000000e+01
4.472000000000000000e+04,-1.000000000000000048e-04,-2.000000000000000096e-04,-1.199999999999999895e-04,-1.300000000000000157e-04,-3.399999999999999702e-04,-4.400000000000000157e-04,-2.999999999999999737e-05,-2.000000000000000096e-04,3.000000000000000000e+00,1.700000000000000000e+01
4.472100000000000000e+04,-1.000000000000000048e-04,-2.000000000000000096e-04,-1.199999999999999895e-04,-1.300000000000000157e-04,-3.399999999999999702e-04,-4.400000000000000157e-04,-2.999999999999999737e-05,-2.000000000000000096e-04,3.000000000000000000e+00,1.700000000000000000e+01
4.472200000000000000e+04,-1.000000000000000048e-04,-2.000000000000000096e-04,-1.199999999999999895e-04,-1.300000000000000157e-04,-3.399999999999999702e-04,-4.400000000000000157e-04,-2.999999999999999737e-05,-2.000000000000000096e-04,3.000000000000000000e+00,1.700000000000000000e+01
4.472300000000000000e+04,-1.000000000000000048e-04,-2.000000000000000096e-04,-1.199999999999999895e-04,-1.300000000000000157e-04,-3.399999999999999702e-04,-4.400000000000000157e-04,-2.999999999999999737e-05,-2.000000000000000096e-04,3.000000000000000000e+00,1.700000000000000000e+01
4.472400000000000000e+04,-1.000000000000000048e-04,-2.000000000000000096e-04,-1.199999999999999895e-04,-1.300000000000000157e-04,-3.399999999999999702e-04,-4.400000000000000157e-04,-2.999999999999999737e-05,-2.000000000000000096e-04,3.000000000000000000e+00,1.700000000000000000e+01
4.472500000000000000e+04,1.100000000000000039e-04,1.800000000000000113e-04,-1.000000000000000082e-05,-4.000000000000000327e-05,-1.499999999999999869e-04,-2.100000000000000087e-04,-6.999999999999999387e-05,-5.000000000000000240e-05,3.000000000000000000e+00,1.700000000000000000e+01
4.472600000000000000e+04,1.100000000000000039e-04,1.800000000000000113e-04,-1.000000000000000082e-05,-4.000000000000000327e-05,-1.499999999999999869e-04,-2.100000000000000087e-04,-6.999999999999999387e-05,-5.000000000000000240e-05,3.000000000000000000e+00,1.700000000000000000e+01
4.472700000000000000e+04,1.100000000000000039e-04,1.800000000000000113e-04,-1.000000000000000082e-05,-4.000000000000000327e-05,-1.499999999999999869e-04,-2.100000000000000087e-04,-6.999999999999999387e-05,-5.000000000000000240e-05,3.000000000000000000e+00,1.700000000000000000e+01
4.472800000000000000e+04,1.100000000000000039e-04,1.800000000000000113e-04,-1.000000000000000082e-05,-4.000000000000000327e-05,-1.499999999999999869e-04,-2.100000000000000087e-04,-6.999999999999999387e-05,-5.000000000000000240e-05,3.000000000000000000e+00,1.700000000000000000e+01
4.472900000000000000e+04,1.100000000000000039e-04,1.800000000000000113e-04,-1.000000000000000082e-05,-4.000000000000000327e-05,-1.499999999999999869e-04,-2.100000000000000087e-04,-6.999999999999999387e-05,-5.000000000000000240e-05,3.000000000000000000e+00,1.700000000000000000e+01
4.473000000000000000e+04,1.100000000000000039e-04,1.800000000000000113e-04,-1.000000000000000082e-05,-4.000000000000000327e-05,-1.499999999999999869e-04,-2.100000000000000087e-04,-6.999999999999999387e-05,-5.000000000000000240e-05,3.000000000000000000e+00,1.700000000000000000e+01
4.473100000000000000e+04,-9.000000000000000567e-05,-6.999999999999999387e-05,-6.999999999999999387e-05,-5.000000000000000240e-05,-4.000000000000000327e-05,8.000000000000000654e-05,-5.000000000000000240e-05,-2.399999999999999790e-04,3.000000000000000000e+00,1.700000000000000000e+01
4.473200000000000000e+04,-9.000000000000000567e-05,-6.999999999999999387e-05,-6.999999999999999387e-05,-5.000000000000000240e-05,-4.000000000000000327e-05,8.000000000000000654e-05,-5.000000000000000240e-05,-2.399999999999999790e-04,3.000000000000000000e+00,1.700000000000000000e+01
4.473300000000000000e+04,-9.000000000000000567e-05,-6.999999999999999387e-05,-6.999999999999999387e-05,-5.000000000000000240e-05,-4.000000000000000327e-05,8.000000000000000654e-05,-5.000000000000000240e-05,-2.399999999999999790e-04,3.000000000000000000e+00,1.700000000000000000e+01
4.473400000000000000e+04,-9.000000000000000567e-05,-6.999999999999999387e-05,-6.999999999999999387e-05,-5.000000000000000240e-05,-4.000000000000000327e-05,8.000000000000000654e-05,-5.000000000000000240e-05,-2.399999999999999790e-04,3.000000000000000000e+00,1.700000000000000000e+01
4.473500000000000000e+04,-9.000000000000000567e-05,-6.999999999999999387e-05,-6.999999999999999387e-05,-5.000000000000000240e-05,-4.000000000000000327e-05,8.000000000000000654e-05,-5.000000000000000240e-05,-2.399999999999999790e-04,3.000000000000000000e+00,1.700000000000000000e+01
4.473600000000000000e+04,-9.000000000000000567e-05,-6.999999999999999387e-05,-6.999999999999999387e-05,-5.000000000000000240e-05,-4.000000000000000327e-05,8.000000000000000654e-05,-5.000000000000000240e-05,-2.399999999999999790e-04,3.000000000000000000e+00,1.700000000000000000e+01
4.473800000000000000e+04,-9.000000000000000567e-05,-6.999999999999999387e-05,-6.999999999999999387e-05,-5.000000000000000240e-05,-4.000000000000000327e-05,8.000000000000000654e-05,-5.000000000000000240e-05,-2.399999999999999790e-04,3.000000000000000000e+00,1.700000000000000000e+01
4.473900000000000000e+04,-9.000000000000000567e-05,-6.999999999999999387e-05,-6.999999999999999387e-05,-5.000000000000000240e-05,-4.000000000000000327e-05,8.000000000000000654e-05,-5.000000000000000240e-05,-2.399999999999999790e-04,3.000000000000000000e+00,1.700000000000000000e+01
4.474000000000000000e+04,-9.000000000000000567e-05,-6.999999999999999387e-05,-6.999999999999999387e-05,-5.000000000000000240e-05,-4.000000000000000327e-05,8.000000000000000654e-05,-5.000000000000000240e-05,-2.399999999999999790e-04,3.000000000000000000e+00,1.700000000000000000e+01
4.474100000000000000e+04,-9.000000000000000567e-05,-6.999999999999999387e-05,-6.999999999999999387e-05,-5.000000000000000240e-05,-4.000000000000000327e-05,8.000000000000000654e-05,-5.000000000000000240e-05,-2.399999999999999790e-04,3.000000000000000000e+00,1.700000000000000000e+01
4.474200000000000000e+04,-9.000000000000000567e-05,-6.999999999999999387e-05,-6.999999999999999387e-05,-5.000000000000000240e-05,-4.000000000000000327e-05,8.000000000000000654e-05,-5.000000000000000240e-05,-2.399999999999999790e-04,3.000000000000000000e+00,1.700000000000000000e+01
4.474300000000000000e+04,-9.000000000000000567e-05,-6.999999999999999387e-05,-6.999999999999999387e-05,-5.000000000000000240e-05,-4.000000000000000327e-05,8.000000000000000654e-05,-5.000000000000000240e-05,-2.399999999999999790e-04,3.000000000000000000e+00,1.700000000000000000e+01
4.474400000000000000e+04,-9.000000000000000567e-05,-6.999999999999999387e-05,-6.999999999999999387e-05,-5.000000000000000240e-05,-4.000000000000000327e-05,8.000000000000000654e-05,-5.000000000000000240e-05,-2.399999999999999790e-04,3.000000000000000000e+00,1.700000000000000000e+01
4.474500000000000000e+04,-9.000000000000000567e-05,-6.999999999999999387e-05,-6.999999999999999387e-05,-5.000000000000000240e-05,-4.000000000000000327e-05,8.000000000000000654e-05,-5.000000000000000240e-05,-2.399999999999999790e-04,3.000000000000000000e+00,1.700000000000000000e+01
4.474600000000000000e+04,-9.000000000000000567e-05,-6.999999999999999387e-05,-6.999999999999999387e-05,-5.000000000000000240e-05,-4.000000000000000327e-05,8.000000000000000654e-05,-5.000000000000000240e-05,-2.399999999999999790e-04,3.000000000000000000e+00,1.700000000000000000e+01
4.474700000000000000e+04,-9.000000000000000567e-05,-6.999999999999999387e-05,-6.999999999999999387e-05,-5.000000000000000240e-05,-4.000000000000000327e-05,8.000000000000000654e-05,-5.000000000000000240e-05,-2.399999999999999790e-04,3.000000000000000000e+00,1.700000000000000000e+01
4.474800000000000000e+04,-9.000000000000000567e-05,-6.999999999999999387e-05,-6.999999999999999387e-05,-5.000000000000000240e-05,-4.000000000000000327e-05,8.000000000000000654e-05,-5.000000000000000240e-05,-2.399999999999999790e-04,3.000000000000000000e+00,1.700000000000000000e+01
4.474900000000000000e+04,-9.000000000000000567e-05,-6.999999999999999387e-05,-6.999999999999999387e-05,-5.000000000000000240e-05,-4.000000000000000327e-05,8.000000000000000654e-05,-5.000000000000000240e-05,-2.399999999999999790e-04,3.000000000000000000e+00,1.700000000000000000e+01
4.475000000000000000e+04,-9.000000000000000567e-05,-6.999999999999999387e-05,-6.999999999999999387e-05,-5.000000000000000240e-05,-4.000000000000000327e-05,8.000000000000000654e-05,-5.000000000000000240e-05,-2.399999999999999790e-04,3.000000000000000000e+00,1.700000000000000000e+01
4.475100000000000000e+04,-9.000000000000000567e-05,-6.999999999999999387e-05,-6.999999999999999387e-05,-5.000000000000000240e-05,-4.000000000000000327e-05,8.000000000000000654e-05,-5.000000000000000240e-05,-2.399999999999999790e-04,3.000000000000000000e+00,1.700000000000000000e+01
4.475200000000000000e+04,-9.000000000000000567e-05,-6.999999999999999387e-05,-6.999999999999999387e-05,-5.000000000000000240e-05,-4.000000000000000327e-05,8.000000000000000654e-05,-5.000000000000000240e-05,-2.399999999999999790e-04,3.000000000000000000e+00,1.700000000000000000e+01
4.475300000000000000e+04,-9.000000000000000567e-05,-6.999999999999999387e-05,-6.999999999999999387e-05,-5.000000000000000240e-05,-4.000000000000000327e-05,8.000000000000000654e-05,-5.000000000000000240e-05,-2.399999999999999790e-04,3.000000000000000000e+00,1.700000000000000000e+01
4.475400000000000000e+04,-9.000000000000000567e-05,-6.999999999999999387e-05,-6.999999999999999387e-05,-5.000000000000000240e-05,-4.000000000000000327e-05,8.000000000000000654e-05,-5.000000000000000240e-05,-2.399999999999999790e-04,3.000000000000000000e+00,1.700000000000000000e+01
4.475500000000000000e+04,-1.499999999999999869e-04,-3.399999999999999702e-04,-4.000000000000000327e-05,5.000000000000000240e-05,1.199999999999999895e-04,6.999999999999999387e-05,2.000000000000000164e-05,-3.099999999999999999e-04,3.000000000000000000e+00,1.700000000000000000e+01
4.475600000000000000e+04,-1.499999999999999869e-04,-3.399999999999999702e-04,-4.000000000000000327e-05,5.000000000000000240e-05,1.199999999999999895e-04,6.999999999999999387e-05,2.000000000000000164e-05,-3.099999999999999999e-04,3.000000000000000000e+00,1.700000000000000000e+01
4.475700000000000000e+04,1.699999999999999851e-04,2.999999999999999737e-04,-5.000000000000000240e-05,-1.000000000000000048e-04,-2.100000000000000087e-04,-8.000000000000000654e-05,9.000000000000000567e-05,3.399999999999999702e-04,3.000000000000000000e+00,1.700000000000000000e+01
4.475800000000000000e+04,1.699999999999999851e-04,2.999999999999999737e-04,-5.000000000000000240e-05,-1.000000000000000048e-04,-2.100000000000000087e-04,-8.000000000000000654e-05,9.000000000000000567e-05,3.399999999999999702e-04,3.000000000000000000e+00,1.700000000000000000e+01
4.475900000000000000e+04,1.699999999999999851e-04,2.999999999999999737e-04,-5.000000000000000240e-05,-1.000000000000000048e-04,-2.100000000000000087e-04,-8.000000000000000654e-05,9.000000000000000567e-05,3.399999999999999702e-04,3.000000000000000000e+00,1.700000000000000000e+01
4.476000000000000000e+04,1.699999999999999851e-04,2.999999999999999737e-04,-5.000000000000000240e-05,-1.000000000000000048e-04,-2.100000000000000087e-04,-8.000000000000000654e-05,9.000000000000000567e-05,3.399999999999999702e-04,3.000000000000000000e+00,1.700000000000000000e+01
4.476100000000000000e+04,1.699999999999999851e-04,2.999999999999999737e-04,-5.000000000000000240e-05,-1.000000000000000048e-04,-2.100000000000000087e-04,-8.000000000000000654e-05,9.000000000000000567e-05,3.399999999999999702e-04,3.000000000000000000e+00,1.700000000000000000e+01
4.476200000000000000e+04,1.699999999999999851e-04,2.999999999999999737e-04,-5.000000000000000240e-05,-1.000000000000000048e-04,-2.100000000000000087e-04,-8.000000000000000654e-05,9.000000000000000567e-05,3.399999999999999702e-04,3.000000000000000000e+00,1.700000000000000000e+01
4.476300000000000000e+04,1.699999999999999851e-04,2.999999999999999737e-04,-5.000000000000000240e-05,-1.000000000000000048e-04,-2.100000000000000087e-04,-8.000000000000000654e-05,9.000000000000000567e-05,3.399999999999999702e-04,3.000000000000000000e+00,1.700000000000000000e+01
4.476400000000000000e+04,1.699999999999999851e-04,2.999999999999999737e-04,-5.000000000000000240e-05,-1.000000000000000048e-04,-2.100000000000000087e-04,-8.000000000000000654e-05,9.000000000000000567e-05,3.399999999999999702e-04,3.000000000000000000e+00,1.700000000000000000e+01
4.476600000000000000e+04,1.699999999999999851e-04,2.999999999999999737e-04,-5.000000000000000240e-05,-1.000000000000000048e-04,-2.100000000000000087e-04,-8.000000000000000654e-05,9.000000000000000567e-05,3.399999999999999702e-04,3.000000000000000000e+00,1.700000000000000000e+01
4.476700000000000000e+04,1.699999999999999851e-04,2.999999999999999737e-04,-5.000000000000000240e-05,-1.000000000000000048e-04,-2.100000000000000087e-04,-8.000000000000000654e-05,9.000000000000000567e-05,3.399999999999999702e-04,3.000000000000000000e+00,1.700000000000000000e+01
4.476800000000000000e+04,1.699999999999999851e-04,2.999999999999999737e-04,-5.000000000000000240e-05,-1.000000000000000048e-04,-2.100000000000000087e-04,-8.000000000000000654e-05,9.000000000000000567e-05,3.399999999999999702e-04,3.000000000000000000e+00,1.700000000000000000e+01
4.476900000000000000e+04,1.699999999999999851e-04,2.999999999999999737e-04,-5.000000000000000240e-05,-1.000000000000000048e-04,-2.100000000000000087e-04,-8.000000000000000654e-05,9.000000000000000567e-05,3.399999999999999702e-04,3.000000000000000000e+00,1.700000000000000000e+01
4.477000000000000000e+04,1.699999999999999851e-04,2.999999999999999737e-04,-5.000000000000000240e-05,-1.000000000000000048e-04,-2.100000000000000087e-04,-8.000000000000000654e-05,9.000000000000000567e-05,3.399999999999999702e-04,3.000000000000000000e+00,1.700000000000000000e+01
4.477100000000000000e+04,1.699999999999999851e-04,2.999999999999999737e-04,-5.000000000000000240e-05,-1.000000000000000048e-04,-2.100000000000000087e-04,-8.000000000000000654e-05,9.000000000000000567e-05,3.399999999999999702e-04,3.000000000000000000e+00,1.700000000000000000e+01
4.477200000000000000e+04,1.699999999999999851e-04,2.999999999999999737e-04,-5.000000000000000240e-05,-1.000000000000000048e-04,-2.100000000000000087e-04,-8.000000000000000654e-05,9.000000000000000567e-05,3.399999999999999702e-04,3.000000000000000000e+00,1.700000000000000000e+01
4.477300000000000000e+04,1.699999999999999851e-04,2.999999999999999737e-04,-5.000000000000000240e-05,-1.000000000000000048e-04,-2.100000000000000087e-04,-8.000000000000000654e-05,9.000000000000000567e-05,3.399999999999999702e-04,3.000000000000000000e+00,1.700000000000000000e+01
4.477400000000000000e+04,1.699999999999999851e-04,2.999999999999999737e-04,-5.000000000000000240e-05,-1.000000000000000048e-04,-2.100000000000000087e-04,-8.000000000000000654e-05,9.000000000000000567e-05,3.399999999999999702e-04,3.000000000000000000e+00,1.700000000000000000e+01
4.477500000000000000e+04,1.699999999999999851e-04,2.999999999999999737e-04,-5.000000000000000240e-05,-1.000000000000000048e-04,-2.100000000000000087e-04,-8.000000000000000654e-05,9.000000000000000567e-05,3.399999999999999702e-04,3.000000000000000000e+00,1.700000000000000000e+01
4.477600000000000000e+04,1.699999999999999851e-04,2.999999999999999737e-04,-5.000000000000000240e-05,-1.000000000000000048e-04,-2.100000000000000087e-04,-8.000000000000000654e-05,9.000000000000000567e-05,3.399999999999999702e-04,3.000000000000000000e+00,1.700000000000000000e+01
4.477700000000000000e+04,1.699999999999999851e-04,2.999999999999999737e-04,-5.000000000000000240e-05,-1.000000000000000048e-04,-2.100000000000000087e-04,-8.000000000000000654e-05,9.000000000000000567e-05,3.399999999999999702e-04,3.000000000000000000e+00,1.700000000000000000e+01
4.477800000000000000e+04,1.000000000000000048e-04,8.000000000000000654e-05,2.000000000000000164e-05,1.300000000000000157e-04,2.799999999999999755e-04,1.000000000000000048e-04,6.999999999999999387e-05,2.900000000000000017e-04,3.000000000000000000e+00,1.700000000000000000e+01
4.477900000000000000e+04,2.500000000000000052e-04,-1.000000000000000082e-05,-1.100000000000000039e-04,2.999999999999999737e-05,1.399999999999999877e-04,0.000000000000000000e+00,-1.000000000000000082e-05,-1.600000000000000131e-04,3.000000000000000000e+00,1.700000000000000000e+01
4.478000000000000000e+04,2.500000000000000052e-04,-1.000000000000000082e-05,-1.100000000000000039e-04,2.999999999999999737e-05,1.399999999999999877e-04,0.000000000000000000e+00,-1.000000000000000082e-05,-1.600000000000000131e-04,3.000000000000000000e+00,1.700000000000000000e+01
4.478100000000000000e+04,2.500000000000000052e-04,-1.000000000000000082e-05,-1.100000000000000039e-04,2.999999999999999737e-05,1.399999999999999877e-04,0.000000000000000000e+00,-1.000000000000000082e-05,-1.600000000000000131e-04,3.000000000000000000e+00,1.700000000000000000e+01
4.478200000000000000e+04,2.500000000000000052e-04,-1.000000000000000082e-05,-1.100000000000000039e-04,2.999999999999999737e-05,1.399999999999999877e-04,0.000000000000000000e+00,-1.000000000000000082e-05,-1.600000000000000131e-04,3.000000000000000000e+00,1.700000000000000000e+01
4.478300000000000000e+04,2.500000000000000052e-04,-1.000000000000000082e-05,-1.100000000000000039e-04,2.999999999999999737e-05,1.399999999999999877e-04,0.000000000000000000e+00,-1.000000000000000082e-05,-1.600000000000000131e-04,3.000000000000000000e+00,1.700000000000000000e+01
4.478400000000000000e+04,2.500000000000000052e-04,-1.000000000000000082e-05,-1.100000000000000039e-04,2.999999999999999737e-05,1.399999999999999877e-04,0.000000000000000000e+00,-1.000000000000000082e-05,-1.600000000000000131e-04,3.000000000000000000e+00,1.700000000000000000e+01
4.478500000000000000e+04,2.399999999999999790e-04,5.999999999999999474e-05,2.100000000000000087e-04,4.000000000000000327e-05,2.999999999999999737e-05,1.100000000000000039e-04,2.999999999999999737e-05,9.000000000000000567e-05,3.000000000000000000e+00,1.700000000000000000e+01
4.478700000000000000e+04,2.399999999999999790e-04,5.999999999999999474e-05,2.100000000000000087e-04,4.000000000000000327e-05,2.999999999999999737e-05,1.100000000000000039e-04,2.999999999999999737e-05,9.000000000000000567e-05,3.000000000000000000e+00,1.700000000000000000e+01
4.478900000000000000e+04,2.399999999999999790e-04,5.999999999999999474e-05,2.100000000000000087e-04,4.000000000000000327e-05,2.999999999999999737e-05,1.100000000000000039e-04,2.999999999999999737e-05,9.000000000000000567e-05,3.000000000000000000e+00,1.700000000000000000e+01
4.479000000000000000e+04,2.399999999999999790e-04,5.999999999999999474e-05,2.100000000000000087e-04,4.000000000000000327e-05,2.999999999999999737e-05,1.100000000000000039e-04,2.999999999999999737e-05,9.000000000000000567e-05,3.000000000000000000e+00,1.700000000000000000e+01
4.479100000000000000e+04,-2.399999999999999790e-04,-2.200000000000000078e-04,-6.999999999999999387e-05,-5.999999999999999474e-05,-5.999999999999999474e-05,-1.600000000000000131e-04,-5.000000000000000240e-05,-1.899999999999999834e-04,3.000000000000000000e+00,1.700000000000000000e+01
4.479200000000000000e+04,-2.399999999999999790e-04,-2.200000000000000078e-04,-6.999999999999999387e-05,-5.999999999999999474e-05,-5.999999999999999474e-05,-1.600000000000000131e-04,-5.000000000000000240e-05,-1.899999999999999834e-04,3.000000000000000000e+00,1.700000000000000000e+01
4.479300000000000000e+04,-2.399999999999999790e-04,-2.200000000000000078e-04,-6.999999999999999387e-05,-5.999999999999999474e-05,-5.999999999999999474e-05,-1.600000000000000131e-04,-5.000000000000000240e-05,-1.899999999999999834e-04,3.000000000000000000e+00,1.700000000000000000e+01
4.479400000000000000e+04,-2.399999999999999790e-04,-2.200000000000000078e-04,-6.999999999999999387e-05,-5.999999999999999474e-05,-5.999999999999999474e-05,-1.600000000000000131e-04,-5.000000000000000240e-05,-1.899999999999999834e-04,3.000000000000000000e+00,1.700000000000000000e+01
4.479500000000000000e+04,-2.399999999999999790e-04,-2.200000000000000078e-04,-6.999999999999999387e-05,-5.999999999999999474e-05,-5.999999999999999474e-05,-1.600000000000000131e-04,-5.000000000000000240e-05,-1.899999999999999834e-04,3.000000000000000000e+00,1.700000000000000000e+01
4.479600000000000000e+04,-2.399999999999999790e-04,-2.200000000000000078e-04,-6.999999999999999387e-05,-5.999999999999999474e-05,-5.999999999999999474e-05,-1.600000000000000131e-04,-5.000000000000000240e-05,-1.899999999999999834e-04,3.000000000000000000e+00,1.700000000000000000e+01
4.479700000000000000e+04,-2.399999999999999790e-04,-2.200000000000000078e-04,-6.999999999999999387e-05,-5.999999999999999474e-05,-5.999999999999999474e-05,-1.600000000000000131e-04,-5.000000000000000240e-05,-1.899999999999999834e-04,3.000000000000000000e+00,1.700000000000000000e+01
4.479800000000000000e+04,-2.399999999999999790e-04,-2.200000000000000078e-04,-6.999999999999999387e-05,-5.999999999999999474e-05,-5.999999999999999474e-05,-1.600000000000000131e-04,-5.000000000000000240e-05,-1.899999999999999834e-04,3.000000000000000000e+00,1.700000000000000000e+01
4.479900000000000000e+04,-2.399999999999999790e-04,-2.200000000000000078e-04,-6.999999999999999387e-05,-5.999999999999999474e-05,-5.999999999999999474e-05,-1.600000000000000131e-04,-5.000000000000000240e-05,-1.899999999999999834e-04,3.000000000000000000e+00,1.700000000000000000e+01
4.480000000000000000e+04,-2.399999999999999790e-04,-2.200000000000000078e-04,-6.999999999999999387e-05,-5.999999999999999474e-05,-5.999999999999999474e-05,-1.600000000000000131e-04,-5.000000000000000240e-05,-1.899999999999999834e-04,3.000000000000000000e+00,1.700000000000000000e+01
4.480100000000000000e+04,-2.399999999999999790e-04,-2.200000000000000078e-04,-6.999999999999999387e-05,-5.999999999999999474e-05,-5.999999999999999474e-05,-1.600000000000000131e-04,-5.000000000000000240e-05,-1.899999999999999834e-04,3.000000000000000000e+00,1.700000000000000000e+01
4.480200000000000000e+04,-2.399999999999999790e-04,-2.200000000000000078e-04,-6.999999999999999387e-05,-5.999999999999999474e-05,-5.999999999999999474e-05,-1.600000000000000131e-04,-5.000000000000000240e-05,-1.899999999999999834e-04,3.000000000000000000e+00,1.700000000000000000e+01
4.480300000000000000e+04,-2.399999999999999790e-04,-2.200000000000000078e-04,-6.999999999999999387e-05,-5.999999999999999474e-05,-5.999999999999999474e-05,-1.600000000000000131e-04,-5.000000000000000240e-05,-1.899999999999999834e-04,3.000000000000000000e+00,1.700000000000000000e+01
4.480400000000000000e+04,-2.399999999999999790e-04,-2.200000000000000078e-04,-6.999999999999999387e-05,-5.999999999999999474e-05,-5.999999999999999474e-05,-1.600000000000000131e-04,-5.000000000000000240e-05,-1.899999999999999834e-04,3.000000000000000000e+00,1.700000000000000000e+01
4.480500000000000000e+04,-2.399999999999999790e-04,-2.200000000000000078e-04,-6.999999999999999387e-05,-5.999999999999999474e-05,-5.999999999999999474e-05,-1.600000000000000131e-04,-5.000000000000000240e-05,-1.899999999999999834e-04,3.000000000000000000e+00,1.700000000000000000e+01
4.480600000000000000e+04,-2.399999999999999790e-04,-2.200000000000000078e-04,-6.999999999999999387e-05,-5.999999999999999474e-05,-5.999999999999999474e-05,-1.600000000000000131e-04,-5.000000000000000240e-05,-1.899999999999999834e-04,3.000000000000000000e+00,1.700000000000000000e+01
4.480700000000000000e+04,-2.399999999999999790e-04,-2.200000000000000078e-04,-6.999999999999999387e-05,-5.999999999999999474e-05,-5.999999999999999474e-05,-1.600000000000000131e-04,-5.000000000000000240e-05,-1.899999999999999834e-04,3.000000000000000000e+00,1.700000000000000000e+01
4.480800000000000000e+04,-1.100000000000000039e-04,-4.400000000000000157e-04,-2.299999999999999799e-04,-5.000000000000000240e-05,4.000000000000000327e-05,-1.100000000000000039e-04,-8.000000000000000654e-05,-1.000000000000000082e-05,3.000000000000000000e+00,1.700000000000000000e+01
4.480900000000000000e+04,-5.000000000000000240e-05,1.000000000000000082e-05,5.999999999999999474e-05,5.999999999999999474e-05,8.000000000000000654e-05,1.000000000000000082e-05,-4.000000000000000327e-05,1.000000000000000082e-05,3.000000000000000000e+00,1.700000000000000000e+01
4.481000000000000000e+04,-5.000000000000000240e-05,1.000000000000000082e-05,5.999999999999999474e-05,5.999999999999999474e-05,8.000000000000000654e-05,1.000000000000000082e-05,-4.000000000000000327e-05,1.000000000000000082e-05,3.000000000000000000e+00,1.700000000000000000e+01
4.481100000000000000e+04,-5.000000000000000240e-05,1.000000000000000082e-05,5.999999999999999474e-05,5.999999999999999474e-05,8.000000000000000654e-05,1.000000000000000082e-05,-4.000000000000000327e-05,1.000000000000000082e-05,3.000000000000000000e+00,1.700000000000000000e+01
4.481200000000000000e+04,-5.000000000000000240e-05,1.000000000000000082e-05,5.999999999999999474e-05,5.999999999999999474e-05,8.000000000000000654e-05,1.000000000000000082e-05,-4.000000000000000327e-05,1.000000000000000082e-05,3.000000000000000000e+00,1.700000000000000000e+01
4.481300000000000000e+04,-5.000000000000000240e-05,1.000000000000000082e-05,5.999999999999999474e-05,5.999999999999999474e-05,8.000000000000000654e-05,1.000000000000000082e-05,-4.000000000000000327e-05,1.000000000000000082e-05,3.000000000000000000e+00,1.700000000000000000e+01
4.481400000000000000e+04,-5.000000000000000240e-05,1.000000000000000082e-05,5.999999999999999474e-05,5.999999999999999474e-05,8.000000000000000654e-05,1.000000000000000082e-05,-4.000000000000000327e-05,1.000000000000000082e-05,3.000000000000000000e+00,1.700000000000000000e+01
4.481500000000000000e+04,-5.000000000000000240e-05,1.000000000000000082e-05,5.999999999999999474e-05,5.999999999999999474e-05,8.000000000000000654e-05,1.000000000000000082e-05,-4.000000000000000327e-05,1.000000000000000082e-05,3.000000000000000000e+00,1.700000000000000000e+01
4.481600000000000000e+04,-5.000000000000000240e-05,1.000000000000000082e-05,5.999999999999999474e-05,5.999999999999999474e-05,8.000000000000000654e-05,1.000000000000000082e-05,-4.000000000000000327e-05,1.000000000000000082e-05,3.000000000000000000e+00,1.700000000000000000e+01
4.481700000000000000e+04,-5.000000000000000240e-05,1.000000000000000082e-05,5.999999999999999474e-05,5.999999999999999474e-05,8.000000000000000654e-05,1.000000000000000082e-05,-4.000000000000000327e-05,1.000000000000000082e-05,3.000000000000000000e+00,1.700000000000000000e+01
4.481800000000000000e+04,-5.000000000000000240e-05,1.000000000000000082e-05,5.999999999999999474e-05,5.999999999999999474e-05,8.000000000000000654e-05,1.000000000000000082e-05,-4.000000000000000327e-05,1.000000000000000082e-05,3.000000000000000000e+00,1.700000000000000000e+01
4.481900000000000000e+04,-5.000000000000000240e-05,1.000000000000000082e-05,5.999999999999999474e-05,5.999999999999999474e-05,8.000000000000000654e-05,1.000000000000000082e-05,-4.000000000000000327e-05,1.000000000000000082e-05,3.000000000000000000e+00,1.700000000000000000e+01
4.482000000000000000e+04,-5.000000000000000240e-05,1.000000000000000082e-05,5.999999999999999474e-05,5.999999999999999474e-05,8.000000000000000654e-05,1.000000000000000082e-05,-4.000000000000000327e-05,1.000000000000000082e-05,3.000000000000000000e+00,1.700000000000000000e+01
4.482100000000000000e+04,-5.000000000000000240e-05,1.000000000000000082e-05,5.999999999999999474e-05,5.999999999999999474e-05,8.000000000000000654e-05,1.000000000000000082e-05,-4.000000000000000327e-05,1.000000000000000082e-05,3.000000000000000000e+00,1.700000000000000000e+01
4.482200000000000000e+04,-5.000000000000000240e-05,1.000000000000000082e-05,5.999999999999999474e-05,5.999999999999999474e-05,8.000000000000000654e-05,1.000000000000000082e-05,-4.000000000000000327e-05,1.000000000000000082e-05,3.000000000000000000e+00,1.700000000000000000e+01
4.482300000000000000e+04,-5.000000000000000240e-05,1.000000000000000082e-05,5.999999999999999474e-05,5.999999999999999474e-05,8.000000000000000654e-05,1.000000000000000082e-05,-4.000000000000000327e-05,1.000000000000000082e-05,3.000000000000000000e+00,1.700000000000000000e+01
4.482400000000000000e+04,-5.000000000000000240e-05,1.000000000000000082e-05,5.999999999999999474e-05,5.999999999999999474e-05,8.000000000000000654e-05,1.000000000000000082e-05,-4.000000000000000327e-05,1.000000000000000082e-05,3.000000000000000000e+00,1.700000000000000000e+01
4.482500000000000000e+04,-5.000000000000000240e-05,1.000000000000000082e-05,5.999999999999999474e-05,5.999999999999999474e-05,8.000000000000000654e-05,1.000000000000000082e-05,-4.000000000000000327e-05,1.000000000000000082e-05,3.000000000000000000e+00,1.700000000000000000e+01
4.482600000000000000e+04,-5.000000000000000240e-05,1.000000000000000082e-05,5.999999999999999474e-05,5.999999999999999474e-05,8.000000000000000654e-05,1.000000000000000082e-05,-4.000000000000000327e-05,1.000000000000000082e-05,3.000000000000000000e+00,1.700000000000000000e+01
4.482700000000000000e+04,-5.000000000000000240e-05,1.000000000000000082e-05,5.999999999999999474e-05,5.999999999999999474e-05,8.000000000000000654e-05,1.000000000000000082e-05,-4.000000000000000327e-05,1.000000000000000082e-05,3.000000000000000000e+00,1.700000000000000000e+01
4.482800000000000000e+04,-5.000000000000000240e-05,1.000000000000000082e-05,5.999999999999999474e-05,5.999999999999999474e-05,8.000000000000000654e-05,1.000000000000000082e-05,-4.000000000000000327e-05,1.000000000000000082e-05,3.000000000000000000e+00,1.700000000000000000e+01
4.482900000000000000e+04,-5.000000000000000240e-05,1.000000000000000082e-05,5.999999999999999474e-05,5.999999999999999474e-05,8.000000000000000654e-05,1.000000000000000082e-05,-4.000000000000000327e-05,1.000000000000000082e-05,3.000000000000000000e+00,1.700000000000000000e+01
4.483000000000000000e+04,-5.000000000000000240e-05,1.000000000000000082e-05,5.999999999999999474e-05,5.999999999999999474e-05,8.000000000000000654e-05,1.000000000000000082e-05,-4.000000000000000327e-05,1.000000000000000082e-05,3.000000000000000000e+00,1.700000000000000000e+01
4.483100000000000000e+04,-1.399999999999999877e-04,-4.000000000000000327e-05,-5.000000000000000240e-05,-1.000000000000000048e-04,-2.399999999999999790e-04,-1.699999999999999851e-04,-5.000000000000000240e-05,-1.000000000000000082e-05,3.000000000000000000e+00,1.700000000000000000e+01
4.483200000000000000e+04,-5.400000000000000069e-04,-4.899999999999999842e-04,-2.000000000000000096e-04,-1.100000000000000039e-04,-6.999999999999999387e-05,1.000000000000000082e-05,2.000000000000000164e-05,2.000000000000000164e-05,3.000000000000000000e+00,1.700000000000000000e+01
4.483400000000000000e+04,-5.400000000000000069e-04,-4.899999999999999842e-04,-2.000000000000000096e-04,-1.100000000000000039e-04,-6.999999999999999387e-05,1.000000000000000082e-05,2.000000000000000164e-05,2.000000000000000164e-05,3.000000000000000000e+00,1.700000000000000000e+01
4.483500000000000000e+04,-5.400000000000000069e-04,-4.899999999999999842e-04,-2.000000000000000096e-04,-1.100000000000000039e-04,-6.999999999999999387e-05,1.000000000000000082e-05,2.000000000000000164e-05,2.000000000000000164e-05,3.000000000000000000e+00,1.700000000000000000e+01
4.483600000000000000e+04,-5.400000000000000069e-04,-4.899999999999999842e-04,-2.000000000000000096e-04,-1.100000000000000039e-04,-6.999999999999999387e-05,1.000000000000000082e-05,2.000000000000000164e-05,2.000000000000000164e-05,3.000000000000000000e+00,1.700000000000000000e+01
4.483800000000000000e+04,-5.400000000000000069e-04,-4.899999999999999842e-04,-2.000000000000000096e-04,-1.100000000000000039e-04,-6.999999999999999387e-05,1.000000000000000082e-05,2.000000000000000164e-05,2.000000000000000164e-05,3.000000000000000000e+00,1.700000000000000000e+01
4.483900000000000000e+04,-5.400000000000000069e-04,-4.899999999999999842e-04,-2.000000000000000096e-04,-1.100000000000000039e-04,-6.999999999999999387e-05,1.000000000000000082e-05,2.000000000000000164e-05,2.000000000000000164e-05,3.000000000000000000e+00,1.700000000000000000e+01
4.484000000000000000e+04,-5.400000000000000069e-04,-4.899999999999999842e-04,-2.000000000000000096e-04,-1.100000000000000039e-04,-6.999999999999999387e-05,1.000000000000000082e-05,2.000000000000000164e-05,2.000000000000000164e-05,3.000000000000000000e+00,1.700000000000000000e+01
4.484100000000000000e+04,-5.400000000000000069e-04,-4.899999999999999842e-04,-2.000000000000000096e-04,-1.100000000000000039e-04,-6.999999999999999387e-05,1.000000000000000082e-05,2.000000000000000164e-05,2.000000000000000164e-05,3.000000000000000000e+00,1.700000000000000000e+01
4.484200000000000000e+04,-5.400000000000000069e-04,-4.899999999999999842e-04,-2.000000000000000096e-04,-1.100000000000000039e-04,-6.999999999999999387e-05,1.000000000000000082e-05,2.000000000000000164e-05,2.000000000000000164e-05,3.000000000000000000e+00,1.700000000000000000e+01
4.484300000000000000e+04,-5.400000000000000069e-04,-4.899999999999999842e-04,-2.000000000000000096e-04,-1.100000000000000039e-04,-6.999999999999999387e-05,1.000000000000000082e-05,2.000000000000000164e-05,2.000000000000000164e-05,3.000000000000000000e+00,1.700000000000000000e+01
4.484400000000000000e+04,-5.400000000000000069e-04,-4.899999999999999842e-04,-2.000000000000000096e-04,-1.100000000000000039e-04,-6.999999999999999387e-05,1.000000000000000082e-05,2.000000000000000164e-05,2.000000000000000164e-05,3.000000000000000000e+00,1.700000000000000000e+01
4.484500000000000000e+04,-5.400000000000000069e-04,-4.899999999999999842e-04,-2.000000000000000096e-04,-1.100000000000000039e-04,-6.999999999999999387e-05,1.000000000000000082e-05,2.000000000000000164e-05,2.000000000000000164e-05,3.000000000000000000e+00,1.700000000000000000e+01
4.484600000000000000e+04,-5.400000000000000069e-04,-4.899999999999999842e-04,-2.000000000000000096e-04,-1.100000000000000039e-04,-6.999999999999999387e-05,1.000000000000000082e-05,2.000000000000000164e-05,2.000000000000000164e-05,3.000000000000000000e+00,1.700000000000000000e+01
4.484700000000000000e+04,-5.400000000000000069e-04,-4.899999999999999842e-04,-2.000000000000000096e-04,-1.100000000000000039e-04,-6.999999999999999387e-05,1.000000000000000082e-05,2.000000000000000164e-05,2.000000000000000164e-05,3.000000000000000000e+00,1.700000000000000000e+01
