3.935000000000000000e+03,-2.999999999999999737e-05,4.000000000000000327e-05,-8.000000000000000654e-05,8.000000000000000654e-05,1.000000000000000048e-04,2.000000000000000164e-05,2.399999999999999790e-04,5.999999999999999474e-05,2.000000000000000000e+00,3.000000000000000000e+00
3.938000000000000000e+03,-2.999999999999999737e-05,4.000000000000000327e-05,-8.000000000000000654e-05,8.000000000000000654e-05,1.000000000000000048e-04,2.000000000000000164e-05,2.399999999999999790e-04,5.999999999999999474e-05,2.000000000000000000e+00,3.000000000000000000e+00
3.940000000000000000e+03,-9.000000000000000567e-05,-5.000000000000000240e-05,-1.800000000000000113e-04,0.000000000000000000e+00,-1.100000000000000039e-04,-1.699999999999999851e-04,-4.899999999999999842e-04,-1.499999999999999869e-04,2.000000000000000000e+00,3.000000000000000000e+00
3.941000000000000000e+03,-9.000000000000000567e-05,-5.000000000000000240e-05,-1.800000000000000113e-04,0.000000000000000000e+00,-1.100000000000000039e-04,-1.699999999999999851e-04,-4.899999999999999842e-04,-1.499999999999999869e-04,2.000000000000000000e+00,3.000000000000000000e+00
3.942000000000000000e+03,-9.000000000000000567e-05,-5.000000000000000240e-05,-1.800000000000000113e-04,0.000000000000000000e+00,-1.100000000000000039e-04,-1.699999999999999851e-04,-4.899999999999999842e-04,-1.499999999999999869e-04,2.000000000000000000e+00,3.000000000000000000e+00
3.943000000000000000e+03,-9.000000000000000567e-05,-5.000000000000000240e-05,-1.800000000000000113e-04,0.000000000000000000e+00,-1.100000000000000039e-04,-1.699999999999999851e-04,-4.899999999999999842e-04,-1.499999999999999869e-04,2.000000000000000000e+00,3.000000000000000000e+00
3.944000000000000000e+03,-9.000000000000000567e-05,-5.000000000000000240e-05,-1.800000000000000113e-04,0.000000000000000000e+00,-1.100000000000000039e-04,-1.699999999999999851e-04,-4.899999999999999842e-04,-1.499999999999999869e-04,2.000000000000000000e+00,3.000000000000000000e+00
3.945000000000000000e+03,-9.000000000000000567e-05,-5.000000000000000240e-05,-1.800000000000000113e-04,0.000000000000000000e+00,-1.100000000000000039e-04,-1.699999999999999851e-04,-4.899999999999999842e-04,-1.499999999999999869e-04,2.000000000000000000e+00,3.000000000000000000e+00
3.946000000000000000e+03,-9.000000000000000567e-05,-5.000000000000000240e-05,-1.800000000000000113e-04,0.000000000000000000e+00,-1.100000000000000039e-04,-1.699999999999999851e-04,-4.899999999999999842e-04,-1.499999999999999869e-04,2.000000000000000000e+00,3.000000000000000000e+00
3.947000000000000000e+03,-9.000000000000000567e-05,-5.000000000000000240e-05,-1.800000000000000113e-04,0.000000000000000000e+00,-1.100000000000000039e-04,-1.699999999999999851e-04,-4.899999999999999842e-04,-1.499999999999999869e-04,2.000000000000000000e+00,3.000000000000000000e+00
3.948000000000000000e+03,-9.000000000000000567e-05,-5.000000000000000240e-05,-1.800000000000000113e-04,0.000000000000000000e+00,-1.100000000000000039e-04,-1.699999999999999851e-04,-4.899999999999999842e-04,-1.499999999999999869e-04,2.000000000000000000e+00,3.000000000000000000e+00
3.949000000000000000e+03,-9.000000000000000567e-05,-5.000000000000000240e-05,-1.800000000000000113e-04,0.000000000000000000e+00,-1.100000000000000039e-04,-1.699999999999999851e-04,-4.899999999999999842e-04,-1.499999999999999869e-04,2.000000000000000000e+00,3.000000000000000000e+00
3.950000000000000000e+03,-9.000000000000000567e-05,-5.000000000000000240e-05,-1.800000000000000113e-04,0.000000000000000000e+00,-1.100000000000000039e-04,-1.699999999999999851e-04,-4.899999999999999842e-04,-1.499999999999999869e-04,2.000000000000000000e+00,3.000000000000000000e+00
3.951000000000000000e+03,-9.000000000000000567e-05,-5.000000000000000240e-05,-1.800000000000000113e-04,0.000000000000000000e+00,-1.100000000000000039e-04,-1.699999999999999851e-04,-4.899999999999999842e-04,-1.499999999999999869e-04,2.000000000000000000e+00,3.000000000000000000e+00
3.952000000000000000e+03,-9.000000000000000567e-05,-5.000000000000000240e-05,-1.800000000000000113e-04,0.000000000000000000e+00,-1.100000000000000039e-04,-1.699999999999999851e-04,-4.899999999999999842e-04,-1.499999999999999869e-04,2.000000000000000000e+00,3.000000000000000000e+00
3.953000000000000000e+03,-9.000000000000000567e-05,-5.000000000000000240e-05,-1.800000000000000113e-04,0.000000000000000000e+00,-1.100000000000000039e-04,-1.699999999999999851e-04,-4.899999999999999842e-04,-1.499999999999999869e-04,2.000000000000000000e+00,3.000000000000000000e+00
3.954000000000000000e+03,-9.000000000000000567e-05,-5.000000000000000240e-05,-1.800000000000000113e-04,0.000000000000000000e+00,-1.100000000000000039e-04,-1.699999999999999851e-04,-4.899999999999999842e-04,-1.499999999999999869e-04,2.000000000000000000e+00,3.000000000000000000e+00
3.955000000000000000e+03,1.699999999999999851e-04,9.000000000000000567e-05,9.000000000000000567e-05,2.000000000000000096e-04,2.999999999999999737e-05,2.000000000000000096e-04,4.899999999999999842e-04,2.900000000000000017e-04,2.000000000000000000e+00,3.000000000000000000e+00
3.956000000000000000e+03,1.699999999999999851e-04,9.000000000000000567e-05,9.000000000000000567e-05,2.000000000000000096e-04,2.999999999999999737e-05,2.000000000000000096e-04,4.899999999999999842e-04,2.900000000000000017e-04,2.000000000000000000e+00,3.000000000000000000e+00
3.957000000000000000e+03,1.000000000000000082e-05,-6.999999999999999387e-05,-2.399999999999999790e-04,-2.000000000000000164e-05,-1.000000000000000082e-05,2.000000000000000164e-05,-1.000000000000000048e-04,-4.000000000000000327e-05,2.000000000000000000e+00,3.000000000000000000e+00
3.958000000000000000e+03,1.000000000000000082e-05,-6.999999999999999387e-05,-2.399999999999999790e-04,-2.000000000000000164e-05,-1.000000000000000082e-05,2.000000000000000164e-05,-1.000000000000000048e-04,-4.000000000000000327e-05,2.000000000000000000e+00,3.000000000000000000e+00
3.959000000000000000e+03,1.000000000000000082e-05,-6.999999999999999387e-05,-2.399999999999999790e-04,-2.000000000000000164e-05,-1.000000000000000082e-05,2.000000000000000164e-05,-1.000000000000000048e-04,-4.000000000000000327e-05,2.000000000000000000e+00,3.000000000000000000e+00
3.960000000000000000e+03,1.000000000000000082e-05,-6.999999999999999387e-05,-2.399999999999999790e-04,-2.000000000000000164e-05,-1.000000000000000082e-05,2.000000000000000164e-05,-1.000000000000000048e-04,-4.000000000000000327e-05,2.000000000000000000e+00,3.000000000000000000e+00
3.961000000000000000e+03,1.000000000000000082e-05,-6.999999999999999387e-05,-2.399999999999999790e-04,-2.000000000000000164e-05,-1.000000000000000082e-05,2.000000000000000164e-05,-1.000000000000000048e-04,-4.000000000000000327e-05,2.000000000000000000e+00,3.000000000000000000e+00
3.962000000000000000e+03,1.000000000000000082e-05,-6.999999999999999387e-05,-2.399999999999999790e-04,-2.000000000000000164e-05,-1.000000000000000082e-05,2.000000000000000164e-05,-1.000000000000000048e-04,-4.000000000000000327e-05,2.000000000000000000e+00,3.000000000000000000e+00
3.963000000000000000e+03,1.000000000000000082e-05,-6.999999999999999387e-05,-2.399999999999999790e-04,-2.000000000000000164e-05,-1.000000000000000082e-05,2.000000000000000164e-05,-1.000000000000000048e-04,-4.000000000000000327e-05,2.000000000000000000e+00,3.000000000000000000e+00
3.964000000000000000e+03,1.000000000000000082e-05,-6.999999999999999387e-05,-2.399999999999999790e-04,-2.000000000000000164e-05,-1.000000000000000082e-05,2.000000000000000164e-05,-1.000000000000000048e-04,-4.000000000000000327e-05,2.000000000000000000e+00,3.000000000000000000e+00
3.965000000000000000e+03,1.000000000000000082e-05,-6.999999999999999387e-05,-2.399999999999999790e-04,-2.000000000000000164e-05,-1.000000000000000082e-05,2.000000000000000164e-05,-1.000000000000000048e-04,-4.000000000000000327e-05,2.000000000000000000e+00,3.000000000000000000e+00
3.966000000000000000e+03,1.000000000000000082e-05,-6.999999999999999387e-05,-2.399999999999999790e-04,-2.000000000000000164e-05,-1.000000000000000082e-05,2.000000000000000164e-05,-1.000000000000000048e-04,-4.000000000000000327e-05,2.000000000000000000e+00,3.000000000000000000e+00
3.967000000000000000e+03,1.000000000000000082e-05,-6.999999999999999387e-05,-2.399999999999999790e-04,-2.000000000000000164e-05,-1.000000000000000082e-05,2.000000000000000164e-05,-1.000000000000000048e-04,-4.000000000000000327e-05,2.000000000000000000e+00,3.000000000000000000e+00
3.968000000000000000e+03,1.000000000000000082e-05,-6.999999999999999387e-05,-2.399999999999999790e-04,-2.000000000000000164e-05,-1.000000000000000082e-05,2.000000000000000164e-05,-1.000000000000000048e-04,-4.000000000000000327e-05,2.000000000000000000e+00,3.000000000000000000e+00
3.969000000000000000e+03,1.000000000000000082e-05,-6.999999999999999387e-05,-2.399999999999999790e-04,-2.000000000000000164e-05,-1.000000000000000082e-05,2.000000000000000164e-05,-1.000000000000000048e-04,-4.000000000000000327e-05,2.000000000000000000e+00,3.000000000000000000e+00
3.970000000000000000e+03,1.000000000000000082e-05,-6.999999999999999387e-05,-2.399999999999999790e-04,-2.000000000000000164e-05,-1.000000000000000082e-05,2.000000000000000164e-05,-1.000000000000000048e-04,-4.000000000000000327e-05,2.000000000000000000e+00,3.000000000000000000e+00
3.971000000000000000e+03,1.000000000000000082e-05,-6.999999999999999387e-05,-2.399999999999999790e-04,-2.000000000000000164e-05,-1.000000000000000082e-05,2.000000000000000164e-05,-1.000000000000000048e-04,-4.000000000000000327e-05,2.000000000000000000e+00,3.000000000000000000e+00
3.973000000000000000e+03,1.000000000000000082e-05,-6.999999999999999387e-05,-2.399999999999999790e-04,-2.000000000000000164e-05,-1.000000000000000082e-05,2.000000000000000164e-05,-1.000000000000000048e-04,-4.000000000000000327e-05,2.000000000000000000e+00,3.000000000000000000e+00
3.974000000000000000e+03,1.000000000000000082e-05,-6.999999999999999387e-05,-2.399999999999999790e-04,-2.000000000000000164e-05,-1.000000000000000082e-05,2.000000000000000164e-05,-1.000000000000000048e-04,-4.000000000000000327e-05,2.000000000000000000e+00,3.000000000000000000e+00
3.975000000000000000e+03,1.000000000000000082e-05,-6.999999999999999387e-05,-2.399999999999999790e-04,-2.000000000000000164e-05,-1.000000000000000082e-05,2.000000000000000164e-05,-1.000000000000000048e-04,-4.000000000000000327e-05,2.000000000000000000e+00,3.000000000000000000e+00
3.976000000000000000e+03,1.000000000000000082e-05,-6.999999999999999387e-05,-2.399999999999999790e-04,-2.000000000000000164e-05,-1.000000000000000082e-05,2.000000000000000164e-05,-1.000000000000000048e-04,-4.000000000000000327e-05,2.000000000000000000e+00,3.000000000000000000e+00
3.977000000000000000e+03,1.000000000000000082e-05,-6.999999999999999387e-05,-2.399999999999999790e-04,-2.000000000000000164e-05,-1.000000000000000082e-05,2.000000000000000164e-05,-1.000000000000000048e-04,-4.000000000000000327e-05,2.000000000000000000e+00,3.000000000000000000e+00
3.978000000000000000e+03,-8.000000000000000654e-05,-2.999999999999999737e-05,1.600000000000000131e-04,1.300000000000000157e-04,-2.999999999999999737e-05,-9.000000000000000567e-05,-1.899999999999999834e-04,-8.000000000000000654e-05,2.000000000000000000e+00,3.000000000000000000e+00
3.979000000000000000e+03,5.000000000000000240e-05,6.999999999999999387e-05,1.399999999999999877e-04,1.800000000000000113e-04,-1.000000000000000082e-05,1.199999999999999895e-04,2.500000000000000052e-04,8.000000000000000654e-05,2.000000000000000000e+00,3.000000000000000000e+00
3.980000000000000000e+03,1.000000000000000082e-05,4.000000000000000327e-05,1.100000000000000039e-04,5.000000000000000240e-05,1.000000000000000082e-05,-1.300000000000000157e-04,-2.299999999999999799e-04,-9.000000000000000567e-05,2.000000000000000000e+00,3.000000000000000000e+00
3.981000000000000000e+03,1.000000000000000082e-05,4.000000000000000327e-05,1.100000000000000039e-04,5.000000000000000240e-05,1.000000000000000082e-05,-1.300000000000000157e-04,-2.299999999999999799e-04,-9.000000000000000567e-05,2.000000000000000000e+00,3.000000000000000000e+00
3.982000000000000000e+03,1.000000000000000082e-05,4.000000000000000327e-05,1.100000000000000039e-04,5.000000000000000240e-05,1.000000000000000082e-05,-1.300000000000000157e-04,-2.299999999999999799e-04,-9.000000000000000567e-05,2.000000000000000000e+00,3.000000000000000000e+00
3.983000000000000000e+03,1.000000000000000082e-05,4.000000000000000327e-05,1.100000000000000039e-04,5.000000000000000240e-05,1.000000000000000082e-05,-1.300000000000000157e-04,-2.299999999999999799e-04,-9.000000000000000567e-05,2.000000000000000000e+00,3.000000000000000000e+00
3.984000000000000000e+03,1.000000000000000082e-05,4.000000000000000327e-05,1.100000000000000039e-04,5.000000000000000240e-05,1.000000000000000082e-05,-1.300000000000000157e-04,-2.299999999999999799e-04,-9.000000000000000567e-05,2.000000000000000000e+00,3.000000000000000000e+00
3.985000000000000000e+03,1.000000000000000082e-05,4.000000000000000327e-05,1.100000000000000039e-04,5.000000000000000240e-05,1.000000000000000082e-05,-1.300000000000000157e-04,-2.299999999999999799e-04,-9.000000000000000567e-05,2.000000000000000000e+00,3.000000000000000000e+00
3.986000000000000000e+03,1.000000000000000082e-05,4.000000000000000327e-05,1.100000000000000039e-04,5.000000000000000240e-05,1.000000000000000082e-05,-1.300000000000000157e-04,-2.299999999999999799e-04,-9.000000000000000567e-05,2.000000000000000000e+00,3.000000000000000000e+00
3.989000000000000000e+03,1.000000000000000082e-05,4.000000000000000327e-05,1.100000000000000039e-04,5.000000000000000240e-05,1.000000000000000082e-05,-1.300000000000000157e-04,-2.299999999999999799e-04,-9.000000000000000567e-05,2.000000000000000000e+00,3.000000000000000000e+00
3.990000000000000000e+03,1.000000000000000082e-05,4.000000000000000327e-05,1.100000000000000039e-04,5.000000000000000240e-05,1.000000000000000082e-05,-1.300000000000000157e-04,-2.299999999999999799e-04,-9.000000000000000567e-05,2.000000000000000000e+00,3.000000000000000000e+00
3.991000000000000000e+03,-2.000000000000000164e-05,-5.000000000000000240e-05,-3.099999999999999999e-04,-2.500000000000000052e-04,5.000000000000000240e-05,2.000000000000000164e-05,2.399999999999999790e-04,1.199999999999999895e-04,2.000000000000000000e+00,3.000000000000000000e+00
3.992000000000000000e+03,-2.000000000000000164e-05,-8.000000000000000654e-05,-2.399999999999999790e-04,-3.299999999999999982e-04,-6.999999999999999387e-05,1.800000000000000113e-04,4.000000000000000327e-05,-2.999999999999999737e-05,2.000000000000000000e+00,3.000000000000000000e+00
3.993000000000000000e+03,-2.000000000000000164e-05,-8.000000000000000654e-05,-2.399999999999999790e-04,-3.299999999999999982e-04,-6.999999999999999387e-05,1.800000000000000113e-04,4.000000000000000327e-05,-2.999999999999999737e-05,2.000000000000000000e+00,3.000000000000000000e+00
3.994000000000000000e+03,-2.000000000000000164e-05,-8.000000000000000654e-05,-2.399999999999999790e-04,-3.299999999999999982e-04,-6.999999999999999387e-05,1.800000000000000113e-04,4.000000000000000327e-05,-2.999999999999999737e-05,2.000000000000000000e+00,3.000000000000000000e+00
3.995000000000000000e+03,-2.000000000000000164e-05,-8.000000000000000654e-05,-2.399999999999999790e-04,-3.299999999999999982e-04,-6.999999999999999387e-05,1.800000000000000113e-04,4.000000000000000327e-05,-2.999999999999999737e-05,2.000000000000000000e+00,3.000000000000000000e+00
3.996000000000000000e+03,-2.000000000000000164e-05,-8.000000000000000654e-05,-2.399999999999999790e-04,-3.299999999999999982e-04,-6.999999999999999387e-05,1.800000000000000113e-04,4.000000000000000327e-05,-2.999999999999999737e-05,2.000000000000000000e+00,3.000000000000000000e+00
3.997000000000000000e+03,-2.000000000000000164e-05,-8.000000000000000654e-05,-2.399999999999999790e-04,-3.299999999999999982e-04,-6.999999999999999387e-05,1.800000000000000113e-04,4.000000000000000327e-05,-2.999999999999999737e-05,2.000000000000000000e+00,3.000000000000000000e+00
3.998000000000000000e+03,-2.000000000000000164e-05,-8.000000000000000654e-05,-2.399999999999999790e-04,-3.299999999999999982e-04,-6.999999999999999387e-05,1.800000000000000113e-04,4.000000000000000327e-05,-2.999999999999999737e-05,2.000000000000000000e+00,3.000000000000000000e+00
3.999000000000000000e+03,-2.000000000000000164e-05,-8.000000000000000654e-05,-2.399999999999999790e-04,-3.299999999999999982e-04,-6.999999999999999387e-05,1.800000000000000113e-04,4.000000000000000327e-05,-2.999999999999999737e-05,2.000000000000000000e+00,3.000000000000000000e+00
4.000000000000000000e+03,-4.000000000000000327e-05,-1.000000000000000082e-05,1.600000000000000131e-04,-5.000000000000000240e-05,-9.000000000000000567e-05,-1.199999999999999895e-04,-3.699999999999999947e-04,-8.000000000000000654e-05,2.000000000000000000e+00,3.000000000000000000e+00
4.001000000000000000e+03,-4.000000000000000327e-05,-1.000000000000000082e-05,1.600000000000000131e-04,-5.000000000000000240e-05,-9.000000000000000567e-05,-1.199999999999999895e-04,-3.699999999999999947e-04,-8.000000000000000654e-05,2.000000000000000000e+00,3.000000000000000000e+00
4.002000000000000000e+03,-4.000000000000000327e-05,-1.000000000000000082e-05,1.600000000000000131e-04,-5.000000000000000240e-05,-9.000000000000000567e-05,-1.199999999999999895e-04,-3.699999999999999947e-04,-8.000000000000000654e-05,2.000000000000000000e+00,3.000000000000000000e+00
4.003000000000000000e+03,-4.000000000000000327e-05,-1.000000000000000082e-05,1.600000000000000131e-04,-5.000000000000000240e-05,-9.000000000000000567e-05,-1.199999999999999895e-04,-3.699999999999999947e-04,-8.000000000000000654e-05,2.000000000000000000e+00,3.000000000000000000e+00
4.004000000000000000e+03,-4.000000000000000327e-05,-1.000000000000000082e-05,1.600000000000000131e-04,-5.000000000000000240e-05,-9.000000000000000567e-05,-1.199999999999999895e-04,-3.699999999999999947e-04,-8.000000000000000654e-05,2.000000000000000000e+00,3.000000000000000000e+00
4.005000000000000000e+03,-4.000000000000000327e-05,-1.000000000000000082e-05,1.600000000000000131e-04,-5.000000000000000240e-05,-9.000000000000000567e-05,-1.199999999999999895e-04,-3.699999999999999947e-04,-8.000000000000000654e-05,2.000000000000000000e+00,3.000000000000000000e+00
4.006000000000000000e+03,-4.000000000000000327e-05,-1.000000000000000082e-05,1.600000000000000131e-04,-5.000000000000000240e-05,-9.000000000000000567e-05,-1.199999999999999895e-04,-3.699999999999999947e-04,-8.000000000000000654e-05,2.000000000000000000e+00,3.000000000000000000e+00
4.007000000000000000e+03,-4.000000000000000327e-05,-1.000000000000000082e-05,1.600000000000000131e-04,-5.000000000000000240e-05,-9.000000000000000567e-05,-1.199999999999999895e-04,-3.699999999999999947e-04,-8.000000000000000654e-05,2.000000000000000000e+00,3.000000000000000000e+00
4.008000000000000000e+03,-4.000000000000000327e-05,-1.000000000000000082e-05,1.600000000000000131e-04,-5.000000000000000240e-05,-9.000000000000000567e-05,-1.199999999999999895e-04,-3.699999999999999947e-04,-8.000000000000000654e-05,2.000000000000000000e+00,3.000000000000000000e+00
4.009000000000000000e+03,-4.000000000000000327e-05,-1.000000000000000082e-05,1.600000000000000131e-04,-5.000000000000000240e-05,-9.000000000000000567e-05,-1.199999999999999895e-04,-3.699999999999999947e-04,-8.000000000000000654e-05,2.000000000000000000e+00,3.000000000000000000e+00
4.010000000000000000e+03,-4.000000000000000327e-05,-1.000000000000000082e-05,1.600000000000000131e-04,-5.000000000000000240e-05,-9.000000000000000567e-05,-1.199999999999999895e-04,-3.699999999999999947e-04,-8.000000000000000654e-05,2.000000000000000000e+00,3.000000000000000000e+00
4.011000000000000000e+03,-4.000000000000000327e-05,-1.000000000000000082e-05,1.600000000000000131e-04,-5.000000000000000240e-05,-9.000000000000000567e-05,-1.199999999999999895e-04,-3.699999999999999947e-04,-8.000000000000000654e-05,2.000000000000000000e+00,3.000000000000000000e+00
4.012000000000000000e+03,-4.000000000000000327e-05,-1.000000000000000082e-05,1.600000000000000131e-04,-5.000000000000000240e-05,-9.000000000000000567e-05,-1.199999999999999895e-04,-3.699999999999999947e-04,-8.000000000000000654e-05,2.000000000000000000e+00,3.000000000000000000e+00
4.013000000000000000e+03,-4.000000000000000327e-05,-1.000000000000000082e-05,1.600000000000000131e-04,-5.000000000000000240e-05,-9.000000000000000567e-05,-1.199999999999999895e-04,-3.699999999999999947e-04,-8.000000000000000654e-05,2.000000000000000000e+00,3.000000000000000000e+00
4.014000000000000000e+03,-4.000000000000000327e-05,-1.000000000000000082e-05,1.600000000000000131e-04,-5.000000000000000240e-05,-9.000000000000000567e-05,-1.199999999999999895e-04,-3.699999999999999947e-04,-8.000000000000000654e-05,2.000000000000000000e+00,3.000000000000000000e+00
4.015000000000000000e+03,-1.000000000000000082e-05,5.999999999999999474e-05,1.000000000000000082e-05,-6.999999999999999387e-05,1.000000000000000082e-05,1.000000000000000082e-05,5.099999999999999282e-04,1.199999999999999895e-04,2.000000000000000000e+00,3.000000000000000000e+00
4.016000000000000000e+03,-1.000000000000000082e-05,5.999999999999999474e-05,1.000000000000000082e-05,-6.999999999999999387e-05,1.000000000000000082e-05,1.000000000000000082e-05,5.099999999999999282e-04,1.199999999999999895e-04,2.000000000000000000e+00,3.000000000000000000e+00
4.017000000000000000e+03,2.999999999999999737e-05,4.000000000000000327e-05,-5.000000000000000240e-05,1.300000000000000157e-04,1.300000000000000157e-04,-4.000000000000000327e-05,2.000000000000000096e-04,4.000000000000000327e-05,2.000000000000000000e+00,3.000000000000000000e+00
4.018000000000000000e+03,2.999999999999999737e-05,4.000000000000000327e-05,-5.000000000000000240e-05,1.300000000000000157e-04,1.300000000000000157e-04,-4.000000000000000327e-05,2.000000000000000096e-04,4.000000000000000327e-05,2.000000000000000000e+00,3.000000000000000000e+00
4.019000000000000000e+03,2.999999999999999737e-05,4.000000000000000327e-05,-5.000000000000000240e-05,1.300000000000000157e-04,1.300000000000000157e-04,-4.000000000000000327e-05,2.000000000000000096e-04,4.000000000000000327e-05,2.000000000000000000e+00,3.000000000000000000e+00
4.020000000000000000e+03,2.999999999999999737e-05,4.000000000000000327e-05,-5.000000000000000240e-05,1.300000000000000157e-04,1.300000000000000157e-04,-4.000000000000000327e-05,2.000000000000000096e-04,4.000000000000000327e-05,2.000000000000000000e+00,3.000000000000000000e+00
4.021000000000000000e+03,2.999999999999999737e-05,4.000000000000000327e-05,-5.000000000000000240e-05,1.300000000000000157e-04,1.300000000000000157e-04,-4.000000000000000327e-05,2.000000000000000096e-04,4.000000000000000327e-05,2.000000000000000000e+00,3.000000000000000000e+00
4.022000000000000000e+03,2.999999999999999737e-05,4.000000000000000327e-05,-5.000000000000000240e-05,1.300000000000000157e-04,1.300000000000000157e-04,-4.000000000000000327e-05,2.000000000000000096e-04,4.000000000000000327e-05,2.000000000000000000e+00,3.000000000000000000e+00
4.023000000000000000e+03,2.999999999999999737e-05,4.000000000000000327e-05,-5.000000000000000240e-05,1.300000000000000157e-04,1.300000000000000157e-04,-4.000000000000000327e-05,2.000000000000000096e-04,4.000000000000000327e-05,2.000000000000000000e+00,3.000000000000000000e+00
4.024000000000000000e+03,2.999999999999999737e-05,4.000000000000000327e-05,-5.000000000000000240e-05,1.300000000000000157e-04,1.300000000000000157e-04,-4.000000000000000327e-05,2.000000000000000096e-04,4.000000000000000327e-05,2.000000000000000000e+00,3.000000000000000000e+00
4.025000000000000000e+03,2.999999999999999737e-05,4.000000000000000327e-05,-5.000000000000000240e-05,1.300000000000000157e-04,1.300000000000000157e-04,-4.000000000000000327e-05,2.000000000000000096e-04,4.000000000000000327e-05,2.000000000000000000e+00,3.000000000000000000e+00
4.026000000000000000e+03,2.999999999999999737e-05,4.000000000000000327e-05,-5.000000000000000240e-05,1.300000000000000157e-04,1.300000000000000157e-04,-4.000000000000000327e-05,2.000000000000000096e-04,4.000000000000000327e-05,2.000000000000000000e+00,3.000000000000000000e+00
4.027000000000000000e+03,2.999999999999999737e-05,4.000000000000000327e-05,-5.000000000000000240e-05,1.300000000000000157e-04,1.300000000000000157e-04,-4.000000000000000327e-05,2.000000000000000096e-04,4.000000000000000327e-05,2.000000000000000000e+00,3.000000000000000000e+00
4.028000000000000000e+03,2.999999999999999737e-05,4.000000000000000327e-05,-5.000000000000000240e-05,1.300000000000000157e-04,1.300000000000000157e-04,-4.000000000000000327e-05,2.000000000000000096e-04,4.000000000000000327e-05,2.000000000000000000e+00,3.000000000000000000e+00
4.029000000000000000e+03,2.999999999999999737e-05,4.000000000000000327e-05,-5.000000000000000240e-05,1.300000000000000157e-04,1.300000000000000157e-04,-4.000000000000000327e-05,2.000000000000000096e-04,4.000000000000000327e-05,2.000000000000000000e+00,3.000000000000000000e+00
4.030000000000000000e+03,2.999999999999999737e-05,4.000000000000000327e-05,-5.000000000000000240e-05,1.300000000000000157e-04,1.300000000000000157e-04,-4.000000000000000327e-05,2.000000000000000096e-04,4.000000000000000327e-05,2.000000000000000000e+00,3.000000000000000000e+00
4.031000000000000000e+03,2.999999999999999737e-05,4.000000000000000327e-05,-5.000000000000000240e-05,1.300000000000000157e-04,1.300000000000000157e-04,-4.000000000000000327e-05,2.000000000000000096e-04,4.000000000000000327e-05,2.000000000000000000e+00,3.000000000000000000e+00
4.032000000000000000e+03,2.999999999999999737e-05,4.000000000000000327e-05,-5.000000000000000240e-05,1.300000000000000157e-04,1.300000000000000157e-04,-4.000000000000000327e-05,2.000000000000000096e-04,4.000000000000000327e-05,2.000000000000000000e+00,3.000000000000000000e+00
4.033000000000000000e+03,2.999999999999999737e-05,4.000000000000000327e-05,-5.000000000000000240e-05,1.300000000000000157e-04,1.300000000000000157e-04,-4.000000000000000327e-05,2.000000000000000096e-04,4.000000000000000327e-05,2.000000000000000000e+00,3.000000000000000000e+00
4.034000000000000000e+03,2.999999999999999737e-05,4.000000000000000327e-05,-5.000000000000000240e-05,1.300000000000000157e-04,1.300000000000000157e-04,-4.000000000000000327e-05,2.000000000000000096e-04,4.000000000000000327e-05,2.000000000000000000e+00,3.000000000000000000e+00
4.035000000000000000e+03,2.999999999999999737e-05,4.000000000000000327e-05,-5.000000000000000240e-05,1.300000000000000157e-04,1.300000000000000157e-04,-4.000000000000000327e-05,2.000000000000000096e-04,4.000000000000000327e-05,2.000000000000000000e+00,3.000000000000000000e+00
4.036000000000000000e+03,2.999999999999999737e-05,4.000000000000000327e-05,-5.000000000000000240e-05,1.300000000000000157e-04,1.300000000000000157e-04,-4.000000000000000327e-05,2.000000000000000096e-04,4.000000000000000327e-05,2.000000000000000000e+00,3.000000000000000000e+00
4.039000000000000000e+03,-5.999999999999999474e-05,0.000000000000000000e+00,6.999999999999999387e-05,-5.000000000000000240e-05,-5.000000000000000240e-05,-1.600000000000000131e-04,-2.200000000000000078e-04,-1.000000000000000048e-04,2.000000000000000000e+00,3.000000000000000000e+00
4.040000000000000000e+03,-5.999999999999999474e-05,0.000000000000000000e+00,1.199999999999999895e-04,5.000000000000000240e-05,0.000000000000000000e+00,-5.000000000000000240e-05,1.199999999999999895e-04,-2.999999999999999737e-05,2.000000000000000000e+00,3.000000000000000000e+00
4.041000000000000000e+03,-5.999999999999999474e-05,0.000000000000000000e+00,1.199999999999999895e-04,5.000000000000000240e-05,0.000000000000000000e+00,-5.000000000000000240e-05,1.199999999999999895e-04,-2.999999999999999737e-05,2.000000000000000000e+00,3.000000000000000000e+00
4.042000000000000000e+03,-5.999999999999999474e-05,0.000000000000000000e+00,1.199999999999999895e-04,5.000000000000000240e-05,0.000000000000000000e+00,-5.000000000000000240e-05,1.199999999999999895e-04,-2.999999999999999737e-05,2.000000000000000000e+00,3.000000000000000000e+00
4.043000000000000000e+03,-5.999999999999999474e-05,0.000000000000000000e+00,1.199999999999999895e-04,5.000000000000000240e-05,0.000000000000000000e+00,-5.000000000000000240e-05,1.199999999999999895e-04,-2.999999999999999737e-05,2.000000000000000000e+00,3.000000000000000000e+00
4.044000000000000000e+03,-5.999999999999999474e-05,0.000000000000000000e+00,1.199999999999999895e-04,5.000000000000000240e-05,0.000000000000000000e+00,-5.000000000000000240e-05,1.199999999999999895e-04,-2.999999999999999737e-05,2.000000000000000000e+00,3.000000000000000000e+00
4.045000000000000000e+03,-5.999999999999999474e-05,0.000000000000000000e+00,1.199999999999999895e-04,5.000000000000000240e-05,0.000000000000000000e+00,-5.000000000000000240e-05,1.199999999999999895e-04,-2.999999999999999737e-05,2.000000000000000000e+00,3.000000000000000000e+00
4.046000000000000000e+03,-5.999999999999999474e-05,0.000000000000000000e+00,1.199999999999999895e-04,5.000000000000000240e-05,0.000000000000000000e+00,-5.000000000000000240e-05,1.199999999999999895e-04,-2.999999999999999737e-05,2.000000000000000000e+00,3.000000000000000000e+00
4.047000000000000000e+03,-5.999999999999999474e-05,0.000000000000000000e+00,1.199999999999999895e-04,5.000000000000000240e-05,0.000000000000000000e+00,-5.000000000000000240e-05,1.199999999999999895e-04,-2.999999999999999737e-05,2.000000000000000000e+00,3.000000000000000000e+00
4.048000000000000000e+03,-5.999999999999999474e-05,0.000000000000000000e+00,1.199999999999999895e-04,5.000000000000000240e-05,0.000000000000000000e+00,-5.000000000000000240e-05,1.199999999999999895e-04,-2.999999999999999737e-05,2.000000000000000000e+00,3.000000000000000000e+00
4.049000000000000000e+03,-5.999999999999999474e-05,0.000000000000000000e+00,1.199999999999999895e-04,5.000000000000000240e-05,0.000000000000000000e+00,-5.000000000000000240e-05,1.199999999999999895e-04,-2.999999999999999737e-05,2.000000000000000000e+00,3.000000000000000000e+00
4.050000000000000000e+03,-5.999999999999999474e-05,0.000000000000000000e+00,1.199999999999999895e-04,5.000000000000000240e-05,0.000000000000000000e+00,-5.000000000000000240e-05,1.199999999999999895e-04,-2.999999999999999737e-05,2.000000000000000000e+00,3.000000000000000000e+00
4.051000000000000000e+03,1.000000000000000082e-05,0.000000000000000000e+00,-1.199999999999999895e-04,-2.399999999999999790e-04,-6.999999999999999387e-05,-1.000000000000000082e-05,1.399999999999999877e-04,-1.000000000000000082e-05,2.000000000000000000e+00,3.000000000000000000e+00
4.052000000000000000e+03,1.000000000000000082e-05,0.000000000000000000e+00,-1.199999999999999895e-04,-2.399999999999999790e-04,-6.999999999999999387e-05,-1.000000000000000082e-05,1.399999999999999877e-04,-1.000000000000000082e-05,2.000000000000000000e+00,3.000000000000000000e+00
4.053000000000000000e+03,1.000000000000000082e-05,0.000000000000000000e+00,-1.199999999999999895e-04,-2.399999999999999790e-04,-6.999999999999999387e-05,-1.000000000000000082e-05,1.399999999999999877e-04,-1.000000000000000082e-05,2.000000000000000000e+00,3.000000000000000000e+00
4.054000000000000000e+03,1.000000000000000082e-05,0.000000000000000000e+00,-1.199999999999999895e-04,-2.399999999999999790e-04,-6.999999999999999387e-05,-1.000000000000000082e-05,1.399999999999999877e-04,-1.000000000000000082e-05,2.000000000000000000e+00,3.000000000000000000e+00
4.055000000000000000e+03,1.000000000000000082e-05,0.000000000000000000e+00,-1.199999999999999895e-04,-2.399999999999999790e-04,-6.999999999999999387e-05,-1.000000000000000082e-05,1.399999999999999877e-04,-1.000000000000000082e-05,2.000000000000000000e+00,3.000000000000000000e+00
4.056000000000000000e+03,1.000000000000000082e-05,0.000000000000000000e+00,-1.199999999999999895e-04,-2.399999999999999790e-04,-6.999999999999999387e-05,-1.000000000000000082e-05,1.399999999999999877e-04,-1.000000000000000082e-05,2.000000000000000000e+00,3.000000000000000000e+00
4.057000000000000000e+03,1.000000000000000082e-05,0.000000000000000000e+00,-1.199999999999999895e-04,-2.399999999999999790e-04,-6.999999999999999387e-05,-1.000000000000000082e-05,1.399999999999999877e-04,-1.000000000000000082e-05,2.000000000000000000e+00,3.000000000000000000e+00
4.058000000000000000e+03,1.000000000000000082e-05,0.000000000000000000e+00,-1.199999999999999895e-04,-2.399999999999999790e-04,-6.999999999999999387e-05,-1.000000000000000082e-05,1.399999999999999877e-04,-1.000000000000000082e-05,2.000000000000000000e+00,3.000000000000000000e+00
4.059000000000000000e+03,1.000000000000000082e-05,0.000000000000000000e+00,-1.199999999999999895e-04,-2.399999999999999790e-04,-6.999999999999999387e-05,-1.000000000000000082e-05,1.399999999999999877e-04,-1.000000000000000082e-05,2.000000000000000000e+00,3.000000000000000000e+00
4.060000000000000000e+03,0.000000000000000000e+00,-2.999999999999999737e-05,-1.000000000000000082e-05,1.300000000000000157e-04,6.999999999999999387e-05,5.999999999999999474e-05,-1.000000000000000082e-05,0.000000000000000000e+00,2.000000000000000000e+00,3.000000000000000000e+00
4.061000000000000000e+03,4.000000000000000327e-05,-5.000000000000000240e-05,-1.000000000000000048e-04,-2.399999999999999790e-04,-6.999999999999999387e-05,6.999999999999999387e-05,5.000000000000000240e-05,0.000000000000000000e+00,2.000000000000000000e+00,3.000000000000000000e+00
4.062000000000000000e+03,4.000000000000000327e-05,-5.000000000000000240e-05,-1.000000000000000048e-04,-2.399999999999999790e-04,-6.999999999999999387e-05,6.999999999999999387e-05,5.000000000000000240e-05,0.000000000000000000e+00,2.000000000000000000e+00,3.000000000000000000e+00
4.063000000000000000e+03,4.000000000000000327e-05,-5.000000000000000240e-05,-1.000000000000000048e-04,-2.399999999999999790e-04,-6.999999999999999387e-05,6.999999999999999387e-05,5.000000000000000240e-05,0.000000000000000000e+00,2.000000000000000000e+00,3.000000000000000000e+00
4.064000000000000000e+03,4.000000000000000327e-05,-5.000000000000000240e-05,-1.000000000000000048e-04,-2.399999999999999790e-04,-6.999999999999999387e-05,6.999999999999999387e-05,5.000000000000000240e-05,0.000000000000000000e+00,2.000000000000000000e+00,3.000000000000000000e+00
4.065000000000000000e+03,4.000000000000000327e-05,-5.000000000000000240e-05,-1.000000000000000048e-04,-2.399999999999999790e-04,-6.999999999999999387e-05,6.999999999999999387e-05,5.000000000000000240e-05,0.000000000000000000e+00,2.000000000000000000e+00,3.000000000000000000e+00
4.066000000000000000e+03,4.000000000000000327e-05,-5.000000000000000240e-05,-1.000000000000000048e-04,-2.399999999999999790e-04,-6.999999999999999387e-05,6.999999999999999387e-05,5.000000000000000240e-05,0.000000000000000000e+00,2.000000000000000000e+00,3.000000000000000000e+00
4.067000000000000000e+03,4.000000000000000327e-05,-5.000000000000000240e-05,-1.000000000000000048e-04,-2.399999999999999790e-04,-6.999999999999999387e-05,6.999999999999999387e-05,5.000000000000000240e-05,0.000000000000000000e+00,2.000000000000000000e+00,3.000000000000000000e+00
4.068000000000000000e+03,4.000000000000000327e-05,-5.000000000000000240e-05,-1.000000000000000048e-04,-2.399999999999999790e-04,-6.999999999999999387e-05,6.999999999999999387e-05,5.000000000000000240e-05,0.000000000000000000e+00,2.000000000000000000e+00,3.000000000000000000e+00
4.069000000000000000e+03,4.000000000000000327e-05,-5.000000000000000240e-05,-1.000000000000000048e-04,-2.399999999999999790e-04,-6.999999999999999387e-05,6.999999999999999387e-05,5.000000000000000240e-05,0.000000000000000000e+00,2.000000000000000000e+00,3.000000000000000000e+00
4.070000000000000000e+03,4.000000000000000327e-05,-5.000000000000000240e-05,-1.000000000000000048e-04,-2.399999999999999790e-04,-6.999999999999999387e-05,6.999999999999999387e-05,5.000000000000000240e-05,0.000000000000000000e+00,2.000000000000000000e+00,3.000000000000000000e+00
4.071000000000000000e+03,4.000000000000000327e-05,-5.000000000000000240e-05,-1.000000000000000048e-04,-2.399999999999999790e-04,-6.999999999999999387e-05,6.999999999999999387e-05,5.000000000000000240e-05,0.000000000000000000e+00,2.000000000000000000e+00,3.000000000000000000e+00
4.072000000000000000e+03,4.000000000000000327e-05,-5.000000000000000240e-05,-1.000000000000000048e-04,-2.399999999999999790e-04,-6.999999999999999387e-05,6.999999999999999387e-05,5.000000000000000240e-05,0.000000000000000000e+00,2.000000000000000000e+00,3.000000000000000000e+00
4.073000000000000000e+03,4.000000000000000327e-05,-5.000000000000000240e-05,-1.000000000000000048e-04,-2.399999999999999790e-04,-6.999999999999999387e-05,6.999999999999999387e-05,5.000000000000000240e-05,0.000000000000000000e+00,2.000000000000000000e+00,3.000000000000000000e+00
4.074000000000000000e+03,4.000000000000000327e-05,-5.000000000000000240e-05,-1.000000000000000048e-04,-2.399999999999999790e-04,-6.999999999999999387e-05,6.999999999999999387e-05,5.000000000000000240e-05,0.000000000000000000e+00,2.000000000000000000e+00,3.000000000000000000e+00
4.075000000000000000e+03,-5.000000000000000240e-05,-4.000000000000000327e-05,-9.000000000000000567e-05,5.999999999999999474e-05,1.000000000000000082e-05,1.000000000000000082e-05,-5.999999999999999474e-05,-2.999999999999999737e-05,2.000000000000000000e+00,3.000000000000000000e+00
4.076000000000000000e+03,-5.000000000000000240e-05,-4.000000000000000327e-05,-9.000000000000000567e-05,5.999999999999999474e-05,1.000000000000000082e-05,1.000000000000000082e-05,-5.999999999999999474e-05,-2.999999999999999737e-05,2.000000000000000000e+00,3.000000000000000000e+00
4.077000000000000000e+03,5.000000000000000240e-05,4.000000000000000327e-05,1.499999999999999869e-04,2.200000000000000078e-04,-5.000000000000000240e-05,1.000000000000000048e-04,3.200000000000000262e-04,5.999999999999999474e-05,2.000000000000000000e+00,3.000000000000000000e+00
4.078000000000000000e+03,5.000000000000000240e-05,4.000000000000000327e-05,1.499999999999999869e-04,2.200000000000000078e-04,-5.000000000000000240e-05,1.000000000000000048e-04,3.200000000000000262e-04,5.999999999999999474e-05,2.000000000000000000e+00,3.000000000000000000e+00
4.079000000000000000e+03,5.000000000000000240e-05,4.000000000000000327e-05,1.499999999999999869e-04,2.200000000000000078e-04,-5.000000000000000240e-05,1.000000000000000048e-04,3.200000000000000262e-04,5.999999999999999474e-05,2.000000000000000000e+00,3.000000000000000000e+00
4.080000000000000000e+03,5.000000000000000240e-05,4.000000000000000327e-05,1.499999999999999869e-04,2.200000000000000078e-04,-5.000000000000000240e-05,1.000000000000000048e-04,3.200000000000000262e-04,5.999999999999999474e-05,2.000000000000000000e+00,3.000000000000000000e+00
4.081000000000000000e+03,5.000000000000000240e-05,4.000000000000000327e-05,1.499999999999999869e-04,2.200000000000000078e-04,-5.000000000000000240e-05,1.000000000000000048e-04,3.200000000000000262e-04,5.999999999999999474e-05,2.000000000000000000e+00,3.000000000000000000e+00
4.082000000000000000e+03,5.000000000000000240e-05,4.000000000000000327e-05,1.499999999999999869e-04,2.200000000000000078e-04,-5.000000000000000240e-05,1.000000000000000048e-04,3.200000000000000262e-04,5.999999999999999474e-05,2.000000000000000000e+00,3.000000000000000000e+00
4.083000000000000000e+03,5.000000000000000240e-05,4.000000000000000327e-05,1.499999999999999869e-04,2.200000000000000078e-04,-5.000000000000000240e-05,1.000000000000000048e-04,3.200000000000000262e-04,5.999999999999999474e-05,2.000000000000000000e+00,3.000000000000000000e+00
4.084000000000000000e+03,5.000000000000000240e-05,4.000000000000000327e-05,1.499999999999999869e-04,2.200000000000000078e-04,-5.000000000000000240e-05,1.000000000000000048e-04,3.200000000000000262e-04,5.999999999999999474e-05,2.000000000000000000e+00,3.000000000000000000e+00
4.085000000000000000e+03,5.000000000000000240e-05,4.000000000000000327e-05,1.499999999999999869e-04,2.200000000000000078e-04,-5.000000000000000240e-05,1.000000000000000048e-04,3.200000000000000262e-04,5.999999999999999474e-05,2.000000000000000000e+00,3.000000000000000000e+00
4.086000000000000000e+03,5.000000000000000240e-05,4.000000000000000327e-05,1.499999999999999869e-04,2.200000000000000078e-04,-5.000000000000000240e-05,1.000000000000000048e-04,3.200000000000000262e-04,5.999999999999999474e-05,2.000000000000000000e+00,3.000000000000000000e+00
4.089000000000000000e+03,5.000000000000000240e-05,4.000000000000000327e-05,1.499999999999999869e-04,2.200000000000000078e-04,-5.000000000000000240e-05,1.000000000000000048e-04,3.200000000000000262e-04,5.999999999999999474e-05,2.000000000000000000e+00,3.000000000000000000e+00
4.090000000000000000e+03,5.000000000000000240e-05,4.000000000000000327e-05,1.499999999999999869e-04,2.200000000000000078e-04,-5.000000000000000240e-05,1.000000000000000048e-04,3.200000000000000262e-04,5.999999999999999474e-05,2.000000000000000000e+00,3.000000000000000000e+00
4.091000000000000000e+03,5.000000000000000240e-05,4.000000000000000327e-05,1.499999999999999869e-04,2.200000000000000078e-04,-5.000000000000000240e-05,1.000000000000000048e-04,3.200000000000000262e-04,5.999999999999999474e-05,2.000000000000000000e+00,3.000000000000000000e+00
4.092000000000000000e+03,5.000000000000000240e-05,4.000000000000000327e-05,1.499999999999999869e-04,2.200000000000000078e-04,-5.000000000000000240e-05,1.000000000000000048e-04,3.200000000000000262e-04,5.999999999999999474e-05,2.000000000000000000e+00,3.000000000000000000e+00
4.093000000000000000e+03,5.000000000000000240e-05,4.000000000000000327e-05,1.499999999999999869e-04,2.200000000000000078e-04,-5.000000000000000240e-05,1.000000000000000048e-04,3.200000000000000262e-04,5.999999999999999474e-05,2.000000000000000000e+00,3.000000000000000000e+00
4.094000000000000000e+03,5.000000000000000240e-05,4.000000000000000327e-05,1.499999999999999869e-04,2.200000000000000078e-04,-5.000000000000000240e-05,1.000000000000000048e-04,3.200000000000000262e-04,5.999999999999999474e-05,2.000000000000000000e+00,3.000000000000000000e+00
4.095000000000000000e+03,5.000000000000000240e-05,4.000000000000000327e-05,1.499999999999999869e-04,2.200000000000000078e-04,-5.000000000000000240e-05,1.000000000000000048e-04,3.200000000000000262e-04,5.999999999999999474e-05,2.000000000000000000e+00,3.000000000000000000e+00
4.096000000000000000e+03,5.000000000000000240e-05,4.000000000000000327e-05,1.499999999999999869e-04,2.200000000000000078e-04,-5.000000000000000240e-05,1.000000000000000048e-04,3.200000000000000262e-04,5.999999999999999474e-05,2.000000000000000000e+00,3.000000000000000000e+00
4.097000000000000000e+03,5.000000000000000240e-05,4.000000000000000327e-05,1.499999999999999869e-04,2.200000000000000078e-04,-5.000000000000000240e-05,1.000000000000000048e-04,3.200000000000000262e-04,5.999999999999999474e-05,2.000000000000000000e+00,3.000000000000000000e+00
4.098000000000000000e+03,0.000000000000000000e+00,-5.000000000000000240e-05,-1.800000000000000113e-04,-2.000000000000000164e-05,5.999999999999999474e-05,-6.999999999999999387e-05,-9.000000000000000567e-05,4.000000000000000327e-05,2.000000000000000000e+00,3.000000000000000000e+00
4.099000000000000000e+03,-1.399999999999999877e-04,-6.999999999999999387e-05,-1.000000000000000048e-04,-6.999999999999999387e-05,-8.000000000000000654e-05,-5.000000000000000240e-05,-2.000000000000000096e-04,-6.999999999999999387e-05,2.000000000000000000e+00,3.000000000000000000e+00
4.100000000000000000e+03,-4.000000000000000327e-05,4.000000000000000327e-05,5.999999999999999474e-05,1.000000000000000048e-04,1.199999999999999895e-04,8.000000000000000654e-05,3.899999999999999929e-04,6.999999999999999387e-05,2.000000000000000000e+00,3.000000000000000000e+00
4.101000000000000000e+03,-4.000000000000000327e-05,4.000000000000000327e-05,5.999999999999999474e-05,1.000000000000000048e-04,1.199999999999999895e-04,8.000000000000000654e-05,3.899999999999999929e-04,6.999999999999999387e-05,2.000000000000000000e+00,3.000000000000000000e+00
4.102000000000000000e+03,-4.000000000000000327e-05,4.000000000000000327e-05,5.999999999999999474e-05,1.000000000000000048e-04,1.199999999999999895e-04,8.000000000000000654e-05,3.899999999999999929e-04,6.999999999999999387e-05,2.000000000000000000e+00,3.000000000000000000e+00
4.103000000000000000e+03,-4.000000000000000327e-05,4.000000000000000327e-05,5.999999999999999474e-05,1.000000000000000048e-04,1.199999999999999895e-04,8.000000000000000654e-05,3.899999999999999929e-04,6.999999999999999387e-05,2.000000000000000000e+00,3.000000000000000000e+00
4.104000000000000000e+03,-4.000000000000000327e-05,4.000000000000000327e-05,5.999999999999999474e-05,1.000000000000000048e-04,1.199999999999999895e-04,8.000000000000000654e-05,3.899999999999999929e-04,6.999999999999999387e-05,2.000000000000000000e+00,3.000000000000000000e+00
4.105000000000000000e+03,-4.000000000000000327e-05,4.000000000000000327e-05,5.999999999999999474e-05,1.000000000000000048e-04,1.199999999999999895e-04,8.000000000000000654e-05,3.899999999999999929e-04,6.999999999999999387e-05,2.000000000000000000e+00,3.000000000000000000e+00
4.106000000000000000e+03,-4.000000000000000327e-05,4.000000000000000327e-05,5.999999999999999474e-05,1.000000000000000048e-04,1.199999999999999895e-04,8.000000000000000654e-05,3.899999999999999929e-04,6.999999999999999387e-05,2.000000000000000000e+00,3.000000000000000000e+00
4.107000000000000000e+03,-4.000000000000000327e-05,4.000000000000000327e-05,5.999999999999999474e-05,1.000000000000000048e-04,1.199999999999999895e-04,8.000000000000000654e-05,3.899999999999999929e-04,6.999999999999999387e-05,2.000000000000000000e+00,3.000000000000000000e+00
4.108000000000000000e+03,-4.000000000000000327e-05,4.000000000000000327e-05,5.999999999999999474e-05,1.000000000000000048e-04,1.199999999999999895e-04,8.000000000000000654e-05,3.899999999999999929e-04,6.999999999999999387e-05,2.000000000000000000e+00,3.000000000000000000e+00
4.109000000000000000e+03,-4.000000000000000327e-05,4.000000000000000327e-05,5.999999999999999474e-05,1.000000000000000048e-04,1.199999999999999895e-04,8.000000000000000654e-05,3.899999999999999929e-04,6.999999999999999387e-05,2.000000000000000000e+00,3.000000000000000000e+00
4.110000000000000000e+03,-4.000000000000000327e-05,4.000000000000000327e-05,5.999999999999999474e-05,1.000000000000000048e-04,1.199999999999999895e-04,8.000000000000000654e-05,3.899999999999999929e-04,6.999999999999999387e-05,2.000000000000000000e+00,3.000000000000000000e+00
4.111000000000000000e+03,-4.000000000000000327e-05,4.000000000000000327e-05,5.999999999999999474e-05,1.000000000000000048e-04,1.199999999999999895e-04,8.000000000000000654e-05,3.899999999999999929e-04,6.999999999999999387e-05,2.000000000000000000e+00,3.000000000000000000e+00
4.112000000000000000e+03,-4.000000000000000327e-05,4.000000000000000327e-05,5.999999999999999474e-05,1.000000000000000048e-04,1.199999999999999895e-04,8.000000000000000654e-05,3.899999999999999929e-04,6.999999999999999387e-05,2.000000000000000000e+00,3.000000000000000000e+00
4.113000000000000000e+03,-4.000000000000000327e-05,4.000000000000000327e-05,5.999999999999999474e-05,1.000000000000000048e-04,1.199999999999999895e-04,8.000000000000000654e-05,3.899999999999999929e-04,6.999999999999999387e-05,2.000000000000000000e+00,3.000000000000000000e+00
4.114000000000000000e+03,-4.000000000000000327e-05,4.000000000000000327e-05,5.999999999999999474e-05,1.000000000000000048e-04,1.199999999999999895e-04,8.000000000000000654e-05,3.899999999999999929e-04,6.999999999999999387e-05,2.000000000000000000e+00,3.000000000000000000e+00
4.115000000000000000e+03,-4.000000000000000327e-05,4.000000000000000327e-05,5.999999999999999474e-05,1.000000000000000048e-04,1.199999999999999895e-04,8.000000000000000654e-05,3.899999999999999929e-04,6.999999999999999387e-05,2.000000000000000000e+00,3.000000000000000000e+00
4.116000000000000000e+03,-4.000000000000000327e-05,4.000000000000000327e-05,5.999999999999999474e-05,1.000000000000000048e-04,1.199999999999999895e-04,8.000000000000000654e-05,3.899999999999999929e-04,6.999999999999999387e-05,2.000000000000000000e+00,3.000000000000000000e+00
4.117000000000000000e+03,-4.000000000000000327e-05,4.000000000000000327e-05,5.999999999999999474e-05,1.000000000000000048e-04,1.199999999999999895e-04,8.000000000000000654e-05,3.899999999999999929e-04,6.999999999999999387e-05,2.000000000000000000e+00,3.000000000000000000e+00
4.118000000000000000e+03,-4.000000000000000327e-05,4.000000000000000327e-05,5.999999999999999474e-05,1.000000000000000048e-04,1.199999999999999895e-04,8.000000000000000654e-05,3.899999999999999929e-04,6.999999999999999387e-05,2.000000000000000000e+00,3.000000000000000000e+00
4.119000000000000000e+03,-4.000000000000000327e-05,4.000000000000000327e-05,5.999999999999999474e-05,1.000000000000000048e-04,1.199999999999999895e-04,8.000000000000000654e-05,3.899999999999999929e-04,6.999999999999999387e-05,2.000000000000000000e+00,3.000000000000000000e+00
4.120000000000000000e+03,4.000000000000000327e-05,0.000000000000000000e+00,6.999999999999999387e-05,-2.999999999999999737e-05,-6.999999999999999387e-05,1.000000000000000082e-05,-1.600000000000000131e-04,-5.999999999999999474e-05,2.000000000000000000e+00,3.000000000000000000e+00
4.121000000000000000e+03,4.000000000000000327e-05,0.000000000000000000e+00,6.999999999999999387e-05,-2.999999999999999737e-05,-6.999999999999999387e-05,1.000000000000000082e-05,-1.600000000000000131e-04,-5.999999999999999474e-05,2.000000000000000000e+00,3.000000000000000000e+00
4.122000000000000000e+03,-2.999999999999999737e-05,-8.000000000000000654e-05,-2.100000000000000087e-04,-1.499999999999999869e-04,-8.000000000000000654e-05,-3.600000000000000227e-04,-1.399999999999999877e-04,-4.000000000000000327e-05,2.000000000000000000e+00,3.000000000000000000e+00
4.123000000000000000e+03,-2.999999999999999737e-05,-8.000000000000000654e-05,-2.100000000000000087e-04,-1.499999999999999869e-04,-8.000000000000000654e-05,-3.600000000000000227e-04,-1.399999999999999877e-04,-4.000000000000000327e-05,2.000000000000000000e+00,3.000000000000000000e+00
4.124000000000000000e+03,-2.999999999999999737e-05,-8.000000000000000654e-05,-2.100000000000000087e-04,-1.499999999999999869e-04,-8.000000000000000654e-05,-3.600000000000000227e-04,-1.399999999999999877e-04,-4.000000000000000327e-05,2.000000000000000000e+00,3.000000000000000000e+00
4.125000000000000000e+03,-2.999999999999999737e-05,-8.000000000000000654e-05,-2.100000000000000087e-04,-1.499999999999999869e-04,-8.000000000000000654e-05,-3.600000000000000227e-04,-1.399999999999999877e-04,-4.000000000000000327e-05,2.000000000000000000e+00,3.000000000000000000e+00
4.126000000000000000e+03,-2.999999999999999737e-05,-8.000000000000000654e-05,-2.100000000000000087e-04,-1.499999999999999869e-04,-8.000000000000000654e-05,-3.600000000000000227e-04,-1.399999999999999877e-04,-4.000000000000000327e-05,2.000000000000000000e+00,3.000000000000000000e+00
4.127000000000000000e+03,-2.999999999999999737e-05,-8.000000000000000654e-05,-2.100000000000000087e-04,-1.499999999999999869e-04,-8.000000000000000654e-05,-3.600000000000000227e-04,-1.399999999999999877e-04,-4.000000000000000327e-05,2.000000000000000000e+00,3.000000000000000000e+00
4.128000000000000000e+03,-2.999999999999999737e-05,-8.000000000000000654e-05,-2.100000000000000087e-04,-1.499999999999999869e-04,-8.000000000000000654e-05,-3.600000000000000227e-04,-1.399999999999999877e-04,-4.000000000000000327e-05,2.000000000000000000e+00,3.000000000000000000e+00
4.129000000000000000e+03,-2.999999999999999737e-05,-8.000000000000000654e-05,-2.100000000000000087e-04,-1.499999999999999869e-04,-8.000000000000000654e-05,-3.600000000000000227e-04,-1.399999999999999877e-04,-4.000000000000000327e-05,2.000000000000000000e+00,3.000000000000000000e+00
4.130000000000000000e+03,-2.999999999999999737e-05,-8.000000000000000654e-05,-2.100000000000000087e-04,-1.499999999999999869e-04,-8.000000000000000654e-05,-3.600000000000000227e-04,-1.399999999999999877e-04,-4.000000000000000327e-05,2.000000000000000000e+00,3.000000000000000000e+00
4.131000000000000000e+03,-2.999999999999999737e-05,-8.000000000000000654e-05,-2.100000000000000087e-04,-1.499999999999999869e-04,-8.000000000000000654e-05,-3.600000000000000227e-04,-1.399999999999999877e-04,-4.000000000000000327e-05,2.000000000000000000e+00,3.000000000000000000e+00
4.132000000000000000e+03,-2.999999999999999737e-05,-8.000000000000000654e-05,-2.100000000000000087e-04,-1.499999999999999869e-04,-8.000000000000000654e-05,-3.600000000000000227e-04,-1.399999999999999877e-04,-4.000000000000000327e-05,2.000000000000000000e+00,3.000000000000000000e+00
4.133000000000000000e+03,-2.999999999999999737e-05,-8.000000000000000654e-05,-2.100000000000000087e-04,-1.499999999999999869e-04,-8.000000000000000654e-05,-3.600000000000000227e-04,-1.399999999999999877e-04,-4.000000000000000327e-05,2.000000000000000000e+00,3.000000000000000000e+00
4.134000000000000000e+03,-2.999999999999999737e-05,-8.000000000000000654e-05,-2.100000000000000087e-04,-1.499999999999999869e-04,-8.000000000000000654e-05,-3.600000000000000227e-04,-1.399999999999999877e-04,-4.000000000000000327e-05,2.000000000000000000e+00,3.000000000000000000e+00
4.135000000000000000e+03,2.999999999999999737e-05,0.000000000000000000e+00,5.000000000000000240e-05,2.299999999999999799e-04,4.000000000000000327e-05,2.000000000000000164e-05,6.999999999999999387e-05,5.000000000000000240e-05,2.000000000000000000e+00,3.000000000000000000e+00
4.136000000000000000e+03,2.999999999999999737e-05,0.000000000000000000e+00,5.000000000000000240e-05,2.299999999999999799e-04,4.000000000000000327e-05,2.000000000000000164e-05,6.999999999999999387e-05,5.000000000000000240e-05,2.000000000000000000e+00,3.000000000000000000e+00
4.138000000000000000e+03,2.999999999999999737e-05,2.000000000000000164e-05,-6.999999999999999387e-05,-2.000000000000000164e-05,-1.000000000000000082e-05,-1.000000000000000082e-05,-1.300000000000000157e-04,-4.000000000000000327e-05,2.000000000000000000e+00,3.000000000000000000e+00
4.140000000000000000e+03,2.999999999999999737e-05,2.000000000000000164e-05,-6.999999999999999387e-05,-2.000000000000000164e-05,-1.000000000000000082e-05,-1.000000000000000082e-05,-1.300000000000000157e-04,-4.000000000000000327e-05,2.000000000000000000e+00,3.000000000000000000e+00
4.141000000000000000e+03,2.999999999999999737e-05,2.000000000000000164e-05,-6.999999999999999387e-05,-2.000000000000000164e-05,-1.000000000000000082e-05,-1.000000000000000082e-05,-1.300000000000000157e-04,-4.000000000000000327e-05,2.000000000000000000e+00,3.000000000000000000e+00
4.142000000000000000e+03,2.999999999999999737e-05,2.000000000000000164e-05,-6.999999999999999387e-05,-2.000000000000000164e-05,-1.000000000000000082e-05,-1.000000000000000082e-05,-1.300000000000000157e-04,-4.000000000000000327e-05,2.000000000000000000e+00,3.000000000000000000e+00
4.143000000000000000e+03,2.999999999999999737e-05,2.000000000000000164e-05,-6.999999999999999387e-05,-2.000000000000000164e-05,-1.000000000000000082e-05,-1.000000000000000082e-05,-1.300000000000000157e-04,-4.000000000000000327e-05,2.000000000000000000e+00,3.000000000000000000e+00
4.144000000000000000e+03,2.999999999999999737e-05,2.000000000000000164e-05,-6.999999999999999387e-05,-2.000000000000000164e-05,-1.000000000000000082e-05,-1.000000000000000082e-05,-1.300000000000000157e-04,-4.000000000000000327e-05,2.000000000000000000e+00,3.000000000000000000e+00
4.145000000000000000e+03,2.999999999999999737e-05,2.000000000000000164e-05,-6.999999999999999387e-05,-2.000000000000000164e-05,-1.000000000000000082e-05,-1.000000000000000082e-05,-1.300000000000000157e-04,-4.000000000000000327e-05,2.000000000000000000e+00,3.000000000000000000e+00
4.146000000000000000e+03,2.999999999999999737e-05,2.000000000000000164e-05,-6.999999999999999387e-05,-2.000000000000000164e-05,-1.000000000000000082e-05,-1.000000000000000082e-05,-1.300000000000000157e-04,-4.000000000000000327e-05,2.000000000000000000e+00,3.000000000000000000e+00
4.147000000000000000e+03,2.999999999999999737e-05,2.000000000000000164e-05,-6.999999999999999387e-05,-2.000000000000000164e-05,-1.000000000000000082e-05,-1.000000000000000082e-05,-1.300000000000000157e-04,-4.000000000000000327e-05,2.000000000000000000e+00,3.000000000000000000e+00
4.148000000000000000e+03,2.999999999999999737e-05,2.000000000000000164e-05,-6.999999999999999387e-05,-2.000000000000000164e-05,-1.000000000000000082e-05,-1.000000000000000082e-05,-1.300000000000000157e-04,-4.000000000000000327e-05,2.000000000000000000e+00,3.000000000000000000e+00
4.149000000000000000e+03,2.999999999999999737e-05,2.000000000000000164e-05,-6.999999999999999387e-05,-2.000000000000000164e-05,-1.000000000000000082e-05,-1.000000000000000082e-05,-1.300000000000000157e-04,-4.000000000000000327e-05,2.000000000000000000e+00,3.000000000000000000e+00
4.150000000000000000e+03,2.999999999999999737e-05,2.000000000000000164e-05,-6.999999999999999387e-05,-2.000000000000000164e-05,-1.000000000000000082e-05,-1.000000000000000082e-05,-1.300000000000000157e-04,-4.000000000000000327e-05,2.000000000000000000e+00,3.000000000000000000e+00
4.151000000000000000e+03,2.999999999999999737e-05,2.000000000000000164e-05,-6.999999999999999387e-05,-2.000000000000000164e-05,-1.000000000000000082e-05,-1.000000000000000082e-05,-1.300000000000000157e-04,-4.000000000000000327e-05,2.000000000000000000e+00,3.000000000000000000e+00
4.152000000000000000e+03,2.999999999999999737e-05,2.000000000000000164e-05,-6.999999999999999387e-05,-2.000000000000000164e-05,-1.000000000000000082e-05,-1.000000000000000082e-05,-1.300000000000000157e-04,-4.000000000000000327e-05,2.000000000000000000e+00,3.000000000000000000e+00
4.153000000000000000e+03,2.999999999999999737e-05,2.000000000000000164e-05,-6.999999999999999387e-05,-2.000000000000000164e-05,-1.000000000000000082e-05,-1.000000000000000082e-05,-1.300000000000000157e-04,-4.000000000000000327e-05,2.000000000000000000e+00,3.000000000000000000e+00
4.154000000000000000e+03,2.999999999999999737e-05,2.000000000000000164e-05,-6.999999999999999387e-05,-2.000000000000000164e-05,-1.000000000000000082e-05,-1.000000000000000082e-05,-1.300000000000000157e-04,-4.000000000000000327e-05,2.000000000000000000e+00,3.000000000000000000e+00
4.155000000000000000e+03,2.999999999999999737e-05,2.000000000000000164e-05,-6.999999999999999387e-05,-2.000000000000000164e-05,-1.000000000000000082e-05,-1.000000000000000082e-05,-1.300000000000000157e-04,-4.000000000000000327e-05,2.000000000000000000e+00,3.000000000000000000e+00
4.156000000000000000e+03,2.999999999999999737e-05,2.000000000000000164e-05,-6.999999999999999387e-05,-2.000000000000000164e-05,-1.000000000000000082e-05,-1.000000000000000082e-05,-1.300000000000000157e-04,-4.000000000000000327e-05,2.000000000000000000e+00,3.000000000000000000e+00
4.157000000000000000e+03,2.999999999999999737e-05,2.000000000000000164e-05,-6.999999999999999387e-05,-2.000000000000000164e-05,-1.000000000000000082e-05,-1.000000000000000082e-05,-1.300000000000000157e-04,-4.000000000000000327e-05,2.000000000000000000e+00,3.000000000000000000e+00
4.158000000000000000e+03,-5.000000000000000240e-05,2.000000000000000164e-05,4.000000000000000327e-05,1.300000000000000157e-04,5.000000000000000240e-05,-9.000000000000000567e-05,5.999999999999999474e-05,-5.000000000000000240e-05,2.000000000000000000e+00,3.000000000000000000e+00
4.159000000000000000e+03,-5.000000000000000240e-05,2.000000000000000164e-05,4.000000000000000327e-05,1.300000000000000157e-04,5.000000000000000240e-05,-9.000000000000000567e-05,5.999999999999999474e-05,-5.000000000000000240e-05,2.000000000000000000e+00,3.000000000000000000e+00
4.160000000000000000e+03,2.999999999999999737e-05,-5.000000000000000240e-05,-3.499999999999999964e-04,-5.299999999999999807e-04,-1.100000000000000039e-04,4.000000000000000327e-05,6.999999999999999387e-05,1.000000000000000082e-05,2.000000000000000000e+00,3.000000000000000000e+00
4.161000000000000000e+03,2.999999999999999737e-05,-5.000000000000000240e-05,-3.499999999999999964e-04,-5.299999999999999807e-04,-1.100000000000000039e-04,4.000000000000000327e-05,6.999999999999999387e-05,1.000000000000000082e-05,2.000000000000000000e+00,3.000000000000000000e+00
4.162000000000000000e+03,2.999999999999999737e-05,-5.000000000000000240e-05,-3.499999999999999964e-04,-5.299999999999999807e-04,-1.100000000000000039e-04,4.000000000000000327e-05,6.999999999999999387e-05,1.000000000000000082e-05,2.000000000000000000e+00,3.000000000000000000e+00
4.163000000000000000e+03,2.999999999999999737e-05,-5.000000000000000240e-05,-3.499999999999999964e-04,-5.299999999999999807e-04,-1.100000000000000039e-04,4.000000000000000327e-05,6.999999999999999387e-05,1.000000000000000082e-05,2.000000000000000000e+00,3.000000000000000000e+00
4.164000000000000000e+03,2.999999999999999737e-05,-5.000000000000000240e-05,-3.499999999999999964e-04,-5.299999999999999807e-04,-1.100000000000000039e-04,4.000000000000000327e-05,6.999999999999999387e-05,1.000000000000000082e-05,2.000000000000000000e+00,3.000000000000000000e+00
4.165000000000000000e+03,2.999999999999999737e-05,-5.000000000000000240e-05,-3.499999999999999964e-04,-5.299999999999999807e-04,-1.100000000000000039e-04,4.000000000000000327e-05,6.999999999999999387e-05,1.000000000000000082e-05,2.000000000000000000e+00,3.000000000000000000e+00
4.166000000000000000e+03,2.999999999999999737e-05,-5.000000000000000240e-05,-3.499999999999999964e-04,-5.299999999999999807e-04,-1.100000000000000039e-04,4.000000000000000327e-05,6.999999999999999387e-05,1.000000000000000082e-05,2.000000000000000000e+00,3.000000000000000000e+00
4.167000000000000000e+03,2.999999999999999737e-05,-5.000000000000000240e-05,-3.499999999999999964e-04,-5.299999999999999807e-04,-1.100000000000000039e-04,4.000000000000000327e-05,6.999999999999999387e-05,1.000000000000000082e-05,2.000000000000000000e+00,3.000000000000000000e+00
4.168000000000000000e+03,2.999999999999999737e-05,-5.000000000000000240e-05,-3.499999999999999964e-04,-5.299999999999999807e-04,-1.100000000000000039e-04,4.000000000000000327e-05,6.999999999999999387e-05,1.000000000000000082e-05,2.000000000000000000e+00,3.000000000000000000e+00
4.169000000000000000e+03,2.999999999999999737e-05,-5.000000000000000240e-05,-3.499999999999999964e-04,-5.299999999999999807e-04,-1.100000000000000039e-04,4.000000000000000327e-05,6.999999999999999387e-05,1.000000000000000082e-05,2.000000000000000000e+00,3.000000000000000000e+00
4.170000000000000000e+03,2.999999999999999737e-05,-5.000000000000000240e-05,-3.499999999999999964e-04,-5.299999999999999807e-04,-1.100000000000000039e-04,4.000000000000000327e-05,6.999999999999999387e-05,1.000000000000000082e-05,2.000000000000000000e+00,3.000000000000000000e+00
4.171000000000000000e+03,2.999999999999999737e-05,-5.000000000000000240e-05,-3.499999999999999964e-04,-5.299999999999999807e-04,-1.100000000000000039e-04,4.000000000000000327e-05,6.999999999999999387e-05,1.000000000000000082e-05,2.000000000000000000e+00,3.000000000000000000e+00
4.172000000000000000e+03,2.999999999999999737e-05,-5.000000000000000240e-05,-3.499999999999999964e-04,-5.299999999999999807e-04,-1.100000000000000039e-04,4.000000000000000327e-05,6.999999999999999387e-05,1.000000000000000082e-05,2.000000000000000000e+00,3.000000000000000000e+00
4.173000000000000000e+03,2.999999999999999737e-05,-5.000000000000000240e-05,-3.499999999999999964e-04,-5.299999999999999807e-04,-1.100000000000000039e-04,4.000000000000000327e-05,6.999999999999999387e-05,1.000000000000000082e-05,2.000000000000000000e+00,3.000000000000000000e+00
4.174000000000000000e+03,2.999999999999999737e-05,-5.000000000000000240e-05,-3.499999999999999964e-04,-5.299999999999999807e-04,-1.100000000000000039e-04,4.000000000000000327e-05,6.999999999999999387e-05,1.000000000000000082e-05,2.000000000000000000e+00,3.000000000000000000e+00
4.175000000000000000e+03,2.999999999999999737e-05,-5.000000000000000240e-05,-3.499999999999999964e-04,-5.299999999999999807e-04,-1.100000000000000039e-04,4.000000000000000327e-05,6.999999999999999387e-05,1.000000000000000082e-05,2.000000000000000000e+00,3.000000000000000000e+00
4.176000000000000000e+03,2.999999999999999737e-05,-5.000000000000000240e-05,-3.499999999999999964e-04,-5.299999999999999807e-04,-1.100000000000000039e-04,4.000000000000000327e-05,6.999999999999999387e-05,1.000000000000000082e-05,2.000000000000000000e+00,3.000000000000000000e+00
4.177000000000000000e+03,2.999999999999999737e-05,-5.000000000000000240e-05,-3.499999999999999964e-04,-5.299999999999999807e-04,-1.100000000000000039e-04,4.000000000000000327e-05,6.999999999999999387e-05,1.000000000000000082e-05,2.000000000000000000e+00,3.000000000000000000e+00
4.178000000000000000e+03,2.999999999999999737e-05,-5.000000000000000240e-05,-3.499999999999999964e-04,-5.299999999999999807e-04,-1.100000000000000039e-04,4.000000000000000327e-05,6.999999999999999387e-05,1.000000000000000082e-05,2.000000000000000000e+00,3.000000000000000000e+00
4.179000000000000000e+03,2.999999999999999737e-05,-5.000000000000000240e-05,-3.499999999999999964e-04,-5.299999999999999807e-04,-1.100000000000000039e-04,4.000000000000000327e-05,6.999999999999999387e-05,1.000000000000000082e-05,2.000000000000000000e+00,3.000000000000000000e+00
4.180000000000000000e+03,-6.999999999999999387e-05,-2.999999999999999737e-05,4.000000000000000327e-05,-6.999999999999999387e-05,-6.999999999999999387e-05,-4.000000000000000327e-05,-3.299999999999999982e-04,-1.100000000000000039e-04,2.000000000000000000e+00,3.000000000000000000e+00
4.181000000000000000e+03,-6.999999999999999387e-05,-2.999999999999999737e-05,4.000000000000000327e-05,-6.999999999999999387e-05,-6.999999999999999387e-05,-4.000000000000000327e-05,-3.299999999999999982e-04,-1.100000000000000039e-04,2.000000000000000000e+00,3.000000000000000000e+00
4.182000000000000000e+03,2.399999999999999790e-04,1.199999999999999895e-04,2.299999999999999799e-04,9.000000000000000567e-05,5.999999999999999474e-05,1.499999999999999869e-04,5.400000000000000069e-04,1.699999999999999851e-04,2.000000000000000000e+00,3.000000000000000000e+00
4.183000000000000000e+03,2.399999999999999790e-04,1.199999999999999895e-04,2.299999999999999799e-04,9.000000000000000567e-05,5.999999999999999474e-05,1.499999999999999869e-04,5.400000000000000069e-04,1.699999999999999851e-04,2.000000000000000000e+00,3.000000000000000000e+00
4.184000000000000000e+03,2.399999999999999790e-04,1.199999999999999895e-04,2.299999999999999799e-04,9.000000000000000567e-05,5.999999999999999474e-05,1.499999999999999869e-04,5.400000000000000069e-04,1.699999999999999851e-04,2.000000000000000000e+00,3.000000000000000000e+00
4.185000000000000000e+03,2.399999999999999790e-04,1.199999999999999895e-04,2.299999999999999799e-04,9.000000000000000567e-05,5.999999999999999474e-05,1.499999999999999869e-04,5.400000000000000069e-04,1.699999999999999851e-04,2.000000000000000000e+00,3.000000000000000000e+00
4.186000000000000000e+03,2.399999999999999790e-04,1.199999999999999895e-04,2.299999999999999799e-04,9.000000000000000567e-05,5.999999999999999474e-05,1.499999999999999869e-04,5.400000000000000069e-04,1.699999999999999851e-04,2.000000000000000000e+00,3.000000000000000000e+00
4.188000000000000000e+03,2.399999999999999790e-04,1.199999999999999895e-04,2.299999999999999799e-04,9.000000000000000567e-05,5.999999999999999474e-05,1.499999999999999869e-04,5.400000000000000069e-04,1.699999999999999851e-04,2.000000000000000000e+00,3.000000000000000000e+00
4.189000000000000000e+03,2.399999999999999790e-04,1.199999999999999895e-04,2.299999999999999799e-04,9.000000000000000567e-05,5.999999999999999474e-05,1.499999999999999869e-04,5.400000000000000069e-04,1.699999999999999851e-04,2.000000000000000000e+00,3.000000000000000000e+00
4.190000000000000000e+03,2.399999999999999790e-04,1.199999999999999895e-04,2.299999999999999799e-04,9.000000000000000567e-05,5.999999999999999474e-05,1.499999999999999869e-04,5.400000000000000069e-04,1.699999999999999851e-04,2.000000000000000000e+00,3.000000000000000000e+00
4.191000000000000000e+03,2.399999999999999790e-04,1.199999999999999895e-04,2.299999999999999799e-04,9.000000000000000567e-05,5.999999999999999474e-05,1.499999999999999869e-04,5.400000000000000069e-04,1.699999999999999851e-04,2.000000000000000000e+00,3.000000000000000000e+00
4.192000000000000000e+03,2.399999999999999790e-04,1.199999999999999895e-04,2.299999999999999799e-04,9.000000000000000567e-05,5.999999999999999474e-05,1.499999999999999869e-04,5.400000000000000069e-04,1.699999999999999851e-04,2.000000000000000000e+00,3.000000000000000000e+00
4.193000000000000000e+03,2.399999999999999790e-04,1.199999999999999895e-04,2.299999999999999799e-04,9.000000000000000567e-05,5.999999999999999474e-05,1.499999999999999869e-04,5.400000000000000069e-04,1.699999999999999851e-04,2.000000000000000000e+00,3.000000000000000000e+00
4.194000000000000000e+03,2.399999999999999790e-04,1.199999999999999895e-04,2.299999999999999799e-04,9.000000000000000567e-05,5.999999999999999474e-05,1.499999999999999869e-04,5.400000000000000069e-04,1.699999999999999851e-04,2.000000000000000000e+00,3.000000000000000000e+00
4.195000000000000000e+03,5.999999999999999474e-05,-2.999999999999999737e-05,-1.499999999999999869e-04,-2.100000000000000087e-04,-1.199999999999999895e-04,-8.000000000000000654e-05,-2.000000000000000164e-05,0.000000000000000000e+00,2.000000000000000000e+00,3.000000000000000000e+00
4.196000000000000000e+03,5.999999999999999474e-05,-2.999999999999999737e-05,-1.499999999999999869e-04,-2.100000000000000087e-04,-1.199999999999999895e-04,-8.000000000000000654e-05,-2.000000000000000164e-05,0.000000000000000000e+00,2.000000000000000000e+00,3.000000000000000000e+00
4.197000000000000000e+03,-1.000000000000000048e-04,-9.000000000000000567e-05,-5.999999999999999474e-05,1.000000000000000082e-05,-1.000000000000000082e-05,-1.499999999999999869e-04,-2.600000000000000314e-04,-8.000000000000000654e-05,2.000000000000000000e+00,3.000000000000000000e+00
4.198000000000000000e+03,-1.000000000000000048e-04,-9.000000000000000567e-05,-5.999999999999999474e-05,1.000000000000000082e-05,-1.000000000000000082e-05,-1.499999999999999869e-04,-2.600000000000000314e-04,-8.000000000000000654e-05,2.000000000000000000e+00,3.000000000000000000e+00
4.199000000000000000e+03,-1.000000000000000048e-04,-9.000000000000000567e-05,-5.999999999999999474e-05,1.000000000000000082e-05,-1.000000000000000082e-05,-1.499999999999999869e-04,-2.600000000000000314e-04,-8.000000000000000654e-05,2.000000000000000000e+00,3.000000000000000000e+00
4.200000000000000000e+03,-1.000000000000000048e-04,-9.000000000000000567e-05,-5.999999999999999474e-05,1.000000000000000082e-05,-1.000000000000000082e-05,-1.499999999999999869e-04,-2.600000000000000314e-04,-8.000000000000000654e-05,2.000000000000000000e+00,3.000000000000000000e+00
4.201000000000000000e+03,-1.000000000000000048e-04,-9.000000000000000567e-05,-5.999999999999999474e-05,1.000000000000000082e-05,-1.000000000000000082e-05,-1.499999999999999869e-04,-2.600000000000000314e-04,-8.000000000000000654e-05,2.000000000000000000e+00,3.000000000000000000e+00
4.202000000000000000e+03,-1.000000000000000048e-04,-9.000000000000000567e-05,-5.999999999999999474e-05,1.000000000000000082e-05,-1.000000000000000082e-05,-1.499999999999999869e-04,-2.600000000000000314e-04,-8.000000000000000654e-05,2.000000000000000000e+00,3.000000000000000000e+00
4.203000000000000000e+03,-1.000000000000000048e-04,-9.000000000000000567e-05,-5.999999999999999474e-05,1.000000000000000082e-05,-1.000000000000000082e-05,-1.499999999999999869e-04,-2.600000000000000314e-04,-8.000000000000000654e-05,2.000000000000000000e+00,3.000000000000000000e+00
4.204000000000000000e+03,-1.000000000000000048e-04,-9.000000000000000567e-05,-5.999999999999999474e-05,1.000000000000000082e-05,-1.000000000000000082e-05,-1.499999999999999869e-04,-2.600000000000000314e-04,-8.000000000000000654e-05,2.000000000000000000e+00,3.000000000000000000e+00
4.205000000000000000e+03,-1.000000000000000048e-04,-9.000000000000000567e-05,-5.999999999999999474e-05,1.000000000000000082e-05,-1.000000000000000082e-05,-1.499999999999999869e-04,-2.600000000000000314e-04,-8.000000000000000654e-05,2.000000000000000000e+00,3.000000000000000000e+00
4.206000000000000000e+03,-1.000000000000000048e-04,-9.000000000000000567e-05,-5.999999999999999474e-05,1.000000000000000082e-05,-1.000000000000000082e-05,-1.499999999999999869e-04,-2.600000000000000314e-04,-8.000000000000000654e-05,2.000000000000000000e+00,3.000000000000000000e+00
4.207000000000000000e+03,-1.000000000000000048e-04,-9.000000000000000567e-05,-5.999999999999999474e-05,1.000000000000000082e-05,-1.000000000000000082e-05,-1.499999999999999869e-04,-2.600000000000000314e-04,-8.000000000000000654e-05,2.000000000000000000e+00,3.000000000000000000e+00
4.208000000000000000e+03,-1.000000000000000048e-04,-9.000000000000000567e-05,-5.999999999999999474e-05,1.000000000000000082e-05,-1.000000000000000082e-05,-1.499999999999999869e-04,-2.600000000000000314e-04,-8.000000000000000654e-05,2.000000000000000000e+00,3.000000000000000000e+00
4.209000000000000000e+03,-1.000000000000000048e-04,-9.000000000000000567e-05,-5.999999999999999474e-05,1.000000000000000082e-05,-1.000000000000000082e-05,-1.499999999999999869e-04,-2.600000000000000314e-04,-8.000000000000000654e-05,2.000000000000000000e+00,3.000000000000000000e+00
4.210000000000000000e+03,-1.000000000000000048e-04,-9.000000000000000567e-05,-5.999999999999999474e-05,1.000000000000000082e-05,-1.000000000000000082e-05,-1.499999999999999869e-04,-2.600000000000000314e-04,-8.000000000000000654e-05,2.000000000000000000e+00,3.000000000000000000e+00
4.211000000000000000e+03,-1.000000000000000048e-04,-9.000000000000000567e-05,-5.999999999999999474e-05,1.000000000000000082e-05,-1.000000000000000082e-05,-1.499999999999999869e-04,-2.600000000000000314e-04,-8.000000000000000654e-05,2.000000000000000000e+00,3.000000000000000000e+00
4.212000000000000000e+03,-1.000000000000000048e-04,-9.000000000000000567e-05,-5.999999999999999474e-05,1.000000000000000082e-05,-1.000000000000000082e-05,-1.499999999999999869e-04,-2.600000000000000314e-04,-8.000000000000000654e-05,2.000000000000000000e+00,3.000000000000000000e+00
4.213000000000000000e+03,-1.000000000000000048e-04,-9.000000000000000567e-05,-5.999999999999999474e-05,1.000000000000000082e-05,-1.000000000000000082e-05,-1.499999999999999869e-04,-2.600000000000000314e-04,-8.000000000000000654e-05,2.000000000000000000e+00,3.000000000000000000e+00
4.214000000000000000e+03,-1.000000000000000048e-04,-9.000000000000000567e-05,-5.999999999999999474e-05,1.000000000000000082e-05,-1.000000000000000082e-05,-1.499999999999999869e-04,-2.600000000000000314e-04,-8.000000000000000654e-05,2.000000000000000000e+00,3.000000000000000000e+00
4.215000000000000000e+03,-1.000000000000000048e-04,-9.000000000000000567e-05,-5.999999999999999474e-05,1.000000000000000082e-05,-1.000000000000000082e-05,-1.499999999999999869e-04,-2.600000000000000314e-04,-8.000000000000000654e-05,2.000000000000000000e+00,3.000000000000000000e+00
4.216000000000000000e+03,-1.000000000000000048e-04,-9.000000000000000567e-05,-5.999999999999999474e-05,1.000000000000000082e-05,-1.000000000000000082e-05,-1.499999999999999869e-04,-2.600000000000000314e-04,-8.000000000000000654e-05,2.000000000000000000e+00,3.000000000000000000e+00
4.217000000000000000e+03,-1.000000000000000048e-04,-9.000000000000000567e-05,-5.999999999999999474e-05,1.000000000000000082e-05,-1.000000000000000082e-05,-1.499999999999999869e-04,-2.600000000000000314e-04,-8.000000000000000654e-05,2.000000000000000000e+00,3.000000000000000000e+00
4.218000000000000000e+03,8.000000000000000654e-05,6.999999999999999387e-05,1.499999999999999869e-04,1.399999999999999877e-04,4.000000000000000327e-05,1.000000000000000082e-05,-5.000000000000000240e-05,5.000000000000000240e-05,2.000000000000000000e+00,3.000000000000000000e+00
4.219000000000000000e+03,2.999999999999999737e-05,-2.000000000000000164e-05,-1.800000000000000113e-04,-4.000000000000000327e-05,-2.000000000000000164e-05,-4.000000000000000327e-05,1.000000000000000048e-04,-2.000000000000000164e-05,2.000000000000000000e+00,3.000000000000000000e+00
4.220000000000000000e+03,-1.100000000000000039e-04,-5.000000000000000240e-05,1.499999999999999869e-04,-1.300000000000000157e-04,-1.100000000000000039e-04,2.000000000000000164e-05,-2.399999999999999790e-04,-5.000000000000000240e-05,2.000000000000000000e+00,3.000000000000000000e+00
4.221000000000000000e+03,-1.100000000000000039e-04,-5.000000000000000240e-05,1.499999999999999869e-04,-1.300000000000000157e-04,-1.100000000000000039e-04,2.000000000000000164e-05,-2.399999999999999790e-04,-5.000000000000000240e-05,2.000000000000000000e+00,3.000000000000000000e+00
4.222000000000000000e+03,-1.100000000000000039e-04,-5.000000000000000240e-05,1.499999999999999869e-04,-1.300000000000000157e-04,-1.100000000000000039e-04,2.000000000000000164e-05,-2.399999999999999790e-04,-5.000000000000000240e-05,2.000000000000000000e+00,3.000000000000000000e+00
4.223000000000000000e+03,-1.100000000000000039e-04,-5.000000000000000240e-05,1.499999999999999869e-04,-1.300000000000000157e-04,-1.100000000000000039e-04,2.000000000000000164e-05,-2.399999999999999790e-04,-5.000000000000000240e-05,2.000000000000000000e+00,3.000000000000000000e+00
4.224000000000000000e+03,-1.100000000000000039e-04,-5.000000000000000240e-05,1.499999999999999869e-04,-1.300000000000000157e-04,-1.100000000000000039e-04,2.000000000000000164e-05,-2.399999999999999790e-04,-5.000000000000000240e-05,2.000000000000000000e+00,3.000000000000000000e+00
4.225000000000000000e+03,-1.100000000000000039e-04,-5.000000000000000240e-05,1.499999999999999869e-04,-1.300000000000000157e-04,-1.100000000000000039e-04,2.000000000000000164e-05,-2.399999999999999790e-04,-5.000000000000000240e-05,2.000000000000000000e+00,3.000000000000000000e+00
4.226000000000000000e+03,-1.100000000000000039e-04,-5.000000000000000240e-05,1.499999999999999869e-04,-1.300000000000000157e-04,-1.100000000000000039e-04,2.000000000000000164e-05,-2.399999999999999790e-04,-5.000000000000000240e-05,2.000000000000000000e+00,3.000000000000000000e+00
4.227000000000000000e+03,-1.100000000000000039e-04,-5.000000000000000240e-05,1.499999999999999869e-04,-1.300000000000000157e-04,-1.100000000000000039e-04,2.000000000000000164e-05,-2.399999999999999790e-04,-5.000000000000000240e-05,2.000000000000000000e+00,3.000000000000000000e+00
4.228000000000000000e+03,-1.100000000000000039e-04,-5.000000000000000240e-05,1.499999999999999869e-04,-1.300000000000000157e-04,-1.100000000000000039e-04,2.000000000000000164e-05,-2.399999999999999790e-04,-5.000000000000000240e-05,2.000000000000000000e+00,3.000000000000000000e+00
4.229000000000000000e+03,-1.100000000000000039e-04,-5.000000000000000240e-05,1.499999999999999869e-04,-1.300000000000000157e-04,-1.100000000000000039e-04,2.000000000000000164e-05,-2.399999999999999790e-04,-5.000000000000000240e-05,2.000000000000000000e+00,3.000000000000000000e+00
4.230000000000000000e+03,-1.100000000000000039e-04,-5.000000000000000240e-05,1.499999999999999869e-04,-1.300000000000000157e-04,-1.100000000000000039e-04,2.000000000000000164e-05,-2.399999999999999790e-04,-5.000000000000000240e-05,2.000000000000000000e+00,3.000000000000000000e+00
4.231000000000000000e+03,-1.100000000000000039e-04,-5.000000000000000240e-05,1.499999999999999869e-04,-1.300000000000000157e-04,-1.100000000000000039e-04,2.000000000000000164e-05,-2.399999999999999790e-04,-5.000000000000000240e-05,2.000000000000000000e+00,3.000000000000000000e+00
4.232000000000000000e+03,-1.100000000000000039e-04,-5.000000000000000240e-05,1.499999999999999869e-04,-1.300000000000000157e-04,-1.100000000000000039e-04,2.000000000000000164e-05,-2.399999999999999790e-04,-5.000000000000000240e-05,2.000000000000000000e+00,3.000000000000000000e+00
4.233000000000000000e+03,-1.100000000000000039e-04,-5.000000000000000240e-05,1.499999999999999869e-04,-1.300000000000000157e-04,-1.100000000000000039e-04,2.000000000000000164e-05,-2.399999999999999790e-04,-5.000000000000000240e-05,2.000000000000000000e+00,3.000000000000000000e+00
4.234000000000000000e+03,-1.100000000000000039e-04,-5.000000000000000240e-05,1.499999999999999869e-04,-1.300000000000000157e-04,-1.100000000000000039e-04,2.000000000000000164e-05,-2.399999999999999790e-04,-5.000000000000000240e-05,2.000000000000000000e+00,3.000000000000000000e+00
4.235000000000000000e+03,-1.100000000000000039e-04,-5.000000000000000240e-05,1.499999999999999869e-04,-1.300000000000000157e-04,-1.100000000000000039e-04,2.000000000000000164e-05,-2.399999999999999790e-04,-5.000000000000000240e-05,2.000000000000000000e+00,3.000000000000000000e+00
4.236000000000000000e+03,-1.100000000000000039e-04,-5.000000000000000240e-05,1.499999999999999869e-04,-1.300000000000000157e-04,-1.100000000000000039e-04,2.000000000000000164e-05,-2.399999999999999790e-04,-5.000000000000000240e-05,2.000000000000000000e+00,3.000000000000000000e+00
4.238000000000000000e+03,-1.100000000000000039e-04,-5.000000000000000240e-05,1.499999999999999869e-04,-1.300000000000000157e-04,-1.100000000000000039e-04,2.000000000000000164e-05,-2.399999999999999790e-04,-5.000000000000000240e-05,2.000000000000000000e+00,3.000000000000000000e+00
4.239000000000000000e+03,-1.100000000000000039e-04,-5.000000000000000240e-05,1.499999999999999869e-04,-1.300000000000000157e-04,-1.100000000000000039e-04,2.000000000000000164e-05,-2.399999999999999790e-04,-5.000000000000000240e-05,2.000000000000000000e+00,3.000000000000000000e+00
4.240000000000000000e+03,-1.100000000000000039e-04,-1.000000000000000048e-04,-8.000000000000000654e-05,-6.999999999999999387e-05,-2.999999999999999737e-05,-1.100000000000000039e-04,-1.600000000000000131e-04,-1.100000000000000039e-04,2.000000000000000000e+00,3.000000000000000000e+00
4.241000000000000000e+03,-1.100000000000000039e-04,-1.000000000000000048e-04,-8.000000000000000654e-05,-6.999999999999999387e-05,-2.999999999999999737e-05,-1.100000000000000039e-04,-1.600000000000000131e-04,-1.100000000000000039e-04,2.000000000000000000e+00,3.000000000000000000e+00
4.242000000000000000e+03,-1.000000000000000082e-05,1.000000000000000082e-05,2.000000000000000096e-04,9.000000000000000567e-05,2.999999999999999737e-05,2.000000000000000096e-04,-6.999999999999999387e-05,-2.999999999999999737e-05,2.000000000000000000e+00,3.000000000000000000e+00
4.243000000000000000e+03,-1.000000000000000082e-05,1.000000000000000082e-05,2.000000000000000096e-04,9.000000000000000567e-05,2.999999999999999737e-05,2.000000000000000096e-04,-6.999999999999999387e-05,-2.999999999999999737e-05,2.000000000000000000e+00,3.000000000000000000e+00
4.244000000000000000e+03,-1.000000000000000082e-05,1.000000000000000082e-05,2.000000000000000096e-04,9.000000000000000567e-05,2.999999999999999737e-05,2.000000000000000096e-04,-6.999999999999999387e-05,-2.999999999999999737e-05,2.000000000000000000e+00,3.000000000000000000e+00
4.245000000000000000e+03,-1.000000000000000082e-05,1.000000000000000082e-05,2.000000000000000096e-04,9.000000000000000567e-05,2.999999999999999737e-05,2.000000000000000096e-04,-6.999999999999999387e-05,-2.999999999999999737e-05,2.000000000000000000e+00,3.000000000000000000e+00
4.246000000000000000e+03,-1.000000000000000082e-05,1.000000000000000082e-05,2.000000000000000096e-04,9.000000000000000567e-05,2.999999999999999737e-05,2.000000000000000096e-04,-6.999999999999999387e-05,-2.999999999999999737e-05,2.000000000000000000e+00,3.000000000000000000e+00
4.247000000000000000e+03,-1.000000000000000082e-05,1.000000000000000082e-05,2.000000000000000096e-04,9.000000000000000567e-05,2.999999999999999737e-05,2.000000000000000096e-04,-6.999999999999999387e-05,-2.999999999999999737e-05,2.000000000000000000e+00,3.000000000000000000e+00
4.248000000000000000e+03,-1.000000000000000082e-05,1.000000000000000082e-05,2.000000000000000096e-04,9.000000000000000567e-05,2.999999999999999737e-05,2.000000000000000096e-04,-6.999999999999999387e-05,-2.999999999999999737e-05,2.000000000000000000e+00,3.000000000000000000e+00
4.249000000000000000e+03,-1.000000000000000082e-05,1.000000000000000082e-05,2.000000000000000096e-04,9.000000000000000567e-05,2.999999999999999737e-05,2.000000000000000096e-04,-6.999999999999999387e-05,-2.999999999999999737e-05,2.000000000000000000e+00,3.000000000000000000e+00
4.250000000000000000e+03,-1.000000000000000082e-05,1.000000000000000082e-05,2.000000000000000096e-04,9.000000000000000567e-05,2.999999999999999737e-05,2.000000000000000096e-04,-6.999999999999999387e-05,-2.999999999999999737e-05,2.000000000000000000e+00,3.000000000000000000e+00
4.251000000000000000e+03,-1.000000000000000082e-05,1.000000000000000082e-05,2.000000000000000096e-04,9.000000000000000567e-05,2.999999999999999737e-05,2.000000000000000096e-04,-6.999999999999999387e-05,-2.999999999999999737e-05,2.000000000000000000e+00,3.000000000000000000e+00
4.252000000000000000e+03,-1.000000000000000082e-05,1.000000000000000082e-05,2.000000000000000096e-04,9.000000000000000567e-05,2.999999999999999737e-05,2.000000000000000096e-04,-6.999999999999999387e-05,-2.999999999999999737e-05,2.000000000000000000e+00,3.000000000000000000e+00
4.254000000000000000e+03,-1.000000000000000082e-05,1.000000000000000082e-05,2.000000000000000096e-04,9.000000000000000567e-05,2.999999999999999737e-05,2.000000000000000096e-04,-6.999999999999999387e-05,-2.999999999999999737e-05,2.000000000000000000e+00,3.000000000000000000e+00
4.255000000000000000e+03,-1.000000000000000082e-05,1.000000000000000082e-05,2.000000000000000096e-04,9.000000000000000567e-05,2.999999999999999737e-05,2.000000000000000096e-04,-6.999999999999999387e-05,-2.999999999999999737e-05,2.000000000000000000e+00,3.000000000000000000e+00
4.256000000000000000e+03,5.999999999999999474e-05,1.000000000000000082e-05,-9.000000000000000567e-05,2.000000000000000164e-05,-2.999999999999999737e-05,-1.100000000000000039e-04,-2.700000000000000035e-04,-5.000000000000000240e-05,2.000000000000000000e+00,3.000000000000000000e+00
4.257000000000000000e+03,5.999999999999999474e-05,1.000000000000000082e-05,-9.000000000000000567e-05,2.000000000000000164e-05,-2.999999999999999737e-05,-1.100000000000000039e-04,-2.700000000000000035e-04,-5.000000000000000240e-05,2.000000000000000000e+00,3.000000000000000000e+00
4.258000000000000000e+03,5.999999999999999474e-05,1.000000000000000082e-05,-9.000000000000000567e-05,2.000000000000000164e-05,-2.999999999999999737e-05,-1.100000000000000039e-04,-2.700000000000000035e-04,-5.000000000000000240e-05,2.000000000000000000e+00,3.000000000000000000e+00
4.259000000000000000e+03,5.999999999999999474e-05,1.000000000000000082e-05,-9.000000000000000567e-05,2.000000000000000164e-05,-2.999999999999999737e-05,-1.100000000000000039e-04,-2.700000000000000035e-04,-5.000000000000000240e-05,2.000000000000000000e+00,3.000000000000000000e+00
4.260000000000000000e+03,5.999999999999999474e-05,1.000000000000000082e-05,-9.000000000000000567e-05,2.000000000000000164e-05,-2.999999999999999737e-05,-1.100000000000000039e-04,-2.700000000000000035e-04,-5.000000000000000240e-05,2.000000000000000000e+00,3.000000000000000000e+00
4.261000000000000000e+03,-1.000000000000000082e-05,6.999999999999999387e-05,-2.999999999999999737e-05,-5.999999999999999474e-05,2.000000000000000164e-05,2.999999999999999737e-05,-8.000000000000000654e-05,-1.000000000000000082e-05,2.000000000000000000e+00,3.000000000000000000e+00
4.262000000000000000e+03,-1.000000000000000082e-05,6.999999999999999387e-05,-2.999999999999999737e-05,-5.999999999999999474e-05,2.000000000000000164e-05,2.999999999999999737e-05,-8.000000000000000654e-05,-1.000000000000000082e-05,2.000000000000000000e+00,3.000000000000000000e+00
4.263000000000000000e+03,-1.000000000000000082e-05,6.999999999999999387e-05,-2.999999999999999737e-05,-5.999999999999999474e-05,2.000000000000000164e-05,2.999999999999999737e-05,-8.000000000000000654e-05,-1.000000000000000082e-05,2.000000000000000000e+00,3.000000000000000000e+00
4.264000000000000000e+03,-1.000000000000000082e-05,6.999999999999999387e-05,-2.999999999999999737e-05,-5.999999999999999474e-05,2.000000000000000164e-05,2.999999999999999737e-05,-8.000000000000000654e-05,-1.000000000000000082e-05,2.000000000000000000e+00,3.000000000000000000e+00
4.265000000000000000e+03,-1.000000000000000082e-05,6.999999999999999387e-05,-2.999999999999999737e-05,-5.999999999999999474e-05,2.000000000000000164e-05,2.999999999999999737e-05,-8.000000000000000654e-05,-1.000000000000000082e-05,2.000000000000000000e+00,3.000000000000000000e+00
4.266000000000000000e+03,-1.000000000000000082e-05,6.999999999999999387e-05,-2.999999999999999737e-05,-5.999999999999999474e-05,2.000000000000000164e-05,2.999999999999999737e-05,-8.000000000000000654e-05,-1.000000000000000082e-05,2.000000000000000000e+00,3.000000000000000000e+00
4.267000000000000000e+03,-1.000000000000000082e-05,6.999999999999999387e-05,-2.999999999999999737e-05,-5.999999999999999474e-05,2.000000000000000164e-05,2.999999999999999737e-05,-8.000000000000000654e-05,-1.000000000000000082e-05,2.000000000000000000e+00,3.000000000000000000e+00
4.268000000000000000e+03,-1.000000000000000082e-05,6.999999999999999387e-05,-2.999999999999999737e-05,-5.999999999999999474e-05,2.000000000000000164e-05,2.999999999999999737e-05,-8.000000000000000654e-05,-1.000000000000000082e-05,2.000000000000000000e+00,3.000000000000000000e+00
4.269000000000000000e+03,-1.000000000000000082e-05,6.999999999999999387e-05,-2.999999999999999737e-05,-5.999999999999999474e-05,2.000000000000000164e-05,2.999999999999999737e-05,-8.000000000000000654e-05,-1.000000000000000082e-05,2.000000000000000000e+00,3.000000000000000000e+00
4.270000000000000000e+03,-1.000000000000000082e-05,6.999999999999999387e-05,-2.999999999999999737e-05,-5.999999999999999474e-05,2.000000000000000164e-05,2.999999999999999737e-05,-8.000000000000000654e-05,-1.000000000000000082e-05,2.000000000000000000e+00,3.000000000000000000e+00
4.271000000000000000e+03,-1.000000000000000082e-05,6.999999999999999387e-05,-2.999999999999999737e-05,-5.999999999999999474e-05,2.000000000000000164e-05,2.999999999999999737e-05,-8.000000000000000654e-05,-1.000000000000000082e-05,2.000000000000000000e+00,3.000000000000000000e+00
4.272000000000000000e+03,-1.000000000000000082e-05,6.999999999999999387e-05,-2.999999999999999737e-05,-5.999999999999999474e-05,2.000000000000000164e-05,2.999999999999999737e-05,-8.000000000000000654e-05,-1.000000000000000082e-05,2.000000000000000000e+00,3.000000000000000000e+00
4.273000000000000000e+03,-1.000000000000000082e-05,6.999999999999999387e-05,-2.999999999999999737e-05,-5.999999999999999474e-05,2.000000000000000164e-05,2.999999999999999737e-05,-8.000000000000000654e-05,-1.000000000000000082e-05,2.000000000000000000e+00,3.000000000000000000e+00
4.274000000000000000e+03,-1.000000000000000082e-05,6.999999999999999387e-05,-2.999999999999999737e-05,-5.999999999999999474e-05,2.000000000000000164e-05,2.999999999999999737e-05,-8.000000000000000654e-05,-1.000000000000000082e-05,2.000000000000000000e+00,3.000000000000000000e+00
4.275000000000000000e+03,-1.000000000000000082e-05,6.999999999999999387e-05,-2.999999999999999737e-05,-5.999999999999999474e-05,2.000000000000000164e-05,2.999999999999999737e-05,-8.000000000000000654e-05,-1.000000000000000082e-05,2.000000000000000000e+00,3.000000000000000000e+00
4.276000000000000000e+03,-1.000000000000000082e-05,6.999999999999999387e-05,-2.999999999999999737e-05,-5.999999999999999474e-05,2.000000000000000164e-05,2.999999999999999737e-05,-8.000000000000000654e-05,-1.000000000000000082e-05,2.000000000000000000e+00,3.000000000000000000e+00
4.277000000000000000e+03,-1.000000000000000082e-05,6.999999999999999387e-05,-2.999999999999999737e-05,-5.999999999999999474e-05,2.000000000000000164e-05,2.999999999999999737e-05,-8.000000000000000654e-05,-1.000000000000000082e-05,2.000000000000000000e+00,3.000000000000000000e+00
4.278000000000000000e+03,-8.000000000000000654e-05,-1.000000000000000048e-04,-1.199999999999999895e-04,-5.000000000000000240e-05,2.999999999999999737e-05,2.000000000000000164e-05,2.399999999999999790e-04,-2.000000000000000164e-05,2.000000000000000000e+00,3.000000000000000000e+00
4.279000000000000000e+03,2.000000000000000164e-05,-2.999999999999999737e-05,-8.000000000000000654e-05,4.000000000000000327e-05,4.000000000000000327e-05,-4.000000000000000327e-05,-2.999999999999999737e-05,1.000000000000000082e-05,2.000000000000000000e+00,3.000000000000000000e+00
4.280000000000000000e+03,2.000000000000000164e-05,-2.999999999999999737e-05,-8.000000000000000654e-05,4.000000000000000327e-05,4.000000000000000327e-05,-4.000000000000000327e-05,-2.999999999999999737e-05,1.000000000000000082e-05,2.000000000000000000e+00,3.000000000000000000e+00
4.281000000000000000e+03,2.000000000000000164e-05,-2.999999999999999737e-05,-8.000000000000000654e-05,4.000000000000000327e-05,4.000000000000000327e-05,-4.000000000000000327e-05,-2.999999999999999737e-05,1.000000000000000082e-05,2.000000000000000000e+00,3.000000000000000000e+00
4.282000000000000000e+03,2.000000000000000164e-05,-2.999999999999999737e-05,-8.000000000000000654e-05,4.000000000000000327e-05,4.000000000000000327e-05,-4.000000000000000327e-05,-2.999999999999999737e-05,1.000000000000000082e-05,2.000000000000000000e+00,3.000000000000000000e+00
4.283000000000000000e+03,2.000000000000000164e-05,-2.999999999999999737e-05,-8.000000000000000654e-05,4.000000000000000327e-05,4.000000000000000327e-05,-4.000000000000000327e-05,-2.999999999999999737e-05,1.000000000000000082e-05,2.000000000000000000e+00,3.000000000000000000e+00
4.284000000000000000e+03,2.000000000000000164e-05,-2.999999999999999737e-05,-8.000000000000000654e-05,4.000000000000000327e-05,4.000000000000000327e-05,-4.000000000000000327e-05,-2.999999999999999737e-05,1.000000000000000082e-05,2.000000000000000000e+00,3.000000000000000000e+00
4.285000000000000000e+03,2.000000000000000164e-05,-2.999999999999999737e-05,-8.000000000000000654e-05,4.000000000000000327e-05,4.000000000000000327e-05,-4.000000000000000327e-05,-2.999999999999999737e-05,1.000000000000000082e-05,2.000000000000000000e+00,3.000000000000000000e+00
4.286000000000000000e+03,2.000000000000000164e-05,-2.999999999999999737e-05,-8.000000000000000654e-05,4.000000000000000327e-05,4.000000000000000327e-05,-4.000000000000000327e-05,-2.999999999999999737e-05,1.000000000000000082e-05,2.000000000000000000e+00,3.000000000000000000e+00
4.288000000000000000e+03,2.000000000000000164e-05,-2.999999999999999737e-05,-8.000000000000000654e-05,4.000000000000000327e-05,4.000000000000000327e-05,-4.000000000000000327e-05,-2.999999999999999737e-05,1.000000000000000082e-05,2.000000000000000000e+00,3.000000000000000000e+00
4.289000000000000000e+03,2.000000000000000164e-05,-2.999999999999999737e-05,-8.000000000000000654e-05,4.000000000000000327e-05,4.000000000000000327e-05,-4.000000000000000327e-05,-2.999999999999999737e-05,1.000000000000000082e-05,2.000000000000000000e+00,3.000000000000000000e+00
4.290000000000000000e+03,2.000000000000000164e-05,-2.999999999999999737e-05,-8.000000000000000654e-05,4.000000000000000327e-05,4.000000000000000327e-05,-4.000000000000000327e-05,-2.999999999999999737e-05,1.000000000000000082e-05,2.000000000000000000e+00,3.000000000000000000e+00
4.291000000000000000e+03,2.000000000000000164e-05,-2.999999999999999737e-05,-8.000000000000000654e-05,4.000000000000000327e-05,4.000000000000000327e-05,-4.000000000000000327e-05,-2.999999999999999737e-05,1.000000000000000082e-05,2.000000000000000000e+00,3.000000000000000000e+00
4.292000000000000000e+03,2.000000000000000164e-05,-2.999999999999999737e-05,-8.000000000000000654e-05,4.000000000000000327e-05,4.000000000000000327e-05,-4.000000000000000327e-05,-2.999999999999999737e-05,1.000000000000000082e-05,2.000000000000000000e+00,3.000000000000000000e+00
4.293000000000000000e+03,2.000000000000000164e-05,-2.999999999999999737e-05,-8.000000000000000654e-05,4.000000000000000327e-05,4.000000000000000327e-05,-4.000000000000000327e-05,-2.999999999999999737e-05,1.000000000000000082e-05,2.000000000000000000e+00,3.000000000000000000e+00
4.294000000000000000e+03,2.000000000000000164e-05,-2.999999999999999737e-05,-8.000000000000000654e-05,4.000000000000000327e-05,4.000000000000000327e-05,-4.000000000000000327e-05,-2.999999999999999737e-05,1.000000000000000082e-05,2.000000000000000000e+00,3.000000000000000000e+00
4.295000000000000000e+03,2.000000000000000164e-05,-2.999999999999999737e-05,-8.000000000000000654e-05,4.000000000000000327e-05,4.000000000000000327e-05,-4.000000000000000327e-05,-2.999999999999999737e-05,1.000000000000000082e-05,2.000000000000000000e+00,3.000000000000000000e+00
4.296000000000000000e+03,2.000000000000000164e-05,-2.999999999999999737e-05,-8.000000000000000654e-05,4.000000000000000327e-05,4.000000000000000327e-05,-4.000000000000000327e-05,-2.999999999999999737e-05,1.000000000000000082e-05,2.000000000000000000e+00,3.000000000000000000e+00
4.297000000000000000e+03,2.000000000000000164e-05,-2.999999999999999737e-05,-8.000000000000000654e-05,4.000000000000000327e-05,4.000000000000000327e-05,-4.000000000000000327e-05,-2.999999999999999737e-05,1.000000000000000082e-05,2.000000000000000000e+00,3.000000000000000000e+00
4.298000000000000000e+03,2.000000000000000164e-05,-2.999999999999999737e-05,-8.000000000000000654e-05,4.000000000000000327e-05,4.000000000000000327e-05,-4.000000000000000327e-05,-2.999999999999999737e-05,1.000000000000000082e-05,2.000000000000000000e+00,3.000000000000000000e+00
4.299000000000000000e+03,2.000000000000000164e-05,-2.999999999999999737e-05,-8.000000000000000654e-05,4.000000000000000327e-05,4.000000000000000327e-05,-4.000000000000000327e-05,-2.999999999999999737e-05,1.000000000000000082e-05,2.000000000000000000e+00,3.000000000000000000e+00
4.300000000000000000e+03,-5.000000000000000240e-05,2.000000000000000164e-05,1.600000000000000131e-04,-1.699999999999999851e-04,-2.000000000000000164e-05,-1.000000000000000048e-04,5.999999999999999474e-05,-2.000000000000000164e-05,2.000000000000000000e+00,3.000000000000000000e+00
4.301000000000000000e+03,-5.000000000000000240e-05,2.000000000000000164e-05,1.600000000000000131e-04,-1.699999999999999851e-04,-2.000000000000000164e-05,-1.000000000000000048e-04,5.999999999999999474e-05,-2.000000000000000164e-05,2.000000000000000000e+00,3.000000000000000000e+00
4.302000000000000000e+03,-2.999999999999999737e-05,2.999999999999999737e-05,-1.399999999999999877e-04,1.000000000000000082e-05,2.000000000000000164e-05,1.000000000000000082e-05,6.999999999999999387e-05,2.000000000000000164e-05,2.000000000000000000e+00,3.000000000000000000e+00
4.303000000000000000e+03,-2.999999999999999737e-05,2.999999999999999737e-05,-1.399999999999999877e-04,1.000000000000000082e-05,2.000000000000000164e-05,1.000000000000000082e-05,6.999999999999999387e-05,2.000000000000000164e-05,2.000000000000000000e+00,3.000000000000000000e+00
4.304000000000000000e+03,-2.999999999999999737e-05,2.999999999999999737e-05,-1.399999999999999877e-04,1.000000000000000082e-05,2.000000000000000164e-05,1.000000000000000082e-05,6.999999999999999387e-05,2.000000000000000164e-05,2.000000000000000000e+00,3.000000000000000000e+00
4.305000000000000000e+03,-2.999999999999999737e-05,2.999999999999999737e-05,-1.399999999999999877e-04,1.000000000000000082e-05,2.000000000000000164e-05,1.000000000000000082e-05,6.999999999999999387e-05,2.000000000000000164e-05,2.000000000000000000e+00,3.000000000000000000e+00
4.306000000000000000e+03,-2.999999999999999737e-05,2.999999999999999737e-05,-1.399999999999999877e-04,1.000000000000000082e-05,2.000000000000000164e-05,1.000000000000000082e-05,6.999999999999999387e-05,2.000000000000000164e-05,2.000000000000000000e+00,3.000000000000000000e+00
4.307000000000000000e+03,-2.999999999999999737e-05,2.999999999999999737e-05,-1.399999999999999877e-04,1.000000000000000082e-05,2.000000000000000164e-05,1.000000000000000082e-05,6.999999999999999387e-05,2.000000000000000164e-05,2.000000000000000000e+00,3.000000000000000000e+00
4.308000000000000000e+03,-2.999999999999999737e-05,2.999999999999999737e-05,-1.399999999999999877e-04,1.000000000000000082e-05,2.000000000000000164e-05,1.000000000000000082e-05,6.999999999999999387e-05,2.000000000000000164e-05,2.000000000000000000e+00,3.000000000000000000e+00
4.309000000000000000e+03,-2.999999999999999737e-05,2.999999999999999737e-05,-1.399999999999999877e-04,1.000000000000000082e-05,2.000000000000000164e-05,1.000000000000000082e-05,6.999999999999999387e-05,2.000000000000000164e-05,2.000000000000000000e+00,3.000000000000000000e+00
4.310000000000000000e+03,-2.999999999999999737e-05,2.999999999999999737e-05,-1.399999999999999877e-04,1.000000000000000082e-05,2.000000000000000164e-05,1.000000000000000082e-05,6.999999999999999387e-05,2.000000000000000164e-05,2.000000000000000000e+00,3.000000000000000000e+00
4.311000000000000000e+03,-2.999999999999999737e-05,2.999999999999999737e-05,-1.399999999999999877e-04,1.000000000000000082e-05,2.000000000000000164e-05,1.000000000000000082e-05,6.999999999999999387e-05,2.000000000000000164e-05,2.000000000000000000e+00,3.000000000000000000e+00
4.312000000000000000e+03,-2.999999999999999737e-05,2.999999999999999737e-05,-1.399999999999999877e-04,1.000000000000000082e-05,2.000000000000000164e-05,1.000000000000000082e-05,6.999999999999999387e-05,2.000000000000000164e-05,2.000000000000000000e+00,3.000000000000000000e+00
4.313000000000000000e+03,-2.999999999999999737e-05,2.999999999999999737e-05,-1.399999999999999877e-04,1.000000000000000082e-05,2.000000000000000164e-05,1.000000000000000082e-05,6.999999999999999387e-05,2.000000000000000164e-05,2.000000000000000000e+00,3.000000000000000000e+00
4.314000000000000000e+03,-2.999999999999999737e-05,2.999999999999999737e-05,-1.399999999999999877e-04,1.000000000000000082e-05,2.000000000000000164e-05,1.000000000000000082e-05,6.999999999999999387e-05,2.000000000000000164e-05,2.000000000000000000e+00,3.000000000000000000e+00
4.315000000000000000e+03,-2.999999999999999737e-05,-6.999999999999999387e-05,-1.300000000000000157e-04,1.000000000000000082e-05,-1.499999999999999869e-04,-2.999999999999999737e-05,-2.000000000000000096e-04,-5.999999999999999474e-05,2.000000000000000000e+00,3.000000000000000000e+00
4.316000000000000000e+03,-2.999999999999999737e-05,-6.999999999999999387e-05,-1.300000000000000157e-04,1.000000000000000082e-05,-1.499999999999999869e-04,-2.999999999999999737e-05,-2.000000000000000096e-04,-5.999999999999999474e-05,2.000000000000000000e+00,3.000000000000000000e+00
4.317000000000000000e+03,-2.999999999999999737e-05,-6.999999999999999387e-05,-1.300000000000000157e-04,1.000000000000000082e-05,-1.499999999999999869e-04,-2.999999999999999737e-05,-2.000000000000000096e-04,-5.999999999999999474e-05,2.000000000000000000e+00,3.000000000000000000e+00
4.318000000000000000e+03,-2.999999999999999737e-05,-6.999999999999999387e-05,-1.300000000000000157e-04,1.000000000000000082e-05,-1.499999999999999869e-04,-2.999999999999999737e-05,-2.000000000000000096e-04,-5.999999999999999474e-05,2.000000000000000000e+00,3.000000000000000000e+00
4.319000000000000000e+03,-2.999999999999999737e-05,-6.999999999999999387e-05,-1.300000000000000157e-04,1.000000000000000082e-05,-1.499999999999999869e-04,-2.999999999999999737e-05,-2.000000000000000096e-04,-5.999999999999999474e-05,2.000000000000000000e+00,3.000000000000000000e+00
4.320000000000000000e+03,-2.999999999999999737e-05,-6.999999999999999387e-05,-1.300000000000000157e-04,1.000000000000000082e-05,-1.499999999999999869e-04,-2.999999999999999737e-05,-2.000000000000000096e-04,-5.999999999999999474e-05,2.000000000000000000e+00,3.000000000000000000e+00
4.321000000000000000e+03,-2.999999999999999737e-05,0.000000000000000000e+00,1.399999999999999877e-04,2.100000000000000087e-04,9.000000000000000567e-05,-1.000000000000000082e-05,-1.000000000000000082e-05,-6.999999999999999387e-05,2.000000000000000000e+00,3.000000000000000000e+00
4.322000000000000000e+03,-2.999999999999999737e-05,0.000000000000000000e+00,1.399999999999999877e-04,2.100000000000000087e-04,9.000000000000000567e-05,-1.000000000000000082e-05,-1.000000000000000082e-05,-6.999999999999999387e-05,2.000000000000000000e+00,3.000000000000000000e+00
4.323000000000000000e+03,-2.999999999999999737e-05,0.000000000000000000e+00,1.399999999999999877e-04,2.100000000000000087e-04,9.000000000000000567e-05,-1.000000000000000082e-05,-1.000000000000000082e-05,-6.999999999999999387e-05,2.000000000000000000e+00,3.000000000000000000e+00
4.324000000000000000e+03,-2.999999999999999737e-05,0.000000000000000000e+00,1.399999999999999877e-04,2.100000000000000087e-04,9.000000000000000567e-05,-1.000000000000000082e-05,-1.000000000000000082e-05,-6.999999999999999387e-05,2.000000000000000000e+00,3.000000000000000000e+00
4.325000000000000000e+03,-2.999999999999999737e-05,0.000000000000000000e+00,1.399999999999999877e-04,2.100000000000000087e-04,9.000000000000000567e-05,-1.000000000000000082e-05,-1.000000000000000082e-05,-6.999999999999999387e-05,2.000000000000000000e+00,3.000000000000000000e+00
4.326000000000000000e+03,-2.999999999999999737e-05,0.000000000000000000e+00,1.399999999999999877e-04,2.100000000000000087e-04,9.000000000000000567e-05,-1.000000000000000082e-05,-1.000000000000000082e-05,-6.999999999999999387e-05,2.000000000000000000e+00,3.000000000000000000e+00
4.327000000000000000e+03,-2.999999999999999737e-05,0.000000000000000000e+00,1.399999999999999877e-04,2.100000000000000087e-04,9.000000000000000567e-05,-1.000000000000000082e-05,-1.000000000000000082e-05,-6.999999999999999387e-05,2.000000000000000000e+00,3.000000000000000000e+00
4.328000000000000000e+03,-2.999999999999999737e-05,0.000000000000000000e+00,1.399999999999999877e-04,2.100000000000000087e-04,9.000000000000000567e-05,-1.000000000000000082e-05,-1.000000000000000082e-05,-6.999999999999999387e-05,2.000000000000000000e+00,3.000000000000000000e+00
4.329000000000000000e+03,-2.999999999999999737e-05,0.000000000000000000e+00,1.399999999999999877e-04,2.100000000000000087e-04,9.000000000000000567e-05,-1.000000000000000082e-05,-1.000000000000000082e-05,-6.999999999999999387e-05,2.000000000000000000e+00,3.000000000000000000e+00
4.330000000000000000e+03,-2.999999999999999737e-05,0.000000000000000000e+00,1.399999999999999877e-04,2.100000000000000087e-04,9.000000000000000567e-05,-1.000000000000000082e-05,-1.000000000000000082e-05,-6.999999999999999387e-05,2.000000000000000000e+00,3.000000000000000000e+00
4.331000000000000000e+03,-2.999999999999999737e-05,0.000000000000000000e+00,1.399999999999999877e-04,2.100000000000000087e-04,9.000000000000000567e-05,-1.000000000000000082e-05,-1.000000000000000082e-05,-6.999999999999999387e-05,2.000000000000000000e+00,3.000000000000000000e+00
4.332000000000000000e+03,-2.999999999999999737e-05,0.000000000000000000e+00,1.399999999999999877e-04,2.100000000000000087e-04,9.000000000000000567e-05,-1.000000000000000082e-05,-1.000000000000000082e-05,-6.999999999999999387e-05,2.000000000000000000e+00,3.000000000000000000e+00
4.333000000000000000e+03,-2.999999999999999737e-05,0.000000000000000000e+00,1.399999999999999877e-04,2.100000000000000087e-04,9.000000000000000567e-05,-1.000000000000000082e-05,-1.000000000000000082e-05,-6.999999999999999387e-05,2.000000000000000000e+00,3.000000000000000000e+00
4.334000000000000000e+03,-2.999999999999999737e-05,0.000000000000000000e+00,1.399999999999999877e-04,2.100000000000000087e-04,9.000000000000000567e-05,-1.000000000000000082e-05,-1.000000000000000082e-05,-6.999999999999999387e-05,2.000000000000000000e+00,3.000000000000000000e+00
4.335000000000000000e+03,-2.999999999999999737e-05,0.000000000000000000e+00,1.399999999999999877e-04,2.100000000000000087e-04,9.000000000000000567e-05,-1.000000000000000082e-05,-1.000000000000000082e-05,-6.999999999999999387e-05,2.000000000000000000e+00,3.000000000000000000e+00
4.336000000000000000e+03,-2.999999999999999737e-05,0.000000000000000000e+00,1.399999999999999877e-04,2.100000000000000087e-04,9.000000000000000567e-05,-1.000000000000000082e-05,-1.000000000000000082e-05,-6.999999999999999387e-05,2.000000000000000000e+00,3.000000000000000000e+00
4.339000000000000000e+03,2.000000000000000164e-05,-4.000000000000000327e-05,-1.000000000000000048e-04,-2.000000000000000164e-05,4.000000000000000327e-05,2.999999999999999737e-05,1.600000000000000131e-04,2.999999999999999737e-05,2.000000000000000000e+00,3.000000000000000000e+00
4.340000000000000000e+03,2.000000000000000164e-05,-4.000000000000000327e-05,-1.000000000000000048e-04,-2.000000000000000164e-05,4.000000000000000327e-05,2.999999999999999737e-05,1.600000000000000131e-04,2.999999999999999737e-05,2.000000000000000000e+00,3.000000000000000000e+00
4.341000000000000000e+03,2.000000000000000164e-05,-4.000000000000000327e-05,-1.000000000000000048e-04,-2.000000000000000164e-05,4.000000000000000327e-05,2.999999999999999737e-05,1.600000000000000131e-04,2.999999999999999737e-05,2.000000000000000000e+00,3.000000000000000000e+00
4.342000000000000000e+03,2.000000000000000164e-05,-4.000000000000000327e-05,-1.000000000000000048e-04,-2.000000000000000164e-05,4.000000000000000327e-05,2.999999999999999737e-05,1.600000000000000131e-04,2.999999999999999737e-05,2.000000000000000000e+00,3.000000000000000000e+00
4.343000000000000000e+03,2.000000000000000164e-05,-4.000000000000000327e-05,-1.000000000000000048e-04,-2.000000000000000164e-05,4.000000000000000327e-05,2.999999999999999737e-05,1.600000000000000131e-04,2.999999999999999737e-05,2.000000000000000000e+00,3.000000000000000000e+00
4.344000000000000000e+03,2.000000000000000164e-05,-4.000000000000000327e-05,-1.000000000000000048e-04,-2.000000000000000164e-05,4.000000000000000327e-05,2.999999999999999737e-05,1.600000000000000131e-04,2.999999999999999737e-05,2.000000000000000000e+00,3.000000000000000000e+00
4.345000000000000000e+03,2.000000000000000164e-05,-4.000000000000000327e-05,-1.000000000000000048e-04,-2.000000000000000164e-05,4.000000000000000327e-05,2.999999999999999737e-05,1.600000000000000131e-04,2.999999999999999737e-05,2.000000000000000000e+00,3.000000000000000000e+00
4.346000000000000000e+03,2.000000000000000164e-05,-4.000000000000000327e-05,-1.000000000000000048e-04,-2.000000000000000164e-05,4.000000000000000327e-05,2.999999999999999737e-05,1.600000000000000131e-04,2.999999999999999737e-05,2.000000000000000000e+00,3.000000000000000000e+00
4.347000000000000000e+03,2.000000000000000164e-05,-4.000000000000000327e-05,-1.000000000000000048e-04,-2.000000000000000164e-05,4.000000000000000327e-05,2.999999999999999737e-05,1.600000000000000131e-04,2.999999999999999737e-05,2.000000000000000000e+00,3.000000000000000000e+00
4.348000000000000000e+03,2.000000000000000164e-05,-4.000000000000000327e-05,-1.000000000000000048e-04,-2.000000000000000164e-05,4.000000000000000327e-05,2.999999999999999737e-05,1.600000000000000131e-04,2.999999999999999737e-05,2.000000000000000000e+00,3.000000000000000000e+00
4.349000000000000000e+03,2.000000000000000164e-05,-4.000000000000000327e-05,-1.000000000000000048e-04,-2.000000000000000164e-05,4.000000000000000327e-05,2.999999999999999737e-05,1.600000000000000131e-04,2.999999999999999737e-05,2.000000000000000000e+00,3.000000000000000000e+00
4.350000000000000000e+03,2.000000000000000164e-05,-4.000000000000000327e-05,-1.000000000000000048e-04,-2.000000000000000164e-05,4.000000000000000327e-05,2.999999999999999737e-05,1.600000000000000131e-04,2.999999999999999737e-05,2.000000000000000000e+00,3.000000000000000000e+00
4.351000000000000000e+03,2.000000000000000164e-05,-4.000000000000000327e-05,-1.000000000000000048e-04,-2.000000000000000164e-05,4.000000000000000327e-05,2.999999999999999737e-05,1.600000000000000131e-04,2.999999999999999737e-05,2.000000000000000000e+00,3.000000000000000000e+00
4.352000000000000000e+03,2.000000000000000164e-05,-4.000000000000000327e-05,-1.000000000000000048e-04,-2.000000000000000164e-05,4.000000000000000327e-05,2.999999999999999737e-05,1.600000000000000131e-04,2.999999999999999737e-05,2.000000000000000000e+00,3.000000000000000000e+00
4.353000000000000000e+03,2.000000000000000164e-05,-4.000000000000000327e-05,-1.000000000000000048e-04,-2.000000000000000164e-05,4.000000000000000327e-05,2.999999999999999737e-05,1.600000000000000131e-04,2.999999999999999737e-05,2.000000000000000000e+00,3.000000000000000000e+00
4.354000000000000000e+03,2.000000000000000164e-05,-4.000000000000000327e-05,-1.000000000000000048e-04,-2.000000000000000164e-05,4.000000000000000327e-05,2.999999999999999737e-05,1.600000000000000131e-04,2.999999999999999737e-05,2.000000000000000000e+00,3.000000000000000000e+00
4.355000000000000000e+03,2.000000000000000164e-05,-4.000000000000000327e-05,-1.000000000000000048e-04,-2.000000000000000164e-05,4.000000000000000327e-05,2.999999999999999737e-05,1.600000000000000131e-04,2.999999999999999737e-05,2.000000000000000000e+00,3.000000000000000000e+00
4.356000000000000000e+03,2.000000000000000164e-05,-4.000000000000000327e-05,-1.000000000000000048e-04,-2.000000000000000164e-05,4.000000000000000327e-05,2.999999999999999737e-05,1.600000000000000131e-04,2.999999999999999737e-05,2.000000000000000000e+00,3.000000000000000000e+00
4.357000000000000000e+03,2.000000000000000164e-05,-4.000000000000000327e-05,-1.000000000000000048e-04,-2.000000000000000164e-05,4.000000000000000327e-05,2.999999999999999737e-05,1.600000000000000131e-04,2.999999999999999737e-05,2.000000000000000000e+00,3.000000000000000000e+00
4.358000000000000000e+03,2.000000000000000164e-05,-4.000000000000000327e-05,-1.000000000000000048e-04,-2.000000000000000164e-05,4.000000000000000327e-05,2.999999999999999737e-05,1.600000000000000131e-04,2.999999999999999737e-05,2.000000000000000000e+00,3.000000000000000000e+00
4.359000000000000000e+03,2.000000000000000164e-05,-4.000000000000000327e-05,-1.000000000000000048e-04,-2.000000000000000164e-05,4.000000000000000327e-05,2.999999999999999737e-05,1.600000000000000131e-04,2.999999999999999737e-05,2.000000000000000000e+00,3.000000000000000000e+00
4.360000000000000000e+03,0.000000000000000000e+00,1.000000000000000082e-05,9.000000000000000567e-05,2.999999999999999737e-04,1.000000000000000082e-05,1.000000000000000082e-05,1.199999999999999895e-04,0.000000000000000000e+00,2.000000000000000000e+00,3.000000000000000000e+00
4.361000000000000000e+03,0.000000000000000000e+00,1.000000000000000082e-05,9.000000000000000567e-05,2.999999999999999737e-04,1.000000000000000082e-05,1.000000000000000082e-05,1.199999999999999895e-04,0.000000000000000000e+00,2.000000000000000000e+00,3.000000000000000000e+00
4.362000000000000000e+03,2.999999999999999737e-05,-1.000000000000000082e-05,2.100000000000000087e-04,-5.000000000000000240e-05,-6.999999999999999387e-05,1.000000000000000082e-05,-5.000000000000000240e-05,0.000000000000000000e+00,2.000000000000000000e+00,3.000000000000000000e+00
4.363000000000000000e+03,2.999999999999999737e-05,-1.000000000000000082e-05,2.100000000000000087e-04,-5.000000000000000240e-05,-6.999999999999999387e-05,1.000000000000000082e-05,-5.000000000000000240e-05,0.000000000000000000e+00,2.000000000000000000e+00,3.000000000000000000e+00
4.364000000000000000e+03,2.999999999999999737e-05,-1.000000000000000082e-05,2.100000000000000087e-04,-5.000000000000000240e-05,-6.999999999999999387e-05,1.000000000000000082e-05,-5.000000000000000240e-05,0.000000000000000000e+00,2.000000000000000000e+00,3.000000000000000000e+00
4.365000000000000000e+03,2.999999999999999737e-05,-1.000000000000000082e-05,2.100000000000000087e-04,-5.000000000000000240e-05,-6.999999999999999387e-05,1.000000000000000082e-05,-5.000000000000000240e-05,0.000000000000000000e+00,2.000000000000000000e+00,3.000000000000000000e+00
4.366000000000000000e+03,2.999999999999999737e-05,-1.000000000000000082e-05,2.100000000000000087e-04,-5.000000000000000240e-05,-6.999999999999999387e-05,1.000000000000000082e-05,-5.000000000000000240e-05,0.000000000000000000e+00,2.000000000000000000e+00,3.000000000000000000e+00
4.367000000000000000e+03,2.999999999999999737e-05,-1.000000000000000082e-05,2.100000000000000087e-04,-5.000000000000000240e-05,-6.999999999999999387e-05,1.000000000000000082e-05,-5.000000000000000240e-05,0.000000000000000000e+00,2.000000000000000000e+00,3.000000000000000000e+00
4.368000000000000000e+03,2.999999999999999737e-05,-1.000000000000000082e-05,2.100000000000000087e-04,-5.000000000000000240e-05,-6.999999999999999387e-05,1.000000000000000082e-05,-5.000000000000000240e-05,0.000000000000000000e+00,2.000000000000000000e+00,3.000000000000000000e+00
4.369000000000000000e+03,2.999999999999999737e-05,-1.000000000000000082e-05,2.100000000000000087e-04,-5.000000000000000240e-05,-6.999999999999999387e-05,1.000000000000000082e-05,-5.000000000000000240e-05,0.000000000000000000e+00,2.000000000000000000e+00,3.000000000000000000e+00
4.370000000000000000e+03,2.999999999999999737e-05,-1.000000000000000082e-05,2.100000000000000087e-04,-5.000000000000000240e-05,-6.999999999999999387e-05,1.000000000000000082e-05,-5.000000000000000240e-05,0.000000000000000000e+00,2.000000000000000000e+00,3.000000000000000000e+00
4.371000000000000000e+03,2.999999999999999737e-05,-1.000000000000000082e-05,2.100000000000000087e-04,-5.000000000000000240e-05,-6.999999999999999387e-05,1.000000000000000082e-05,-5.000000000000000240e-05,0.000000000000000000e+00,2.000000000000000000e+00,3.000000000000000000e+00
4.372000000000000000e+03,2.999999999999999737e-05,-1.000000000000000082e-05,2.100000000000000087e-04,-5.000000000000000240e-05,-6.999999999999999387e-05,1.000000000000000082e-05,-5.000000000000000240e-05,0.000000000000000000e+00,2.000000000000000000e+00,3.000000000000000000e+00
4.373000000000000000e+03,2.999999999999999737e-05,-1.000000000000000082e-05,2.100000000000000087e-04,-5.000000000000000240e-05,-6.999999999999999387e-05,1.000000000000000082e-05,-5.000000000000000240e-05,0.000000000000000000e+00,2.000000000000000000e+00,3.000000000000000000e+00
4.374000000000000000e+03,2.999999999999999737e-05,-1.000000000000000082e-05,2.100000000000000087e-04,-5.000000000000000240e-05,-6.999999999999999387e-05,1.000000000000000082e-05,-5.000000000000000240e-05,0.000000000000000000e+00,2.000000000000000000e+00,3.000000000000000000e+00
4.375000000000000000e+03,4.000000000000000327e-05,5.000000000000000240e-05,6.999999999999999387e-05,6.999999999999999387e-05,4.000000000000000327e-05,2.000000000000000164e-05,-4.000000000000000327e-05,2.999999999999999737e-05,2.000000000000000000e+00,3.000000000000000000e+00
4.376000000000000000e+03,4.000000000000000327e-05,5.000000000000000240e-05,6.999999999999999387e-05,6.999999999999999387e-05,4.000000000000000327e-05,2.000000000000000164e-05,-4.000000000000000327e-05,2.999999999999999737e-05,2.000000000000000000e+00,3.000000000000000000e+00
4.377000000000000000e+03,4.000000000000000327e-05,5.000000000000000240e-05,6.999999999999999387e-05,6.999999999999999387e-05,4.000000000000000327e-05,2.000000000000000164e-05,-4.000000000000000327e-05,2.999999999999999737e-05,2.000000000000000000e+00,3.000000000000000000e+00
4.378000000000000000e+03,4.000000000000000327e-05,5.000000000000000240e-05,6.999999999999999387e-05,6.999999999999999387e-05,4.000000000000000327e-05,2.000000000000000164e-05,-4.000000000000000327e-05,2.999999999999999737e-05,2.000000000000000000e+00,3.000000000000000000e+00
4.379000000000000000e+03,4.000000000000000327e-05,5.000000000000000240e-05,6.999999999999999387e-05,6.999999999999999387e-05,4.000000000000000327e-05,2.000000000000000164e-05,-4.000000000000000327e-05,2.999999999999999737e-05,2.000000000000000000e+00,3.000000000000000000e+00
4.380000000000000000e+03,4.000000000000000327e-05,5.000000000000000240e-05,6.999999999999999387e-05,6.999999999999999387e-05,4.000000000000000327e-05,2.000000000000000164e-05,-4.000000000000000327e-05,2.999999999999999737e-05,2.000000000000000000e+00,3.000000000000000000e+00
4.381000000000000000e+03,-5.000000000000000240e-05,-4.000000000000000327e-05,-5.000000000000000240e-05,2.999999999999999737e-05,-5.999999999999999474e-05,1.000000000000000082e-05,2.600000000000000314e-04,2.999999999999999737e-05,2.000000000000000000e+00,3.000000000000000000e+00
