2.724100000000000000e+04,0.000000000000000000e+00,0.000000000000000000e+00,-1.000000000000000082e-05,-1.000000000000000082e-05,1.000000000000000082e-05,-1.000000000000000082e-05,1.000000000000000082e-05,-1.000000000000000082e-05,1.000000000000000000e+00,1.300000000000000000e+01
2.724200000000000000e+04,0.000000000000000000e+00,0.000000000000000000e+00,-1.000000000000000082e-05,-1.000000000000000082e-05,1.000000000000000082e-05,-1.000000000000000082e-05,1.000000000000000082e-05,-1.000000000000000082e-05,1.000000000000000000e+00,1.300000000000000000e+01
2.724300000000000000e+04,0.000000000000000000e+00,0.000000000000000000e+00,-1.000000000000000082e-05,-1.000000000000000082e-05,1.000000000000000082e-05,-1.000000000000000082e-05,1.000000000000000082e-05,-1.000000000000000082e-05,1.000000000000000000e+00,1.300000000000000000e+01
2.724400000000000000e+04,0.000000000000000000e+00,0.000000000000000000e+00,-1.000000000000000082e-05,-1.000000000000000082e-05,1.000000000000000082e-05,-1.000000000000000082e-05,1.000000000000000082e-05,-1.000000000000000082e-05,1.000000000000000000e+00,1.300000000000000000e+01
2.724500000000000000e+04,0.000000000000000000e+00,0.000000000000000000e+00,-1.000000000000000082e-05,-1.000000000000000082e-05,1.000000000000000082e-05,-1.000000000000000082e-05,1.000000000000000082e-05,-1.000000000000000082e-05,1.000000000000000000e+00,1.300000000000000000e+01
2.724600000000000000e+04,0.000000000000000000e+00,0.000000000000000000e+00,-1.000000000000000082e-05,-1.000000000000000082e-05,1.000000000000000082e-05,-1.000000000000000082e-05,1.000000000000000082e-05,-1.000000000000000082e-05,1.000000000000000000e+00,1.300000000000000000e+01
2.724700000000000000e+04,0.000000000000000000e+00,0.000000000000000000e+00,-1.000000000000000082e-05,-1.000000000000000082e-05,1.000000000000000082e-05,-1.000000000000000082e-05,1.000000000000000082e-05,-1.000000000000000082e-05,1.000000000000000000e+00,1.300000000000000000e+01
2.724800000000000000e+04,0.000000000000000000e+00,0.000000000000000000e+00,-1.000000000000000082e-05,-1.000000000000000082e-05,1.000000000000000082e-05,-1.000000000000000082e-05,1.000000000000000082e-05,-1.000000000000000082e-05,1.000000000000000000e+00,1.300000000000000000e+01
2.724900000000000000e+04,-1.000000000000000082e-05,0.000000000000000000e+00,1.000000000000000082e-05,1.000000000000000082e-05,0.000000000000000000e+00,0.000000000000000000e+00,0.000000000000000000e+00,0.000000000000000000e+00,1.000000000000000000e+00,1.300000000000000000e+01
2.725000000000000000e+04,-4.000000000000000327e-05,-1.000000000000000082e-05,-1.000000000000000082e-05,-2.999999999999999737e-05,-1.000000000000000082e-05,-1.000000000000000082e-05,1.000000000000000082e-05,0.000000000000000000e+00,1.000000000000000000e+00,1.300000000000000000e+01
2.725100000000000000e+04,-4.000000000000000327e-05,-1.000000000000000082e-05,-1.000000000000000082e-05,-2.999999999999999737e-05,-1.000000000000000082e-05,-1.000000000000000082e-05,1.000000000000000082e-05,0.000000000000000000e+00,1.000000000000000000e+00,1.300000000000000000e+01
2.725200000000000000e+04,-4.000000000000000327e-05,-1.000000000000000082e-05,-1.000000000000000082e-05,-2.999999999999999737e-05,-1.000000000000000082e-05,-1.000000000000000082e-05,1.000000000000000082e-05,0.000000000000000000e+00,1.000000000000000000e+00,1.300000000000000000e+01
2.725300000000000000e+04,-4.000000000000000327e-05,-1.000000000000000082e-05,-1.000000000000000082e-05,-2.999999999999999737e-05,-1.000000000000000082e-05,-1.000000000000000082e-05,1.000000000000000082e-05,0.000000000000000000e+00,1.000000000000000000e+00,1.300000000000000000e+01
2.725400000000000000e+04,-4.000000000000000327e-05,-1.000000000000000082e-05,-1.000000000000000082e-05,-2.999999999999999737e-05,-1.000000000000000082e-05,-1.000000000000000082e-05,1.000000000000000082e-05,0.000000000000000000e+00,1.000000000000000000e+00,1.300000000000000000e+01
2.725500000000000000e+04,-4.000000000000000327e-05,-1.000000000000000082e-05,-1.000000000000000082e-05,-2.999999999999999737e-05,-1.000000000000000082e-05,-1.000000000000000082e-05,1.000000000000000082e-05,0.000000000000000000e+00,1.000000000000000000e+00,1.300000000000000000e+01
2.725600000000000000e+04,-4.000000000000000327e-05,-1.000000000000000082e-05,-1.000000000000000082e-05,-2.999999999999999737e-05,-1.000000000000000082e-05,-1.000000000000000082e-05,1.000000000000000082e-05,0.000000000000000000e+00,1.000000000000000000e+00,1.300000000000000000e+01
2.725700000000000000e+04,-4.000000000000000327e-05,-1.000000000000000082e-05,-1.000000000000000082e-05,-2.999999999999999737e-05,-1.000000000000000082e-05,-1.000000000000000082e-05,1.000000000000000082e-05,0.000000000000000000e+00,1.000000000000000000e+00,1.300000000000000000e+01
2.725800000000000000e+04,-4.000000000000000327e-05,-1.000000000000000082e-05,-1.000000000000000082e-05,-2.999999999999999737e-05,-1.000000000000000082e-05,-1.000000000000000082e-05,1.000000000000000082e-05,0.000000000000000000e+00,1.000000000000000000e+00,1.300000000000000000e+01
2.725900000000000000e+04,-4.000000000000000327e-05,-1.000000000000000082e-05,-1.000000000000000082e-05,-2.999999999999999737e-05,-1.000000000000000082e-05,-1.000000000000000082e-05,1.000000000000000082e-05,0.000000000000000000e+00,1.000000000000000000e+00,1.300000000000000000e+01
2.726000000000000000e+04,-4.000000000000000327e-05,-1.000000000000000082e-05,-1.000000000000000082e-05,-2.999999999999999737e-05,-1.000000000000000082e-05,-1.000000000000000082e-05,1.000000000000000082e-05,0.000000000000000000e+00,1.000000000000000000e+00,1.300000000000000000e+01
2.726100000000000000e+04,-4.000000000000000327e-05,-1.000000000000000082e-05,-1.000000000000000082e-05,-2.999999999999999737e-05,-1.000000000000000082e-05,-1.000000000000000082e-05,1.000000000000000082e-05,0.000000000000000000e+00,1.000000000000000000e+00,1.300000000000000000e+01
2.726200000000000000e+04,-4.000000000000000327e-05,-1.000000000000000082e-05,-1.000000000000000082e-05,-2.999999999999999737e-05,-1.000000000000000082e-05,-1.000000000000000082e-05,1.000000000000000082e-05,0.000000000000000000e+00,1.000000000000000000e+00,1.300000000000000000e+01
2.726300000000000000e+04,-4.000000000000000327e-05,-1.000000000000000082e-05,-1.000000000000000082e-05,-2.999999999999999737e-05,-1.000000000000000082e-05,-1.000000000000000082e-05,1.000000000000000082e-05,0.000000000000000000e+00,1.000000000000000000e+00,1.300000000000000000e+01
2.726400000000000000e+04,-4.000000000000000327e-05,-1.000000000000000082e-05,-1.000000000000000082e-05,-2.999999999999999737e-05,-1.000000000000000082e-05,-1.000000000000000082e-05,1.000000000000000082e-05,0.000000000000000000e+00,1.000000000000000000e+00,1.300000000000000000e+01
2.726500000000000000e+04,-4.000000000000000327e-05,-1.000000000000000082e-05,-1.000000000000000082e-05,-2.999999999999999737e-05,-1.000000000000000082e-05,-1.000000000000000082e-05,1.000000000000000082e-05,0.000000000000000000e+00,1.000000000000000000e+00,1.300000000000000000e+01
2.726600000000000000e+04,-4.000000000000000327e-05,-1.000000000000000082e-05,-1.000000000000000082e-05,-2.999999999999999737e-05,-1.000000000000000082e-05,-1.000000000000000082e-05,1.000000000000000082e-05,0.000000000000000000e+00,1.000000000000000000e+00,1.300000000000000000e+01
2.726700000000000000e+04,-4.000000000000000327e-05,-1.000000000000000082e-05,-1.000000000000000082e-05,-2.999999999999999737e-05,-1.000000000000000082e-05,-1.000000000000000082e-05,1.000000000000000082e-05,0.000000000000000000e+00,1.000000000000000000e+00,1.300000000000000000e+01
2.726800000000000000e+04,-4.000000000000000327e-05,-1.000000000000000082e-05,-1.000000000000000082e-05,-2.999999999999999737e-05,-1.000000000000000082e-05,-1.000000000000000082e-05,1.000000000000000082e-05,0.000000000000000000e+00,1.000000000000000000e+00,1.300000000000000000e+01
2.726900000000000000e+04,-4.000000000000000327e-05,-1.000000000000000082e-05,-1.000000000000000082e-05,-2.999999999999999737e-05,-1.000000000000000082e-05,-1.000000000000000082e-05,1.000000000000000082e-05,0.000000000000000000e+00,1.000000000000000000e+00,1.300000000000000000e+01
2.727000000000000000e+04,-4.000000000000000327e-05,-1.000000000000000082e-05,-1.000000000000000082e-05,-2.999999999999999737e-05,-1.000000000000000082e-05,-1.000000000000000082e-05,1.000000000000000082e-05,0.000000000000000000e+00,1.000000000000000000e+00,1.300000000000000000e+01
2.727100000000000000e+04,0.000000000000000000e+00,0.000000000000000000e+00,0.000000000000000000e+00,0.000000000000000000e+00,-1.000000000000000082e-05,0.000000000000000000e+00,1.000000000000000082e-05,1.000000000000000082e-05,1.000000000000000000e+00,1.300000000000000000e+01
2.727200000000000000e+04,0.000000000000000000e+00,0.000000000000000000e+00,0.000000000000000000e+00,0.000000000000000000e+00,-1.000000000000000082e-05,0.000000000000000000e+00,1.000000000000000082e-05,1.000000000000000082e-05,1.000000000000000000e+00,1.300000000000000000e+01
2.727300000000000000e+04,1.000000000000000082e-05,0.000000000000000000e+00,-1.000000000000000082e-05,1.000000000000000082e-05,-2.000000000000000164e-05,2.000000000000000164e-05,-1.000000000000000082e-05,-1.000000000000000082e-05,1.000000000000000000e+00,1.300000000000000000e+01
2.727400000000000000e+04,1.000000000000000082e-05,0.000000000000000000e+00,-1.000000000000000082e-05,1.000000000000000082e-05,-2.000000000000000164e-05,2.000000000000000164e-05,-1.000000000000000082e-05,-1.000000000000000082e-05,1.000000000000000000e+00,1.300000000000000000e+01
2.727500000000000000e+04,1.000000000000000082e-05,0.000000000000000000e+00,-1.000000000000000082e-05,1.000000000000000082e-05,-2.000000000000000164e-05,2.000000000000000164e-05,-1.000000000000000082e-05,-1.000000000000000082e-05,1.000000000000000000e+00,1.300000000000000000e+01
2.727600000000000000e+04,1.000000000000000082e-05,0.000000000000000000e+00,-1.000000000000000082e-05,1.000000000000000082e-05,-2.000000000000000164e-05,2.000000000000000164e-05,-1.000000000000000082e-05,-1.000000000000000082e-05,1.000000000000000000e+00,1.300000000000000000e+01
2.727700000000000000e+04,1.000000000000000082e-05,0.000000000000000000e+00,-1.000000000000000082e-05,1.000000000000000082e-05,-2.000000000000000164e-05,2.000000000000000164e-05,-1.000000000000000082e-05,-1.000000000000000082e-05,1.000000000000000000e+00,1.300000000000000000e+01
2.727800000000000000e+04,1.000000000000000082e-05,0.000000000000000000e+00,-1.000000000000000082e-05,1.000000000000000082e-05,-2.000000000000000164e-05,2.000000000000000164e-05,-1.000000000000000082e-05,-1.000000000000000082e-05,1.000000000000000000e+00,1.300000000000000000e+01
2.727900000000000000e+04,1.000000000000000082e-05,0.000000000000000000e+00,-1.000000000000000082e-05,1.000000000000000082e-05,-2.000000000000000164e-05,2.000000000000000164e-05,-1.000000000000000082e-05,-1.000000000000000082e-05,1.000000000000000000e+00,1.300000000000000000e+01
2.728000000000000000e+04,1.000000000000000082e-05,0.000000000000000000e+00,-1.000000000000000082e-05,1.000000000000000082e-05,-2.000000000000000164e-05,2.000000000000000164e-05,-1.000000000000000082e-05,-1.000000000000000082e-05,1.000000000000000000e+00,1.300000000000000000e+01
2.728100000000000000e+04,1.000000000000000082e-05,0.000000000000000000e+00,-1.000000000000000082e-05,1.000000000000000082e-05,-2.000000000000000164e-05,2.000000000000000164e-05,-1.000000000000000082e-05,-1.000000000000000082e-05,1.000000000000000000e+00,1.300000000000000000e+01
2.728200000000000000e+04,1.000000000000000082e-05,0.000000000000000000e+00,-1.000000000000000082e-05,1.000000000000000082e-05,-2.000000000000000164e-05,2.000000000000000164e-05,-1.000000000000000082e-05,-1.000000000000000082e-05,1.000000000000000000e+00,1.300000000000000000e+01
2.728300000000000000e+04,1.000000000000000082e-05,0.000000000000000000e+00,-1.000000000000000082e-05,1.000000000000000082e-05,-2.000000000000000164e-05,2.000000000000000164e-05,-1.000000000000000082e-05,-1.000000000000000082e-05,1.000000000000000000e+00,1.300000000000000000e+01
2.728400000000000000e+04,1.000000000000000082e-05,0.000000000000000000e+00,-1.000000000000000082e-05,1.000000000000000082e-05,-2.000000000000000164e-05,2.000000000000000164e-05,-1.000000000000000082e-05,-1.000000000000000082e-05,1.000000000000000000e+00,1.300000000000000000e+01
2.728500000000000000e+04,1.000000000000000082e-05,0.000000000000000000e+00,-1.000000000000000082e-05,1.000000000000000082e-05,-2.000000000000000164e-05,2.000000000000000164e-05,-1.000000000000000082e-05,-1.000000000000000082e-05,1.000000000000000000e+00,1.300000000000000000e+01
2.728600000000000000e+04,1.000000000000000082e-05,0.000000000000000000e+00,-1.000000000000000082e-05,1.000000000000000082e-05,-2.000000000000000164e-05,2.000000000000000164e-05,-1.000000000000000082e-05,-1.000000000000000082e-05,1.000000000000000000e+00,1.300000000000000000e+01
2.728800000000000000e+04,1.000000000000000082e-05,0.000000000000000000e+00,-1.000000000000000082e-05,1.000000000000000082e-05,-2.000000000000000164e-05,2.000000000000000164e-05,-1.000000000000000082e-05,-1.000000000000000082e-05,1.000000000000000000e+00,1.300000000000000000e+01
2.728900000000000000e+04,1.000000000000000082e-05,0.000000000000000000e+00,-1.000000000000000082e-05,1.000000000000000082e-05,-2.000000000000000164e-05,2.000000000000000164e-05,-1.000000000000000082e-05,-1.000000000000000082e-05,1.000000000000000000e+00,1.300000000000000000e+01
2.729000000000000000e+04,1.000000000000000082e-05,0.000000000000000000e+00,-1.000000000000000082e-05,1.000000000000000082e-05,-2.000000000000000164e-05,2.000000000000000164e-05,-1.000000000000000082e-05,-1.000000000000000082e-05,1.000000000000000000e+00,1.300000000000000000e+01
2.729100000000000000e+04,1.000000000000000082e-05,0.000000000000000000e+00,-1.000000000000000082e-05,1.000000000000000082e-05,-2.000000000000000164e-05,2.000000000000000164e-05,-1.000000000000000082e-05,-1.000000000000000082e-05,1.000000000000000000e+00,1.300000000000000000e+01
2.729200000000000000e+04,1.000000000000000082e-05,0.000000000000000000e+00,-1.000000000000000082e-05,1.000000000000000082e-05,-2.000000000000000164e-05,2.000000000000000164e-05,-1.000000000000000082e-05,-1.000000000000000082e-05,1.000000000000000000e+00,1.300000000000000000e+01
2.729300000000000000e+04,1.000000000000000082e-05,0.000000000000000000e+00,-1.000000000000000082e-05,1.000000000000000082e-05,-2.000000000000000164e-05,2.000000000000000164e-05,-1.000000000000000082e-05,-1.000000000000000082e-05,1.000000000000000000e+00,1.300000000000000000e+01
2.729400000000000000e+04,-1.000000000000000082e-05,-2.999999999999999737e-05,-1.000000000000000082e-05,0.000000000000000000e+00,-1.000000000000000082e-05,-2.000000000000000164e-05,-2.999999999999999737e-05,-1.000000000000000082e-05,1.000000000000000000e+00,1.300000000000000000e+01
2.729500000000000000e+04,-1.000000000000000082e-05,-2.999999999999999737e-05,-1.000000000000000082e-05,0.000000000000000000e+00,-1.000000000000000082e-05,-2.000000000000000164e-05,-2.999999999999999737e-05,-1.000000000000000082e-05,1.000000000000000000e+00,1.300000000000000000e+01
2.729600000000000000e+04,0.000000000000000000e+00,1.000000000000000082e-05,-2.000000000000000164e-05,0.000000000000000000e+00,-2.999999999999999737e-05,-1.000000000000000082e-05,-2.000000000000000164e-05,-2.000000000000000164e-05,1.000000000000000000e+00,1.300000000000000000e+01
2.729700000000000000e+04,0.000000000000000000e+00,1.000000000000000082e-05,-2.000000000000000164e-05,0.000000000000000000e+00,-2.999999999999999737e-05,-1.000000000000000082e-05,-2.000000000000000164e-05,-2.000000000000000164e-05,1.000000000000000000e+00,1.300000000000000000e+01
2.729800000000000000e+04,0.000000000000000000e+00,1.000000000000000082e-05,-2.000000000000000164e-05,0.000000000000000000e+00,-2.999999999999999737e-05,-1.000000000000000082e-05,-2.000000000000000164e-05,-2.000000000000000164e-05,1.000000000000000000e+00,1.300000000000000000e+01
2.729900000000000000e+04,0.000000000000000000e+00,1.000000000000000082e-05,-2.000000000000000164e-05,0.000000000000000000e+00,-2.999999999999999737e-05,-1.000000000000000082e-05,-2.000000000000000164e-05,-2.000000000000000164e-05,1.000000000000000000e+00,1.300000000000000000e+01
2.730000000000000000e+04,0.000000000000000000e+00,1.000000000000000082e-05,-2.000000000000000164e-05,0.000000000000000000e+00,-2.999999999999999737e-05,-1.000000000000000082e-05,-2.000000000000000164e-05,-2.000000000000000164e-05,1.000000000000000000e+00,1.300000000000000000e+01
2.730100000000000000e+04,0.000000000000000000e+00,1.000000000000000082e-05,-2.000000000000000164e-05,0.000000000000000000e+00,-2.999999999999999737e-05,-1.000000000000000082e-05,-2.000000000000000164e-05,-2.000000000000000164e-05,1.000000000000000000e+00,1.300000000000000000e+01
2.730200000000000000e+04,0.000000000000000000e+00,1.000000000000000082e-05,-2.000000000000000164e-05,0.000000000000000000e+00,-2.999999999999999737e-05,-1.000000000000000082e-05,-2.000000000000000164e-05,-2.000000000000000164e-05,1.000000000000000000e+00,1.300000000000000000e+01
2.730300000000000000e+04,0.000000000000000000e+00,1.000000000000000082e-05,-2.000000000000000164e-05,0.000000000000000000e+00,-2.999999999999999737e-05,-1.000000000000000082e-05,-2.000000000000000164e-05,-2.000000000000000164e-05,1.000000000000000000e+00,1.300000000000000000e+01
2.730400000000000000e+04,0.000000000000000000e+00,1.000000000000000082e-05,-2.000000000000000164e-05,0.000000000000000000e+00,-2.999999999999999737e-05,-1.000000000000000082e-05,-2.000000000000000164e-05,-2.000000000000000164e-05,1.000000000000000000e+00,1.300000000000000000e+01
2.730500000000000000e+04,0.000000000000000000e+00,1.000000000000000082e-05,-2.000000000000000164e-05,0.000000000000000000e+00,-2.999999999999999737e-05,-1.000000000000000082e-05,-2.000000000000000164e-05,-2.000000000000000164e-05,1.000000000000000000e+00,1.300000000000000000e+01
2.730600000000000000e+04,0.000000000000000000e+00,1.000000000000000082e-05,-2.000000000000000164e-05,0.000000000000000000e+00,-2.999999999999999737e-05,-1.000000000000000082e-05,-2.000000000000000164e-05,-2.000000000000000164e-05,1.000000000000000000e+00,1.300000000000000000e+01
2.730700000000000000e+04,0.000000000000000000e+00,1.000000000000000082e-05,-2.000000000000000164e-05,0.000000000000000000e+00,-2.999999999999999737e-05,-1.000000000000000082e-05,-2.000000000000000164e-05,-2.000000000000000164e-05,1.000000000000000000e+00,1.300000000000000000e+01
2.730800000000000000e+04,0.000000000000000000e+00,1.000000000000000082e-05,-2.000000000000000164e-05,0.000000000000000000e+00,-2.999999999999999737e-05,-1.000000000000000082e-05,-2.000000000000000164e-05,-2.000000000000000164e-05,1.000000000000000000e+00,1.300000000000000000e+01
2.730900000000000000e+04,-2.000000000000000164e-05,-2.999999999999999737e-05,-1.000000000000000082e-05,-1.000000000000000082e-05,0.000000000000000000e+00,0.000000000000000000e+00,-1.000000000000000082e-05,-1.000000000000000082e-05,1.000000000000000000e+00,1.300000000000000000e+01
2.731000000000000000e+04,0.000000000000000000e+00,-4.000000000000000327e-05,0.000000000000000000e+00,-2.000000000000000164e-05,0.000000000000000000e+00,-2.999999999999999737e-05,-2.000000000000000164e-05,-1.000000000000000082e-05,1.000000000000000000e+00,1.300000000000000000e+01
2.731100000000000000e+04,0.000000000000000000e+00,-4.000000000000000327e-05,0.000000000000000000e+00,-2.000000000000000164e-05,0.000000000000000000e+00,-2.999999999999999737e-05,-2.000000000000000164e-05,-1.000000000000000082e-05,1.000000000000000000e+00,1.300000000000000000e+01
2.731200000000000000e+04,0.000000000000000000e+00,-4.000000000000000327e-05,0.000000000000000000e+00,-2.000000000000000164e-05,0.000000000000000000e+00,-2.999999999999999737e-05,-2.000000000000000164e-05,-1.000000000000000082e-05,1.000000000000000000e+00,1.300000000000000000e+01
2.731300000000000000e+04,0.000000000000000000e+00,-4.000000000000000327e-05,0.000000000000000000e+00,-2.000000000000000164e-05,0.000000000000000000e+00,-2.999999999999999737e-05,-2.000000000000000164e-05,-1.000000000000000082e-05,1.000000000000000000e+00,1.300000000000000000e+01
2.731400000000000000e+04,0.000000000000000000e+00,-4.000000000000000327e-05,0.000000000000000000e+00,-2.000000000000000164e-05,0.000000000000000000e+00,-2.999999999999999737e-05,-2.000000000000000164e-05,-1.000000000000000082e-05,1.000000000000000000e+00,1.300000000000000000e+01
2.731500000000000000e+04,0.000000000000000000e+00,-4.000000000000000327e-05,0.000000000000000000e+00,-2.000000000000000164e-05,0.000000000000000000e+00,-2.999999999999999737e-05,-2.000000000000000164e-05,-1.000000000000000082e-05,1.000000000000000000e+00,1.300000000000000000e+01
2.731600000000000000e+04,0.000000000000000000e+00,-4.000000000000000327e-05,0.000000000000000000e+00,-2.000000000000000164e-05,0.000000000000000000e+00,-2.999999999999999737e-05,-2.000000000000000164e-05,-1.000000000000000082e-05,1.000000000000000000e+00,1.300000000000000000e+01
2.731700000000000000e+04,0.000000000000000000e+00,-4.000000000000000327e-05,0.000000000000000000e+00,-2.000000000000000164e-05,0.000000000000000000e+00,-2.999999999999999737e-05,-2.000000000000000164e-05,-1.000000000000000082e-05,1.000000000000000000e+00,1.300000000000000000e+01
2.731800000000000000e+04,0.000000000000000000e+00,-4.000000000000000327e-05,0.000000000000000000e+00,-2.000000000000000164e-05,0.000000000000000000e+00,-2.999999999999999737e-05,-2.000000000000000164e-05,-1.000000000000000082e-05,1.000000000000000000e+00,1.300000000000000000e+01
2.731900000000000000e+04,0.000000000000000000e+00,-4.000000000000000327e-05,0.000000000000000000e+00,-2.000000000000000164e-05,0.000000000000000000e+00,-2.999999999999999737e-05,-2.000000000000000164e-05,-1.000000000000000082e-05,1.000000000000000000e+00,1.300000000000000000e+01
2.732000000000000000e+04,0.000000000000000000e+00,-4.000000000000000327e-05,0.000000000000000000e+00,-2.000000000000000164e-05,0.000000000000000000e+00,-2.999999999999999737e-05,-2.000000000000000164e-05,-1.000000000000000082e-05,1.000000000000000000e+00,1.300000000000000000e+01
2.732100000000000000e+04,0.000000000000000000e+00,-4.000000000000000327e-05,0.000000000000000000e+00,-2.000000000000000164e-05,0.000000000000000000e+00,-2.999999999999999737e-05,-2.000000000000000164e-05,-1.000000000000000082e-05,1.000000000000000000e+00,1.300000000000000000e+01
2.732200000000000000e+04,0.000000000000000000e+00,-4.000000000000000327e-05,0.000000000000000000e+00,-2.000000000000000164e-05,0.000000000000000000e+00,-2.999999999999999737e-05,-2.000000000000000164e-05,-1.000000000000000082e-05,1.000000000000000000e+00,1.300000000000000000e+01
2.732300000000000000e+04,0.000000000000000000e+00,-4.000000000000000327e-05,0.000000000000000000e+00,-2.000000000000000164e-05,0.000000000000000000e+00,-2.999999999999999737e-05,-2.000000000000000164e-05,-1.000000000000000082e-05,1.000000000000000000e+00,1.300000000000000000e+01
2.732400000000000000e+04,0.000000000000000000e+00,-4.000000000000000327e-05,0.000000000000000000e+00,-2.000000000000000164e-05,0.000000000000000000e+00,-2.999999999999999737e-05,-2.000000000000000164e-05,-1.000000000000000082e-05,1.000000000000000000e+00,1.300000000000000000e+01
2.732500000000000000e+04,0.000000000000000000e+00,-4.000000000000000327e-05,0.000000000000000000e+00,-2.000000000000000164e-05,0.000000000000000000e+00,-2.999999999999999737e-05,-2.000000000000000164e-05,-1.000000000000000082e-05,1.000000000000000000e+00,1.300000000000000000e+01
2.732600000000000000e+04,0.000000000000000000e+00,-4.000000000000000327e-05,0.000000000000000000e+00,-2.000000000000000164e-05,0.000000000000000000e+00,-2.999999999999999737e-05,-2.000000000000000164e-05,-1.000000000000000082e-05,1.000000000000000000e+00,1.300000000000000000e+01
2.732700000000000000e+04,0.000000000000000000e+00,-4.000000000000000327e-05,0.000000000000000000e+00,-2.000000000000000164e-05,0.000000000000000000e+00,-2.999999999999999737e-05,-2.000000000000000164e-05,-1.000000000000000082e-05,1.000000000000000000e+00,1.300000000000000000e+01
2.732800000000000000e+04,0.000000000000000000e+00,-4.000000000000000327e-05,0.000000000000000000e+00,-2.000000000000000164e-05,0.000000000000000000e+00,-2.999999999999999737e-05,-2.000000000000000164e-05,-1.000000000000000082e-05,1.000000000000000000e+00,1.300000000000000000e+01
2.732900000000000000e+04,0.000000000000000000e+00,-4.000000000000000327e-05,0.000000000000000000e+00,-2.000000000000000164e-05,0.000000000000000000e+00,-2.999999999999999737e-05,-2.000000000000000164e-05,-1.000000000000000082e-05,1.000000000000000000e+00,1.300000000000000000e+01
2.733000000000000000e+04,0.000000000000000000e+00,-4.000000000000000327e-05,0.000000000000000000e+00,-2.000000000000000164e-05,0.000000000000000000e+00,-2.999999999999999737e-05,-2.000000000000000164e-05,-1.000000000000000082e-05,1.000000000000000000e+00,1.300000000000000000e+01
2.733100000000000000e+04,-1.000000000000000082e-05,1.000000000000000082e-05,-1.000000000000000082e-05,0.000000000000000000e+00,1.000000000000000082e-05,-1.000000000000000082e-05,-2.999999999999999737e-05,0.000000000000000000e+00,1.000000000000000000e+00,1.300000000000000000e+01
2.733200000000000000e+04,-1.000000000000000082e-05,1.000000000000000082e-05,-1.000000000000000082e-05,0.000000000000000000e+00,1.000000000000000082e-05,-1.000000000000000082e-05,-2.999999999999999737e-05,0.000000000000000000e+00,1.000000000000000000e+00,1.300000000000000000e+01
2.733300000000000000e+04,-2.000000000000000164e-05,-2.000000000000000164e-05,-2.999999999999999737e-05,-1.000000000000000082e-05,-1.000000000000000082e-05,-1.000000000000000082e-05,0.000000000000000000e+00,1.000000000000000082e-05,1.000000000000000000e+00,1.300000000000000000e+01
2.733400000000000000e+04,-2.000000000000000164e-05,-2.000000000000000164e-05,-2.999999999999999737e-05,-1.000000000000000082e-05,-1.000000000000000082e-05,-1.000000000000000082e-05,0.000000000000000000e+00,1.000000000000000082e-05,1.000000000000000000e+00,1.300000000000000000e+01
2.733500000000000000e+04,-2.000000000000000164e-05,-2.000000000000000164e-05,-2.999999999999999737e-05,-1.000000000000000082e-05,-1.000000000000000082e-05,-1.000000000000000082e-05,0.000000000000000000e+00,1.000000000000000082e-05,1.000000000000000000e+00,1.300000000000000000e+01
2.733600000000000000e+04,-2.000000000000000164e-05,-2.000000000000000164e-05,-2.999999999999999737e-05,-1.000000000000000082e-05,-1.000000000000000082e-05,-1.000000000000000082e-05,0.000000000000000000e+00,1.000000000000000082e-05,1.000000000000000000e+00,1.300000000000000000e+01
2.733800000000000000e+04,-2.000000000000000164e-05,-2.000000000000000164e-05,-2.999999999999999737e-05,-1.000000000000000082e-05,-1.000000000000000082e-05,-1.000000000000000082e-05,0.000000000000000000e+00,1.000000000000000082e-05,1.000000000000000000e+00,1.300000000000000000e+01
2.733900000000000000e+04,-2.000000000000000164e-05,-2.000000000000000164e-05,-2.999999999999999737e-05,-1.000000000000000082e-05,-1.000000000000000082e-05,-1.000000000000000082e-05,0.000000000000000000e+00,1.000000000000000082e-05,1.000000000000000000e+00,1.300000000000000000e+01
2.734000000000000000e+04,-2.000000000000000164e-05,-2.000000000000000164e-05,-2.999999999999999737e-05,-1.000000000000000082e-05,-1.000000000000000082e-05,-1.000000000000000082e-05,0.000000000000000000e+00,1.000000000000000082e-05,1.000000000000000000e+00,1.300000000000000000e+01
2.734100000000000000e+04,-2.000000000000000164e-05,-2.000000000000000164e-05,-2.999999999999999737e-05,-1.000000000000000082e-05,-1.000000000000000082e-05,-1.000000000000000082e-05,0.000000000000000000e+00,1.000000000000000082e-05,1.000000000000000000e+00,1.300000000000000000e+01
2.734200000000000000e+04,-2.000000000000000164e-05,-2.000000000000000164e-05,-2.999999999999999737e-05,-1.000000000000000082e-05,-1.000000000000000082e-05,-1.000000000000000082e-05,0.000000000000000000e+00,1.000000000000000082e-05,1.000000000000000000e+00,1.300000000000000000e+01
2.734300000000000000e+04,-2.000000000000000164e-05,-2.000000000000000164e-05,-2.999999999999999737e-05,-1.000000000000000082e-05,-1.000000000000000082e-05,-1.000000000000000082e-05,0.000000000000000000e+00,1.000000000000000082e-05,1.000000000000000000e+00,1.300000000000000000e+01
2.734400000000000000e+04,-2.000000000000000164e-05,-2.000000000000000164e-05,-2.999999999999999737e-05,-1.000000000000000082e-05,-1.000000000000000082e-05,-1.000000000000000082e-05,0.000000000000000000e+00,1.000000000000000082e-05,1.000000000000000000e+00,1.300000000000000000e+01
2.734500000000000000e+04,-2.000000000000000164e-05,-2.000000000000000164e-05,-2.999999999999999737e-05,-1.000000000000000082e-05,-1.000000000000000082e-05,-1.000000000000000082e-05,0.000000000000000000e+00,1.000000000000000082e-05,1.000000000000000000e+00,1.300000000000000000e+01
2.734600000000000000e+04,-2.000000000000000164e-05,-2.000000000000000164e-05,-2.999999999999999737e-05,-1.000000000000000082e-05,-1.000000000000000082e-05,-1.000000000000000082e-05,0.000000000000000000e+00,1.000000000000000082e-05,1.000000000000000000e+00,1.300000000000000000e+01
2.734700000000000000e+04,-2.000000000000000164e-05,-2.000000000000000164e-05,-2.999999999999999737e-05,-1.000000000000000082e-05,-1.000000000000000082e-05,-1.000000000000000082e-05,0.000000000000000000e+00,1.000000000000000082e-05,1.000000000000000000e+00,1.300000000000000000e+01
2.734800000000000000e+04,-2.000000000000000164e-05,-2.000000000000000164e-05,-2.999999999999999737e-05,-1.000000000000000082e-05,-1.000000000000000082e-05,-1.000000000000000082e-05,0.000000000000000000e+00,1.000000000000000082e-05,1.000000000000000000e+00,1.300000000000000000e+01
2.734900000000000000e+04,-2.000000000000000164e-05,-2.000000000000000164e-05,-2.999999999999999737e-05,-1.000000000000000082e-05,-1.000000000000000082e-05,-1.000000000000000082e-05,0.000000000000000000e+00,1.000000000000000082e-05,1.000000000000000000e+00,1.300000000000000000e+01
2.735000000000000000e+04,-2.000000000000000164e-05,-2.000000000000000164e-05,-2.999999999999999737e-05,-1.000000000000000082e-05,-1.000000000000000082e-05,-1.000000000000000082e-05,0.000000000000000000e+00,1.000000000000000082e-05,1.000000000000000000e+00,1.300000000000000000e+01
2.735100000000000000e+04,-2.000000000000000164e-05,-2.000000000000000164e-05,-2.999999999999999737e-05,-1.000000000000000082e-05,-1.000000000000000082e-05,-1.000000000000000082e-05,0.000000000000000000e+00,1.000000000000000082e-05,1.000000000000000000e+00,1.300000000000000000e+01
2.735200000000000000e+04,-2.000000000000000164e-05,-2.000000000000000164e-05,-2.999999999999999737e-05,-1.000000000000000082e-05,-1.000000000000000082e-05,-1.000000000000000082e-05,0.000000000000000000e+00,1.000000000000000082e-05,1.000000000000000000e+00,1.300000000000000000e+01
2.735300000000000000e+04,-2.000000000000000164e-05,-2.000000000000000164e-05,-2.999999999999999737e-05,-1.000000000000000082e-05,-1.000000000000000082e-05,-1.000000000000000082e-05,0.000000000000000000e+00,1.000000000000000082e-05,1.000000000000000000e+00,1.300000000000000000e+01
2.735400000000000000e+04,-2.000000000000000164e-05,0.000000000000000000e+00,-2.000000000000000164e-05,0.000000000000000000e+00,-2.000000000000000164e-05,1.000000000000000082e-05,-1.000000000000000082e-05,-2.000000000000000164e-05,1.000000000000000000e+00,1.300000000000000000e+01
2.735500000000000000e+04,-1.000000000000000082e-05,0.000000000000000000e+00,2.000000000000000164e-05,2.999999999999999737e-05,0.000000000000000000e+00,1.000000000000000082e-05,1.000000000000000082e-05,-1.000000000000000082e-05,1.000000000000000000e+00,1.300000000000000000e+01
2.735600000000000000e+04,-1.000000000000000082e-05,0.000000000000000000e+00,2.000000000000000164e-05,2.999999999999999737e-05,0.000000000000000000e+00,1.000000000000000082e-05,1.000000000000000082e-05,-1.000000000000000082e-05,1.000000000000000000e+00,1.300000000000000000e+01
2.735700000000000000e+04,-1.000000000000000082e-05,0.000000000000000000e+00,2.000000000000000164e-05,2.999999999999999737e-05,0.000000000000000000e+00,1.000000000000000082e-05,1.000000000000000082e-05,-1.000000000000000082e-05,1.000000000000000000e+00,1.300000000000000000e+01
2.735800000000000000e+04,-1.000000000000000082e-05,0.000000000000000000e+00,2.000000000000000164e-05,2.999999999999999737e-05,0.000000000000000000e+00,1.000000000000000082e-05,1.000000000000000082e-05,-1.000000000000000082e-05,1.000000000000000000e+00,1.300000000000000000e+01
2.735900000000000000e+04,-1.000000000000000082e-05,0.000000000000000000e+00,2.000000000000000164e-05,2.999999999999999737e-05,0.000000000000000000e+00,1.000000000000000082e-05,1.000000000000000082e-05,-1.000000000000000082e-05,1.000000000000000000e+00,1.300000000000000000e+01
2.736000000000000000e+04,-1.000000000000000082e-05,0.000000000000000000e+00,2.000000000000000164e-05,2.999999999999999737e-05,0.000000000000000000e+00,1.000000000000000082e-05,1.000000000000000082e-05,-1.000000000000000082e-05,1.000000000000000000e+00,1.300000000000000000e+01
2.736100000000000000e+04,-1.000000000000000082e-05,0.000000000000000000e+00,2.000000000000000164e-05,2.999999999999999737e-05,0.000000000000000000e+00,1.000000000000000082e-05,1.000000000000000082e-05,-1.000000000000000082e-05,1.000000000000000000e+00,1.300000000000000000e+01
2.736200000000000000e+04,-1.000000000000000082e-05,0.000000000000000000e+00,2.000000000000000164e-05,2.999999999999999737e-05,0.000000000000000000e+00,1.000000000000000082e-05,1.000000000000000082e-05,-1.000000000000000082e-05,1.000000000000000000e+00,1.300000000000000000e+01
2.736300000000000000e+04,-1.000000000000000082e-05,0.000000000000000000e+00,2.000000000000000164e-05,2.999999999999999737e-05,0.000000000000000000e+00,1.000000000000000082e-05,1.000000000000000082e-05,-1.000000000000000082e-05,1.000000000000000000e+00,1.300000000000000000e+01
2.736400000000000000e+04,-1.000000000000000082e-05,0.000000000000000000e+00,2.000000000000000164e-05,2.999999999999999737e-05,0.000000000000000000e+00,1.000000000000000082e-05,1.000000000000000082e-05,-1.000000000000000082e-05,1.000000000000000000e+00,1.300000000000000000e+01
2.736500000000000000e+04,-1.000000000000000082e-05,0.000000000000000000e+00,2.000000000000000164e-05,2.999999999999999737e-05,0.000000000000000000e+00,1.000000000000000082e-05,1.000000000000000082e-05,-1.000000000000000082e-05,1.000000000000000000e+00,1.300000000000000000e+01
2.736600000000000000e+04,-1.000000000000000082e-05,0.000000000000000000e+00,2.000000000000000164e-05,2.999999999999999737e-05,0.000000000000000000e+00,1.000000000000000082e-05,1.000000000000000082e-05,-1.000000000000000082e-05,1.000000000000000000e+00,1.300000000000000000e+01
2.736700000000000000e+04,-1.000000000000000082e-05,0.000000000000000000e+00,2.000000000000000164e-05,2.999999999999999737e-05,0.000000000000000000e+00,1.000000000000000082e-05,1.000000000000000082e-05,-1.000000000000000082e-05,1.000000000000000000e+00,1.300000000000000000e+01
2.736800000000000000e+04,-1.000000000000000082e-05,0.000000000000000000e+00,2.000000000000000164e-05,2.999999999999999737e-05,0.000000000000000000e+00,1.000000000000000082e-05,1.000000000000000082e-05,-1.000000000000000082e-05,1.000000000000000000e+00,1.300000000000000000e+01
2.736900000000000000e+04,-2.999999999999999737e-05,-4.000000000000000327e-05,-2.000000000000000164e-05,-2.000000000000000164e-05,-4.000000000000000327e-05,-5.000000000000000240e-05,-1.000000000000000082e-05,-1.000000000000000082e-05,1.000000000000000000e+00,1.300000000000000000e+01
2.737000000000000000e+04,-1.000000000000000082e-05,-1.000000000000000082e-05,-2.999999999999999737e-05,-1.000000000000000082e-05,-2.000000000000000164e-05,-1.000000000000000082e-05,-1.000000000000000082e-05,0.000000000000000000e+00,1.000000000000000000e+00,1.300000000000000000e+01
2.737100000000000000e+04,-1.000000000000000082e-05,-1.000000000000000082e-05,-2.999999999999999737e-05,-1.000000000000000082e-05,-2.000000000000000164e-05,-1.000000000000000082e-05,-1.000000000000000082e-05,0.000000000000000000e+00,1.000000000000000000e+00,1.300000000000000000e+01
2.737200000000000000e+04,-1.000000000000000082e-05,-1.000000000000000082e-05,-2.999999999999999737e-05,-1.000000000000000082e-05,-2.000000000000000164e-05,-1.000000000000000082e-05,-1.000000000000000082e-05,0.000000000000000000e+00,1.000000000000000000e+00,1.300000000000000000e+01
2.737300000000000000e+04,-1.000000000000000082e-05,-1.000000000000000082e-05,-2.999999999999999737e-05,-1.000000000000000082e-05,-2.000000000000000164e-05,-1.000000000000000082e-05,-1.000000000000000082e-05,0.000000000000000000e+00,1.000000000000000000e+00,1.300000000000000000e+01
2.737400000000000000e+04,-1.000000000000000082e-05,-1.000000000000000082e-05,-2.999999999999999737e-05,-1.000000000000000082e-05,-2.000000000000000164e-05,-1.000000000000000082e-05,-1.000000000000000082e-05,0.000000000000000000e+00,1.000000000000000000e+00,1.300000000000000000e+01
2.737500000000000000e+04,-1.000000000000000082e-05,-1.000000000000000082e-05,-2.999999999999999737e-05,-1.000000000000000082e-05,-2.000000000000000164e-05,-1.000000000000000082e-05,-1.000000000000000082e-05,0.000000000000000000e+00,1.000000000000000000e+00,1.300000000000000000e+01
2.737600000000000000e+04,-1.000000000000000082e-05,-1.000000000000000082e-05,-2.999999999999999737e-05,-1.000000000000000082e-05,-2.000000000000000164e-05,-1.000000000000000082e-05,-1.000000000000000082e-05,0.000000000000000000e+00,1.000000000000000000e+00,1.300000000000000000e+01
2.737700000000000000e+04,-1.000000000000000082e-05,-1.000000000000000082e-05,-2.999999999999999737e-05,-1.000000000000000082e-05,-2.000000000000000164e-05,-1.000000000000000082e-05,-1.000000000000000082e-05,0.000000000000000000e+00,1.000000000000000000e+00,1.300000000000000000e+01
2.737800000000000000e+04,-1.000000000000000082e-05,-1.000000000000000082e-05,-2.999999999999999737e-05,-1.000000000000000082e-05,-2.000000000000000164e-05,-1.000000000000000082e-05,-1.000000000000000082e-05,0.000000000000000000e+00,1.000000000000000000e+00,1.300000000000000000e+01
2.737900000000000000e+04,-1.000000000000000082e-05,-1.000000000000000082e-05,-2.999999999999999737e-05,-1.000000000000000082e-05,-2.000000000000000164e-05,-1.000000000000000082e-05,-1.000000000000000082e-05,0.000000000000000000e+00,1.000000000000000000e+00,1.300000000000000000e+01
2.738000000000000000e+04,-1.000000000000000082e-05,-1.000000000000000082e-05,-2.999999999999999737e-05,-1.000000000000000082e-05,-2.000000000000000164e-05,-1.000000000000000082e-05,-1.000000000000000082e-05,0.000000000000000000e+00,1.000000000000000000e+00,1.300000000000000000e+01
2.738100000000000000e+04,-1.000000000000000082e-05,-1.000000000000000082e-05,-2.999999999999999737e-05,-1.000000000000000082e-05,-2.000000000000000164e-05,-1.000000000000000082e-05,-1.000000000000000082e-05,0.000000000000000000e+00,1.000000000000000000e+00,1.300000000000000000e+01
2.738200000000000000e+04,-1.000000000000000082e-05,-1.000000000000000082e-05,-2.999999999999999737e-05,-1.000000000000000082e-05,-2.000000000000000164e-05,-1.000000000000000082e-05,-1.000000000000000082e-05,0.000000000000000000e+00,1.000000000000000000e+00,1.300000000000000000e+01
2.738300000000000000e+04,-1.000000000000000082e-05,-1.000000000000000082e-05,-2.999999999999999737e-05,-1.000000000000000082e-05,-2.000000000000000164e-05,-1.000000000000000082e-05,-1.000000000000000082e-05,0.000000000000000000e+00,1.000000000000000000e+00,1.300000000000000000e+01
2.738400000000000000e+04,-1.000000000000000082e-05,-1.000000000000000082e-05,-2.999999999999999737e-05,-1.000000000000000082e-05,-2.000000000000000164e-05,-1.000000000000000082e-05,-1.000000000000000082e-05,0.000000000000000000e+00,1.000000000000000000e+00,1.300000000000000000e+01
2.738500000000000000e+04,-1.000000000000000082e-05,-1.000000000000000082e-05,-2.999999999999999737e-05,-1.000000000000000082e-05,-2.000000000000000164e-05,-1.000000000000000082e-05,-1.000000000000000082e-05,0.000000000000000000e+00,1.000000000000000000e+00,1.300000000000000000e+01
2.738600000000000000e+04,-1.000000000000000082e-05,-1.000000000000000082e-05,-2.999999999999999737e-05,-1.000000000000000082e-05,-2.000000000000000164e-05,-1.000000000000000082e-05,-1.000000000000000082e-05,0.000000000000000000e+00,1.000000000000000000e+00,1.300000000000000000e+01
2.738800000000000000e+04,-1.000000000000000082e-05,-1.000000000000000082e-05,-2.999999999999999737e-05,-1.000000000000000082e-05,-2.000000000000000164e-05,-1.000000000000000082e-05,-1.000000000000000082e-05,0.000000000000000000e+00,1.000000000000000000e+00,1.300000000000000000e+01
2.738900000000000000e+04,-1.000000000000000082e-05,-1.000000000000000082e-05,-2.999999999999999737e-05,-1.000000000000000082e-05,-2.000000000000000164e-05,-1.000000000000000082e-05,-1.000000000000000082e-05,0.000000000000000000e+00,1.000000000000000000e+00,1.300000000000000000e+01
2.739000000000000000e+04,-1.000000000000000082e-05,-1.000000000000000082e-05,-2.999999999999999737e-05,-1.000000000000000082e-05,-2.000000000000000164e-05,-1.000000000000000082e-05,-1.000000000000000082e-05,0.000000000000000000e+00,1.000000000000000000e+00,1.300000000000000000e+01
2.739100000000000000e+04,-1.000000000000000082e-05,-1.000000000000000082e-05,-2.999999999999999737e-05,-1.000000000000000082e-05,-2.000000000000000164e-05,-1.000000000000000082e-05,-1.000000000000000082e-05,0.000000000000000000e+00,1.000000000000000000e+00,1.300000000000000000e+01
2.739200000000000000e+04,-1.000000000000000082e-05,-1.000000000000000082e-05,-2.999999999999999737e-05,-1.000000000000000082e-05,-2.000000000000000164e-05,-1.000000000000000082e-05,-1.000000000000000082e-05,0.000000000000000000e+00,1.000000000000000000e+00,1.300000000000000000e+01
2.739300000000000000e+04,-1.000000000000000082e-05,-1.000000000000000082e-05,-2.999999999999999737e-05,-1.000000000000000082e-05,-2.000000000000000164e-05,-1.000000000000000082e-05,-1.000000000000000082e-05,0.000000000000000000e+00,1.000000000000000000e+00,1.300000000000000000e+01
2.739400000000000000e+04,-1.000000000000000082e-05,-1.000000000000000082e-05,-2.999999999999999737e-05,-1.000000000000000082e-05,-2.000000000000000164e-05,-1.000000000000000082e-05,-1.000000000000000082e-05,0.000000000000000000e+00,1.000000000000000000e+00,1.300000000000000000e+01
2.739500000000000000e+04,-1.000000000000000082e-05,-1.000000000000000082e-05,-2.999999999999999737e-05,-1.000000000000000082e-05,-2.000000000000000164e-05,-1.000000000000000082e-05,-1.000000000000000082e-05,0.000000000000000000e+00,1.000000000000000000e+00,1.300000000000000000e+01
2.739600000000000000e+04,-1.000000000000000082e-05,-1.000000000000000082e-05,-2.999999999999999737e-05,-1.000000000000000082e-05,-2.000000000000000164e-05,-1.000000000000000082e-05,-1.000000000000000082e-05,0.000000000000000000e+00,1.000000000000000000e+00,1.300000000000000000e+01
2.739700000000000000e+04,-1.000000000000000082e-05,-1.000000000000000082e-05,-2.999999999999999737e-05,-1.000000000000000082e-05,-2.000000000000000164e-05,-1.000000000000000082e-05,-1.000000000000000082e-05,0.000000000000000000e+00,1.000000000000000000e+00,1.300000000000000000e+01
2.739800000000000000e+04,-1.000000000000000082e-05,-1.000000000000000082e-05,-2.999999999999999737e-05,-1.000000000000000082e-05,-2.000000000000000164e-05,-1.000000000000000082e-05,-1.000000000000000082e-05,0.000000000000000000e+00,1.000000000000000000e+00,1.300000000000000000e+01
2.739900000000000000e+04,-1.000000000000000082e-05,-1.000000000000000082e-05,-2.999999999999999737e-05,-1.000000000000000082e-05,-2.000000000000000164e-05,-1.000000000000000082e-05,-1.000000000000000082e-05,0.000000000000000000e+00,1.000000000000000000e+00,1.300000000000000000e+01
2.740000000000000000e+04,-1.000000000000000082e-05,-1.000000000000000082e-05,-2.999999999999999737e-05,-1.000000000000000082e-05,-2.000000000000000164e-05,-1.000000000000000082e-05,-1.000000000000000082e-05,0.000000000000000000e+00,1.000000000000000000e+00,1.300000000000000000e+01
2.740100000000000000e+04,-1.000000000000000082e-05,-1.000000000000000082e-05,-2.999999999999999737e-05,-1.000000000000000082e-05,-2.000000000000000164e-05,-1.000000000000000082e-05,-1.000000000000000082e-05,0.000000000000000000e+00,1.000000000000000000e+00,1.300000000000000000e+01
2.740200000000000000e+04,-1.000000000000000082e-05,-1.000000000000000082e-05,-2.999999999999999737e-05,-1.000000000000000082e-05,-2.000000000000000164e-05,-1.000000000000000082e-05,-1.000000000000000082e-05,0.000000000000000000e+00,1.000000000000000000e+00,1.300000000000000000e+01
2.740300000000000000e+04,-1.000000000000000082e-05,-1.000000000000000082e-05,-2.999999999999999737e-05,-1.000000000000000082e-05,-2.000000000000000164e-05,-1.000000000000000082e-05,-1.000000000000000082e-05,0.000000000000000000e+00,1.000000000000000000e+00,1.300000000000000000e+01
2.740400000000000000e+04,-1.000000000000000082e-05,-1.000000000000000082e-05,-2.999999999999999737e-05,-1.000000000000000082e-05,-2.000000000000000164e-05,-1.000000000000000082e-05,-1.000000000000000082e-05,0.000000000000000000e+00,1.000000000000000000e+00,1.300000000000000000e+01
2.740500000000000000e+04,-1.000000000000000082e-05,-1.000000000000000082e-05,-2.999999999999999737e-05,-1.000000000000000082e-05,-2.000000000000000164e-05,-1.000000000000000082e-05,-1.000000000000000082e-05,0.000000000000000000e+00,1.000000000000000000e+00,1.300000000000000000e+01
2.740600000000000000e+04,-1.000000000000000082e-05,-1.000000000000000082e-05,-2.999999999999999737e-05,-1.000000000000000082e-05,-2.000000000000000164e-05,-1.000000000000000082e-05,-1.000000000000000082e-05,0.000000000000000000e+00,1.000000000000000000e+00,1.300000000000000000e+01
2.740700000000000000e+04,0.000000000000000000e+00,1.000000000000000082e-05,-1.000000000000000082e-05,0.000000000000000000e+00,0.000000000000000000e+00,-1.000000000000000082e-05,1.000000000000000082e-05,1.000000000000000082e-05,1.000000000000000000e+00,1.300000000000000000e+01
2.740800000000000000e+04,0.000000000000000000e+00,1.000000000000000082e-05,-1.000000000000000082e-05,0.000000000000000000e+00,0.000000000000000000e+00,-1.000000000000000082e-05,1.000000000000000082e-05,1.000000000000000082e-05,1.000000000000000000e+00,1.300000000000000000e+01
2.740900000000000000e+04,-1.000000000000000082e-05,-2.000000000000000164e-05,-1.000000000000000082e-05,-2.000000000000000164e-05,-1.000000000000000082e-05,0.000000000000000000e+00,1.000000000000000082e-05,-2.000000000000000164e-05,1.000000000000000000e+00,1.300000000000000000e+01
2.741000000000000000e+04,-1.000000000000000082e-05,-2.000000000000000164e-05,-1.000000000000000082e-05,-2.000000000000000164e-05,-1.000000000000000082e-05,0.000000000000000000e+00,1.000000000000000082e-05,-2.000000000000000164e-05,1.000000000000000000e+00,1.300000000000000000e+01
2.741100000000000000e+04,-1.000000000000000082e-05,-2.000000000000000164e-05,-1.000000000000000082e-05,-2.000000000000000164e-05,-1.000000000000000082e-05,0.000000000000000000e+00,1.000000000000000082e-05,-2.000000000000000164e-05,1.000000000000000000e+00,1.300000000000000000e+01
2.741200000000000000e+04,-1.000000000000000082e-05,-2.000000000000000164e-05,-1.000000000000000082e-05,-2.000000000000000164e-05,-1.000000000000000082e-05,0.000000000000000000e+00,1.000000000000000082e-05,-2.000000000000000164e-05,1.000000000000000000e+00,1.300000000000000000e+01
2.741300000000000000e+04,-1.000000000000000082e-05,-2.000000000000000164e-05,-1.000000000000000082e-05,-2.000000000000000164e-05,-1.000000000000000082e-05,0.000000000000000000e+00,1.000000000000000082e-05,-2.000000000000000164e-05,1.000000000000000000e+00,1.300000000000000000e+01
2.741400000000000000e+04,0.000000000000000000e+00,-1.000000000000000082e-05,-2.999999999999999737e-05,-2.999999999999999737e-05,-1.000000000000000082e-05,-1.000000000000000082e-05,-2.000000000000000164e-05,-2.000000000000000164e-05,1.000000000000000000e+00,1.300000000000000000e+01
2.741500000000000000e+04,0.000000000000000000e+00,-1.000000000000000082e-05,-2.999999999999999737e-05,-2.999999999999999737e-05,-1.000000000000000082e-05,-1.000000000000000082e-05,-2.000000000000000164e-05,-2.000000000000000164e-05,1.000000000000000000e+00,1.300000000000000000e+01
2.741600000000000000e+04,0.000000000000000000e+00,-1.000000000000000082e-05,-2.999999999999999737e-05,-2.999999999999999737e-05,-1.000000000000000082e-05,-1.000000000000000082e-05,-2.000000000000000164e-05,-2.000000000000000164e-05,1.000000000000000000e+00,1.300000000000000000e+01
2.741700000000000000e+04,0.000000000000000000e+00,-1.000000000000000082e-05,-2.999999999999999737e-05,-2.999999999999999737e-05,-1.000000000000000082e-05,-1.000000000000000082e-05,-2.000000000000000164e-05,-2.000000000000000164e-05,1.000000000000000000e+00,1.300000000000000000e+01
2.741800000000000000e+04,0.000000000000000000e+00,-1.000000000000000082e-05,-2.999999999999999737e-05,-2.999999999999999737e-05,-1.000000000000000082e-05,-1.000000000000000082e-05,-2.000000000000000164e-05,-2.000000000000000164e-05,1.000000000000000000e+00,1.300000000000000000e+01
2.741900000000000000e+04,0.000000000000000000e+00,-1.000000000000000082e-05,-2.999999999999999737e-05,-2.999999999999999737e-05,-1.000000000000000082e-05,-1.000000000000000082e-05,-2.000000000000000164e-05,-2.000000000000000164e-05,1.000000000000000000e+00,1.300000000000000000e+01
2.742000000000000000e+04,0.000000000000000000e+00,-1.000000000000000082e-05,-2.999999999999999737e-05,-2.999999999999999737e-05,-1.000000000000000082e-05,-1.000000000000000082e-05,-2.000000000000000164e-05,-2.000000000000000164e-05,1.000000000000000000e+00,1.300000000000000000e+01
2.742100000000000000e+04,0.000000000000000000e+00,-1.000000000000000082e-05,-2.999999999999999737e-05,-2.999999999999999737e-05,-1.000000000000000082e-05,-1.000000000000000082e-05,-2.000000000000000164e-05,-2.000000000000000164e-05,1.000000000000000000e+00,1.300000000000000000e+01
2.742200000000000000e+04,0.000000000000000000e+00,-1.000000000000000082e-05,-2.999999999999999737e-05,-2.999999999999999737e-05,-1.000000000000000082e-05,-1.000000000000000082e-05,-2.000000000000000164e-05,-2.000000000000000164e-05,1.000000000000000000e+00,1.300000000000000000e+01
2.742300000000000000e+04,0.000000000000000000e+00,-1.000000000000000082e-05,-2.999999999999999737e-05,-2.999999999999999737e-05,-1.000000000000000082e-05,-1.000000000000000082e-05,-2.000000000000000164e-05,-2.000000000000000164e-05,1.000000000000000000e+00,1.300000000000000000e+01
2.742400000000000000e+04,0.000000000000000000e+00,-1.000000000000000082e-05,-2.999999999999999737e-05,-2.999999999999999737e-05,-1.000000000000000082e-05,-1.000000000000000082e-05,-2.000000000000000164e-05,-2.000000000000000164e-05,1.000000000000000000e+00,1.300000000000000000e+01
2.742500000000000000e+04,0.000000000000000000e+00,-1.000000000000000082e-05,-2.999999999999999737e-05,-2.999999999999999737e-05,-1.000000000000000082e-05,-1.000000000000000082e-05,-2.000000000000000164e-05,-2.000000000000000164e-05,1.000000000000000000e+00,1.300000000000000000e+01
2.742600000000000000e+04,0.000000000000000000e+00,-1.000000000000000082e-05,-2.999999999999999737e-05,-2.999999999999999737e-05,-1.000000000000000082e-05,-1.000000000000000082e-05,-2.000000000000000164e-05,-2.000000000000000164e-05,1.000000000000000000e+00,1.300000000000000000e+01
2.742700000000000000e+04,0.000000000000000000e+00,-1.000000000000000082e-05,-2.999999999999999737e-05,-2.999999999999999737e-05,-1.000000000000000082e-05,-1.000000000000000082e-05,-2.000000000000000164e-05,-2.000000000000000164e-05,1.000000000000000000e+00,1.300000000000000000e+01
2.742800000000000000e+04,0.000000000000000000e+00,-1.000000000000000082e-05,-2.999999999999999737e-05,-2.999999999999999737e-05,-1.000000000000000082e-05,-1.000000000000000082e-05,-2.000000000000000164e-05,-2.000000000000000164e-05,1.000000000000000000e+00,1.300000000000000000e+01
2.742900000000000000e+04,0.000000000000000000e+00,0.000000000000000000e+00,1.000000000000000082e-05,-2.000000000000000164e-05,0.000000000000000000e+00,1.000000000000000082e-05,-1.000000000000000082e-05,-1.000000000000000082e-05,1.000000000000000000e+00,1.300000000000000000e+01
2.743000000000000000e+04,0.000000000000000000e+00,0.000000000000000000e+00,0.000000000000000000e+00,1.000000000000000082e-05,-1.000000000000000082e-05,-2.000000000000000164e-05,-1.000000000000000082e-05,0.000000000000000000e+00,1.000000000000000000e+00,1.300000000000000000e+01
2.743100000000000000e+04,0.000000000000000000e+00,0.000000000000000000e+00,0.000000000000000000e+00,1.000000000000000082e-05,-1.000000000000000082e-05,-2.000000000000000164e-05,-1.000000000000000082e-05,0.000000000000000000e+00,1.000000000000000000e+00,1.300000000000000000e+01
2.743200000000000000e+04,0.000000000000000000e+00,0.000000000000000000e+00,0.000000000000000000e+00,1.000000000000000082e-05,-1.000000000000000082e-05,-2.000000000000000164e-05,-1.000000000000000082e-05,0.000000000000000000e+00,1.000000000000000000e+00,1.300000000000000000e+01
2.743300000000000000e+04,0.000000000000000000e+00,0.000000000000000000e+00,0.000000000000000000e+00,1.000000000000000082e-05,-1.000000000000000082e-05,-2.000000000000000164e-05,-1.000000000000000082e-05,0.000000000000000000e+00,1.000000000000000000e+00,1.300000000000000000e+01
2.743400000000000000e+04,0.000000000000000000e+00,0.000000000000000000e+00,0.000000000000000000e+00,1.000000000000000082e-05,-1.000000000000000082e-05,-2.000000000000000164e-05,-1.000000000000000082e-05,0.000000000000000000e+00,1.000000000000000000e+00,1.300000000000000000e+01
2.743500000000000000e+04,0.000000000000000000e+00,0.000000000000000000e+00,0.000000000000000000e+00,1.000000000000000082e-05,-1.000000000000000082e-05,-2.000000000000000164e-05,-1.000000000000000082e-05,0.000000000000000000e+00,1.000000000000000000e+00,1.300000000000000000e+01
2.743600000000000000e+04,0.000000000000000000e+00,0.000000000000000000e+00,0.000000000000000000e+00,1.000000000000000082e-05,-1.000000000000000082e-05,-2.000000000000000164e-05,-1.000000000000000082e-05,0.000000000000000000e+00,1.000000000000000000e+00,1.300000000000000000e+01
2.743800000000000000e+04,0.000000000000000000e+00,0.000000000000000000e+00,0.000000000000000000e+00,1.000000000000000082e-05,-1.000000000000000082e-05,-2.000000000000000164e-05,-1.000000000000000082e-05,0.000000000000000000e+00,1.000000000000000000e+00,1.300000000000000000e+01
2.743900000000000000e+04,0.000000000000000000e+00,0.000000000000000000e+00,0.000000000000000000e+00,1.000000000000000082e-05,-1.000000000000000082e-05,-2.000000000000000164e-05,-1.000000000000000082e-05,0.000000000000000000e+00,1.000000000000000000e+00,1.300000000000000000e+01
2.744000000000000000e+04,0.000000000000000000e+00,0.000000000000000000e+00,0.000000000000000000e+00,1.000000000000000082e-05,-1.000000000000000082e-05,-2.000000000000000164e-05,-1.000000000000000082e-05,0.000000000000000000e+00,1.000000000000000000e+00,1.300000000000000000e+01
2.744100000000000000e+04,0.000000000000000000e+00,0.000000000000000000e+00,0.000000000000000000e+00,1.000000000000000082e-05,-1.000000000000000082e-05,-2.000000000000000164e-05,-1.000000000000000082e-05,0.000000000000000000e+00,1.000000000000000000e+00,1.300000000000000000e+01
2.744200000000000000e+04,0.000000000000000000e+00,0.000000000000000000e+00,0.000000000000000000e+00,1.000000000000000082e-05,-1.000000000000000082e-05,-2.000000000000000164e-05,-1.000000000000000082e-05,0.000000000000000000e+00,1.000000000000000000e+00,1.300000000000000000e+01
2.744300000000000000e+04,0.000000000000000000e+00,0.000000000000000000e+00,0.000000000000000000e+00,1.000000000000000082e-05,-1.000000000000000082e-05,-2.000000000000000164e-05,-1.000000000000000082e-05,0.000000000000000000e+00,1.000000000000000000e+00,1.300000000000000000e+01
2.744400000000000000e+04,0.000000000000000000e+00,0.000000000000000000e+00,0.000000000000000000e+00,1.000000000000000082e-05,-1.000000000000000082e-05,-2.000000000000000164e-05,-1.000000000000000082e-05,0.000000000000000000e+00,1.000000000000000000e+00,1.300000000000000000e+01
2.744500000000000000e+04,0.000000000000000000e+00,0.000000000000000000e+00,0.000000000000000000e+00,1.000000000000000082e-05,-1.000000000000000082e-05,-2.000000000000000164e-05,-1.000000000000000082e-05,0.000000000000000000e+00,1.000000000000000000e+00,1.300000000000000000e+01
2.744600000000000000e+04,0.000000000000000000e+00,0.000000000000000000e+00,0.000000000000000000e+00,1.000000000000000082e-05,-1.000000000000000082e-05,-2.000000000000000164e-05,-1.000000000000000082e-05,0.000000000000000000e+00,1.000000000000000000e+00,1.300000000000000000e+01
2.744700000000000000e+04,0.000000000000000000e+00,0.000000000000000000e+00,0.000000000000000000e+00,1.000000000000000082e-05,-1.000000000000000082e-05,-2.000000000000000164e-05,-1.000000000000000082e-05,0.000000000000000000e+00,1.000000000000000000e+00,1.300000000000000000e+01
2.744800000000000000e+04,0.000000000000000000e+00,0.000000000000000000e+00,0.000000000000000000e+00,1.000000000000000082e-05,-1.000000000000000082e-05,-2.000000000000000164e-05,-1.000000000000000082e-05,0.000000000000000000e+00,1.000000000000000000e+00,1.300000000000000000e+01
2.744900000000000000e+04,0.000000000000000000e+00,0.000000000000000000e+00,0.000000000000000000e+00,1.000000000000000082e-05,-1.000000000000000082e-05,-2.000000000000000164e-05,-1.000000000000000082e-05,0.000000000000000000e+00,1.000000000000000000e+00,1.300000000000000000e+01
2.745000000000000000e+04,0.000000000000000000e+00,0.000000000000000000e+00,0.000000000000000000e+00,1.000000000000000082e-05,-1.000000000000000082e-05,-2.000000000000000164e-05,-1.000000000000000082e-05,0.000000000000000000e+00,1.000000000000000000e+00,1.300000000000000000e+01
2.745100000000000000e+04,0.000000000000000000e+00,0.000000000000000000e+00,0.000000000000000000e+00,1.000000000000000082e-05,-1.000000000000000082e-05,-2.000000000000000164e-05,-1.000000000000000082e-05,0.000000000000000000e+00,1.000000000000000000e+00,1.300000000000000000e+01
2.745200000000000000e+04,0.000000000000000000e+00,0.000000000000000000e+00,0.000000000000000000e+00,1.000000000000000082e-05,-1.000000000000000082e-05,-2.000000000000000164e-05,-1.000000000000000082e-05,0.000000000000000000e+00,1.000000000000000000e+00,1.300000000000000000e+01
2.745300000000000000e+04,0.000000000000000000e+00,0.000000000000000000e+00,0.000000000000000000e+00,1.000000000000000082e-05,-1.000000000000000082e-05,-2.000000000000000164e-05,-1.000000000000000082e-05,0.000000000000000000e+00,1.000000000000000000e+00,1.300000000000000000e+01
2.745400000000000000e+04,0.000000000000000000e+00,0.000000000000000000e+00,0.000000000000000000e+00,1.000000000000000082e-05,-1.000000000000000082e-05,-2.000000000000000164e-05,-1.000000000000000082e-05,0.000000000000000000e+00,1.000000000000000000e+00,1.300000000000000000e+01
2.745500000000000000e+04,0.000000000000000000e+00,0.000000000000000000e+00,0.000000000000000000e+00,1.000000000000000082e-05,-1.000000000000000082e-05,-2.000000000000000164e-05,-1.000000000000000082e-05,0.000000000000000000e+00,1.000000000000000000e+00,1.300000000000000000e+01
2.745600000000000000e+04,0.000000000000000000e+00,0.000000000000000000e+00,0.000000000000000000e+00,1.000000000000000082e-05,-1.000000000000000082e-05,-2.000000000000000164e-05,-1.000000000000000082e-05,0.000000000000000000e+00,1.000000000000000000e+00,1.300000000000000000e+01
2.745700000000000000e+04,0.000000000000000000e+00,0.000000000000000000e+00,0.000000000000000000e+00,1.000000000000000082e-05,-1.000000000000000082e-05,-2.000000000000000164e-05,-1.000000000000000082e-05,0.000000000000000000e+00,1.000000000000000000e+00,1.300000000000000000e+01
2.745800000000000000e+04,0.000000000000000000e+00,0.000000000000000000e+00,0.000000000000000000e+00,1.000000000000000082e-05,-1.000000000000000082e-05,-2.000000000000000164e-05,-1.000000000000000082e-05,0.000000000000000000e+00,1.000000000000000000e+00,1.300000000000000000e+01
2.745900000000000000e+04,-1.000000000000000082e-05,1.000000000000000082e-05,-1.000000000000000082e-05,-4.000000000000000327e-05,-4.000000000000000327e-05,-1.000000000000000082e-05,0.000000000000000000e+00,0.000000000000000000e+00,1.000000000000000000e+00,1.300000000000000000e+01
2.746000000000000000e+04,2.000000000000000164e-05,1.000000000000000082e-05,1.000000000000000082e-05,0.000000000000000000e+00,1.000000000000000082e-05,-1.000000000000000082e-05,-2.999999999999999737e-05,1.000000000000000082e-05,1.000000000000000000e+00,1.300000000000000000e+01
2.746100000000000000e+04,2.000000000000000164e-05,1.000000000000000082e-05,1.000000000000000082e-05,0.000000000000000000e+00,1.000000000000000082e-05,-1.000000000000000082e-05,-2.999999999999999737e-05,1.000000000000000082e-05,1.000000000000000000e+00,1.300000000000000000e+01
2.746200000000000000e+04,2.000000000000000164e-05,1.000000000000000082e-05,1.000000000000000082e-05,0.000000000000000000e+00,1.000000000000000082e-05,-1.000000000000000082e-05,-2.999999999999999737e-05,1.000000000000000082e-05,1.000000000000000000e+00,1.300000000000000000e+01
2.746300000000000000e+04,2.000000000000000164e-05,1.000000000000000082e-05,1.000000000000000082e-05,0.000000000000000000e+00,1.000000000000000082e-05,-1.000000000000000082e-05,-2.999999999999999737e-05,1.000000000000000082e-05,1.000000000000000000e+00,1.300000000000000000e+01
2.746400000000000000e+04,2.000000000000000164e-05,1.000000000000000082e-05,1.000000000000000082e-05,0.000000000000000000e+00,1.000000000000000082e-05,-1.000000000000000082e-05,-2.999999999999999737e-05,1.000000000000000082e-05,1.000000000000000000e+00,1.300000000000000000e+01
2.746500000000000000e+04,-2.000000000000000164e-05,-1.000000000000000082e-05,-2.000000000000000164e-05,0.000000000000000000e+00,-1.000000000000000082e-05,-1.000000000000000082e-05,-1.000000000000000082e-05,-1.000000000000000082e-05,1.000000000000000000e+00,1.300000000000000000e+01
2.746600000000000000e+04,-2.000000000000000164e-05,-1.000000000000000082e-05,-2.000000000000000164e-05,0.000000000000000000e+00,-1.000000000000000082e-05,-1.000000000000000082e-05,-1.000000000000000082e-05,-1.000000000000000082e-05,1.000000000000000000e+00,1.300000000000000000e+01
2.746700000000000000e+04,-2.000000000000000164e-05,-1.000000000000000082e-05,-2.000000000000000164e-05,0.000000000000000000e+00,-1.000000000000000082e-05,-1.000000000000000082e-05,-1.000000000000000082e-05,-1.000000000000000082e-05,1.000000000000000000e+00,1.300000000000000000e+01
2.746800000000000000e+04,-2.000000000000000164e-05,-1.000000000000000082e-05,-2.000000000000000164e-05,0.000000000000000000e+00,-1.000000000000000082e-05,-1.000000000000000082e-05,-1.000000000000000082e-05,-1.000000000000000082e-05,1.000000000000000000e+00,1.300000000000000000e+01
2.746900000000000000e+04,-2.000000000000000164e-05,-1.000000000000000082e-05,-2.000000000000000164e-05,0.000000000000000000e+00,-1.000000000000000082e-05,-1.000000000000000082e-05,-1.000000000000000082e-05,-1.000000000000000082e-05,1.000000000000000000e+00,1.300000000000000000e+01
2.747000000000000000e+04,-2.000000000000000164e-05,-1.000000000000000082e-05,-2.000000000000000164e-05,0.000000000000000000e+00,-1.000000000000000082e-05,-1.000000000000000082e-05,-1.000000000000000082e-05,-1.000000000000000082e-05,1.000000000000000000e+00,1.300000000000000000e+01
2.747100000000000000e+04,-2.000000000000000164e-05,-1.000000000000000082e-05,-2.000000000000000164e-05,0.000000000000000000e+00,-1.000000000000000082e-05,-1.000000000000000082e-05,-1.000000000000000082e-05,-1.000000000000000082e-05,1.000000000000000000e+00,1.300000000000000000e+01
2.747200000000000000e+04,-2.000000000000000164e-05,-1.000000000000000082e-05,-2.000000000000000164e-05,0.000000000000000000e+00,-1.000000000000000082e-05,-1.000000000000000082e-05,-1.000000000000000082e-05,-1.000000000000000082e-05,1.000000000000000000e+00,1.300000000000000000e+01
2.747300000000000000e+04,-2.000000000000000164e-05,-1.000000000000000082e-05,-2.000000000000000164e-05,0.000000000000000000e+00,-1.000000000000000082e-05,-1.000000000000000082e-05,-1.000000000000000082e-05,-1.000000000000000082e-05,1.000000000000000000e+00,1.300000000000000000e+01
2.747400000000000000e+04,0.000000000000000000e+00,-2.000000000000000164e-05,-1.000000000000000082e-05,-1.000000000000000082e-05,-2.000000000000000164e-05,0.000000000000000000e+00,-1.000000000000000082e-05,-2.999999999999999737e-05,1.000000000000000000e+00,1.300000000000000000e+01
2.747500000000000000e+04,0.000000000000000000e+00,-2.000000000000000164e-05,-1.000000000000000082e-05,-1.000000000000000082e-05,-2.000000000000000164e-05,0.000000000000000000e+00,-1.000000000000000082e-05,-2.999999999999999737e-05,1.000000000000000000e+00,1.300000000000000000e+01
2.747600000000000000e+04,0.000000000000000000e+00,-2.000000000000000164e-05,-1.000000000000000082e-05,-1.000000000000000082e-05,-2.000000000000000164e-05,0.000000000000000000e+00,-1.000000000000000082e-05,-2.999999999999999737e-05,1.000000000000000000e+00,1.300000000000000000e+01
2.747700000000000000e+04,0.000000000000000000e+00,-2.000000000000000164e-05,-1.000000000000000082e-05,-1.000000000000000082e-05,-2.000000000000000164e-05,0.000000000000000000e+00,-1.000000000000000082e-05,-2.999999999999999737e-05,1.000000000000000000e+00,1.300000000000000000e+01
2.747800000000000000e+04,0.000000000000000000e+00,-2.000000000000000164e-05,-1.000000000000000082e-05,-1.000000000000000082e-05,-2.000000000000000164e-05,0.000000000000000000e+00,-1.000000000000000082e-05,-2.999999999999999737e-05,1.000000000000000000e+00,1.300000000000000000e+01
2.747900000000000000e+04,0.000000000000000000e+00,-2.000000000000000164e-05,-1.000000000000000082e-05,-1.000000000000000082e-05,-2.000000000000000164e-05,0.000000000000000000e+00,-1.000000000000000082e-05,-2.999999999999999737e-05,1.000000000000000000e+00,1.300000000000000000e+01
2.748000000000000000e+04,0.000000000000000000e+00,-2.000000000000000164e-05,-1.000000000000000082e-05,-1.000000000000000082e-05,-2.000000000000000164e-05,0.000000000000000000e+00,-1.000000000000000082e-05,-2.999999999999999737e-05,1.000000000000000000e+00,1.300000000000000000e+01
2.748100000000000000e+04,0.000000000000000000e+00,-2.000000000000000164e-05,-1.000000000000000082e-05,-1.000000000000000082e-05,-2.000000000000000164e-05,0.000000000000000000e+00,-1.000000000000000082e-05,-2.999999999999999737e-05,1.000000000000000000e+00,1.300000000000000000e+01
2.748200000000000000e+04,0.000000000000000000e+00,-2.000000000000000164e-05,-1.000000000000000082e-05,-1.000000000000000082e-05,-2.000000000000000164e-05,0.000000000000000000e+00,-1.000000000000000082e-05,-2.999999999999999737e-05,1.000000000000000000e+00,1.300000000000000000e+01
2.748300000000000000e+04,0.000000000000000000e+00,-2.000000000000000164e-05,-1.000000000000000082e-05,-1.000000000000000082e-05,-2.000000000000000164e-05,0.000000000000000000e+00,-1.000000000000000082e-05,-2.999999999999999737e-05,1.000000000000000000e+00,1.300000000000000000e+01
2.748400000000000000e+04,0.000000000000000000e+00,-2.000000000000000164e-05,-1.000000000000000082e-05,-1.000000000000000082e-05,-2.000000000000000164e-05,0.000000000000000000e+00,-1.000000000000000082e-05,-2.999999999999999737e-05,1.000000000000000000e+00,1.300000000000000000e+01
2.748500000000000000e+04,0.000000000000000000e+00,-2.000000000000000164e-05,-1.000000000000000082e-05,-1.000000000000000082e-05,-2.000000000000000164e-05,0.000000000000000000e+00,-1.000000000000000082e-05,-2.999999999999999737e-05,1.000000000000000000e+00,1.300000000000000000e+01
2.748600000000000000e+04,0.000000000000000000e+00,-2.000000000000000164e-05,-1.000000000000000082e-05,-1.000000000000000082e-05,-2.000000000000000164e-05,0.000000000000000000e+00,-1.000000000000000082e-05,-2.999999999999999737e-05,1.000000000000000000e+00,1.300000000000000000e+01
2.748800000000000000e+04,0.000000000000000000e+00,-2.000000000000000164e-05,-1.000000000000000082e-05,-1.000000000000000082e-05,-2.000000000000000164e-05,0.000000000000000000e+00,-1.000000000000000082e-05,-2.999999999999999737e-05,1.000000000000000000e+00,1.300000000000000000e+01
2.748900000000000000e+04,-2.000000000000000164e-05,-1.000000000000000082e-05,0.000000000000000000e+00,-2.000000000000000164e-05,-1.000000000000000082e-05,1.000000000000000082e-05,0.000000000000000000e+00,1.000000000000000082e-05,1.000000000000000000e+00,1.300000000000000000e+01
2.749000000000000000e+04,-1.000000000000000082e-05,-1.000000000000000082e-05,-1.000000000000000082e-05,-4.000000000000000327e-05,-1.000000000000000082e-05,-2.000000000000000164e-05,0.000000000000000000e+00,0.000000000000000000e+00,1.000000000000000000e+00,1.300000000000000000e+01
2.749100000000000000e+04,-1.000000000000000082e-05,-1.000000000000000082e-05,-1.000000000000000082e-05,-4.000000000000000327e-05,-1.000000000000000082e-05,-2.000000000000000164e-05,0.000000000000000000e+00,0.000000000000000000e+00,1.000000000000000000e+00,1.300000000000000000e+01
2.749200000000000000e+04,-1.000000000000000082e-05,-1.000000000000000082e-05,-1.000000000000000082e-05,-4.000000000000000327e-05,-1.000000000000000082e-05,-2.000000000000000164e-05,0.000000000000000000e+00,0.000000000000000000e+00,1.000000000000000000e+00,1.300000000000000000e+01
2.749300000000000000e+04,-1.000000000000000082e-05,-1.000000000000000082e-05,-1.000000000000000082e-05,-4.000000000000000327e-05,-1.000000000000000082e-05,-2.000000000000000164e-05,0.000000000000000000e+00,0.000000000000000000e+00,1.000000000000000000e+00,1.300000000000000000e+01
2.749400000000000000e+04,-1.000000000000000082e-05,-1.000000000000000082e-05,-1.000000000000000082e-05,-4.000000000000000327e-05,-1.000000000000000082e-05,-2.000000000000000164e-05,0.000000000000000000e+00,0.000000000000000000e+00,1.000000000000000000e+00,1.300000000000000000e+01
2.749500000000000000e+04,-1.000000000000000082e-05,-1.000000000000000082e-05,-1.000000000000000082e-05,-4.000000000000000327e-05,-1.000000000000000082e-05,-2.000000000000000164e-05,0.000000000000000000e+00,0.000000000000000000e+00,1.000000000000000000e+00,1.300000000000000000e+01
2.749600000000000000e+04,-1.000000000000000082e-05,-1.000000000000000082e-05,-1.000000000000000082e-05,-4.000000000000000327e-05,-1.000000000000000082e-05,-2.000000000000000164e-05,0.000000000000000000e+00,0.000000000000000000e+00,1.000000000000000000e+00,1.300000000000000000e+01
2.749700000000000000e+04,-1.000000000000000082e-05,-1.000000000000000082e-05,-1.000000000000000082e-05,-4.000000000000000327e-05,-1.000000000000000082e-05,-2.000000000000000164e-05,0.000000000000000000e+00,0.000000000000000000e+00,1.000000000000000000e+00,1.300000000000000000e+01
2.749800000000000000e+04,-1.000000000000000082e-05,-1.000000000000000082e-05,-1.000000000000000082e-05,-4.000000000000000327e-05,-1.000000000000000082e-05,-2.000000000000000164e-05,0.000000000000000000e+00,0.000000000000000000e+00,1.000000000000000000e+00,1.300000000000000000e+01
2.749900000000000000e+04,-1.000000000000000082e-05,-1.000000000000000082e-05,-1.000000000000000082e-05,-4.000000000000000327e-05,-1.000000000000000082e-05,-2.000000000000000164e-05,0.000000000000000000e+00,0.000000000000000000e+00,1.000000000000000000e+00,1.300000000000000000e+01
2.750000000000000000e+04,-1.000000000000000082e-05,-1.000000000000000082e-05,-1.000000000000000082e-05,-4.000000000000000327e-05,-1.000000000000000082e-05,-2.000000000000000164e-05,0.000000000000000000e+00,0.000000000000000000e+00,1.000000000000000000e+00,1.300000000000000000e+01
2.750100000000000000e+04,-1.000000000000000082e-05,-1.000000000000000082e-05,-1.000000000000000082e-05,-4.000000000000000327e-05,-1.000000000000000082e-05,-2.000000000000000164e-05,0.000000000000000000e+00,0.000000000000000000e+00,1.000000000000000000e+00,1.300000000000000000e+01
2.750200000000000000e+04,-1.000000000000000082e-05,-1.000000000000000082e-05,-1.000000000000000082e-05,-4.000000000000000327e-05,-1.000000000000000082e-05,-2.000000000000000164e-05,0.000000000000000000e+00,0.000000000000000000e+00,1.000000000000000000e+00,1.300000000000000000e+01
2.750300000000000000e+04,-1.000000000000000082e-05,-1.000000000000000082e-05,-1.000000000000000082e-05,-4.000000000000000327e-05,-1.000000000000000082e-05,-2.000000000000000164e-05,0.000000000000000000e+00,0.000000000000000000e+00,1.000000000000000000e+00,1.300000000000000000e+01
2.750400000000000000e+04,-1.000000000000000082e-05,-1.000000000000000082e-05,-1.000000000000000082e-05,-4.000000000000000327e-05,-1.000000000000000082e-05,-2.000000000000000164e-05,0.000000000000000000e+00,0.000000000000000000e+00,1.000000000000000000e+00,1.300000000000000000e+01
2.750500000000000000e+04,-1.000000000000000082e-05,-1.000000000000000082e-05,-1.000000000000000082e-05,-4.000000000000000327e-05,-1.000000000000000082e-05,-2.000000000000000164e-05,0.000000000000000000e+00,0.000000000000000000e+00,1.000000000000000000e+00,1.300000000000000000e+01
2.750600000000000000e+04,-1.000000000000000082e-05,-1.000000000000000082e-05,-1.000000000000000082e-05,-4.000000000000000327e-05,-1.000000000000000082e-05,-2.000000000000000164e-05,0.000000000000000000e+00,0.000000000000000000e+00,1.000000000000000000e+00,1.300000000000000000e+01
2.750700000000000000e+04,-1.000000000000000082e-05,-1.000000000000000082e-05,-1.000000000000000082e-05,-4.000000000000000327e-05,-1.000000000000000082e-05,-2.000000000000000164e-05,0.000000000000000000e+00,0.000000000000000000e+00,1.000000000000000000e+00,1.300000000000000000e+01
2.750800000000000000e+04,-1.000000000000000082e-05,-1.000000000000000082e-05,-1.000000000000000082e-05,-4.000000000000000327e-05,-1.000000000000000082e-05,-2.000000000000000164e-05,0.000000000000000000e+00,0.000000000000000000e+00,1.000000000000000000e+00,1.300000000000000000e+01
2.750900000000000000e+04,-1.000000000000000082e-05,-1.000000000000000082e-05,-1.000000000000000082e-05,-4.000000000000000327e-05,-1.000000000000000082e-05,-2.000000000000000164e-05,0.000000000000000000e+00,0.000000000000000000e+00,1.000000000000000000e+00,1.300000000000000000e+01
2.751000000000000000e+04,-1.000000000000000082e-05,-1.000000000000000082e-05,-1.000000000000000082e-05,-4.000000000000000327e-05,-1.000000000000000082e-05,-2.000000000000000164e-05,0.000000000000000000e+00,0.000000000000000000e+00,1.000000000000000000e+00,1.300000000000000000e+01
2.751100000000000000e+04,-1.000000000000000082e-05,-1.000000000000000082e-05,-1.000000000000000082e-05,-4.000000000000000327e-05,-1.000000000000000082e-05,-2.000000000000000164e-05,0.000000000000000000e+00,0.000000000000000000e+00,1.000000000000000000e+00,1.300000000000000000e+01
2.751200000000000000e+04,-1.000000000000000082e-05,-1.000000000000000082e-05,-1.000000000000000082e-05,-4.000000000000000327e-05,-1.000000000000000082e-05,-2.000000000000000164e-05,0.000000000000000000e+00,0.000000000000000000e+00,1.000000000000000000e+00,1.300000000000000000e+01
2.751300000000000000e+04,-1.000000000000000082e-05,-1.000000000000000082e-05,-1.000000000000000082e-05,-4.000000000000000327e-05,-1.000000000000000082e-05,-2.000000000000000164e-05,0.000000000000000000e+00,0.000000000000000000e+00,1.000000000000000000e+00,1.300000000000000000e+01
2.751400000000000000e+04,-1.000000000000000082e-05,-1.000000000000000082e-05,-1.000000000000000082e-05,-4.000000000000000327e-05,-1.000000000000000082e-05,-2.000000000000000164e-05,0.000000000000000000e+00,0.000000000000000000e+00,1.000000000000000000e+00,1.300000000000000000e+01
2.751500000000000000e+04,-1.000000000000000082e-05,-1.000000000000000082e-05,-1.000000000000000082e-05,-4.000000000000000327e-05,-1.000000000000000082e-05,-2.000000000000000164e-05,0.000000000000000000e+00,0.000000000000000000e+00,1.000000000000000000e+00,1.300000000000000000e+01
2.751600000000000000e+04,-1.000000000000000082e-05,-1.000000000000000082e-05,-1.000000000000000082e-05,-4.000000000000000327e-05,-1.000000000000000082e-05,-2.000000000000000164e-05,0.000000000000000000e+00,0.000000000000000000e+00,1.000000000000000000e+00,1.300000000000000000e+01
2.751700000000000000e+04,-1.000000000000000082e-05,-1.000000000000000082e-05,-1.000000000000000082e-05,-4.000000000000000327e-05,-1.000000000000000082e-05,-2.000000000000000164e-05,0.000000000000000000e+00,0.000000000000000000e+00,1.000000000000000000e+00,1.300000000000000000e+01
2.751800000000000000e+04,-1.000000000000000082e-05,-1.000000000000000082e-05,-1.000000000000000082e-05,-4.000000000000000327e-05,-1.000000000000000082e-05,-2.000000000000000164e-05,0.000000000000000000e+00,0.000000000000000000e+00,1.000000000000000000e+00,1.300000000000000000e+01
2.751900000000000000e+04,-1.000000000000000082e-05,0.000000000000000000e+00,1.000000000000000082e-05,1.000000000000000082e-05,-1.000000000000000082e-05,-2.000000000000000164e-05,-2.000000000000000164e-05,-2.000000000000000164e-05,1.000000000000000000e+00,1.300000000000000000e+01
2.752000000000000000e+04,-1.000000000000000082e-05,0.000000000000000000e+00,1.000000000000000082e-05,1.000000000000000082e-05,-1.000000000000000082e-05,-2.000000000000000164e-05,-2.000000000000000164e-05,-2.000000000000000164e-05,1.000000000000000000e+00,1.300000000000000000e+01
2.752100000000000000e+04,-2.999999999999999737e-05,-2.000000000000000164e-05,-2.000000000000000164e-05,-2.999999999999999737e-05,0.000000000000000000e+00,0.000000000000000000e+00,-1.000000000000000082e-05,0.000000000000000000e+00,1.000000000000000000e+00,1.300000000000000000e+01
2.752200000000000000e+04,-2.999999999999999737e-05,-2.000000000000000164e-05,-2.000000000000000164e-05,-2.999999999999999737e-05,0.000000000000000000e+00,0.000000000000000000e+00,-1.000000000000000082e-05,0.000000000000000000e+00,1.000000000000000000e+00,1.300000000000000000e+01
2.752300000000000000e+04,-2.999999999999999737e-05,-2.000000000000000164e-05,-2.000000000000000164e-05,-2.999999999999999737e-05,0.000000000000000000e+00,0.000000000000000000e+00,-1.000000000000000082e-05,0.000000000000000000e+00,1.000000000000000000e+00,1.300000000000000000e+01
2.752400000000000000e+04,-2.999999999999999737e-05,-2.000000000000000164e-05,-2.000000000000000164e-05,-2.999999999999999737e-05,0.000000000000000000e+00,0.000000000000000000e+00,-1.000000000000000082e-05,0.000000000000000000e+00,1.000000000000000000e+00,1.300000000000000000e+01
2.752500000000000000e+04,1.000000000000000082e-05,-1.000000000000000082e-05,-1.000000000000000082e-05,0.000000000000000000e+00,-1.000000000000000082e-05,-1.000000000000000082e-05,0.000000000000000000e+00,1.000000000000000082e-05,1.000000000000000000e+00,1.300000000000000000e+01
2.752600000000000000e+04,1.000000000000000082e-05,-1.000000000000000082e-05,-1.000000000000000082e-05,0.000000000000000000e+00,-1.000000000000000082e-05,-1.000000000000000082e-05,0.000000000000000000e+00,1.000000000000000082e-05,1.000000000000000000e+00,1.300000000000000000e+01
2.752700000000000000e+04,1.000000000000000082e-05,-1.000000000000000082e-05,-1.000000000000000082e-05,0.000000000000000000e+00,-1.000000000000000082e-05,-1.000000000000000082e-05,0.000000000000000000e+00,1.000000000000000082e-05,1.000000000000000000e+00,1.300000000000000000e+01
2.752800000000000000e+04,1.000000000000000082e-05,-1.000000000000000082e-05,-1.000000000000000082e-05,0.000000000000000000e+00,-1.000000000000000082e-05,-1.000000000000000082e-05,0.000000000000000000e+00,1.000000000000000082e-05,1.000000000000000000e+00,1.300000000000000000e+01
2.752900000000000000e+04,1.000000000000000082e-05,-1.000000000000000082e-05,-1.000000000000000082e-05,0.000000000000000000e+00,-1.000000000000000082e-05,-1.000000000000000082e-05,0.000000000000000000e+00,1.000000000000000082e-05,1.000000000000000000e+00,1.300000000000000000e+01
2.753000000000000000e+04,1.000000000000000082e-05,-1.000000000000000082e-05,-1.000000000000000082e-05,0.000000000000000000e+00,-1.000000000000000082e-05,-1.000000000000000082e-05,0.000000000000000000e+00,1.000000000000000082e-05,1.000000000000000000e+00,1.300000000000000000e+01
2.753100000000000000e+04,1.000000000000000082e-05,-1.000000000000000082e-05,-1.000000000000000082e-05,0.000000000000000000e+00,-1.000000000000000082e-05,-1.000000000000000082e-05,0.000000000000000000e+00,1.000000000000000082e-05,1.000000000000000000e+00,1.300000000000000000e+01
2.753200000000000000e+04,1.000000000000000082e-05,-1.000000000000000082e-05,-1.000000000000000082e-05,0.000000000000000000e+00,-1.000000000000000082e-05,-1.000000000000000082e-05,0.000000000000000000e+00,1.000000000000000082e-05,1.000000000000000000e+00,1.300000000000000000e+01
2.753300000000000000e+04,1.000000000000000082e-05,-1.000000000000000082e-05,-1.000000000000000082e-05,0.000000000000000000e+00,-1.000000000000000082e-05,-1.000000000000000082e-05,0.000000000000000000e+00,1.000000000000000082e-05,1.000000000000000000e+00,1.300000000000000000e+01
2.753400000000000000e+04,-2.999999999999999737e-05,0.000000000000000000e+00,-1.000000000000000082e-05,1.000000000000000082e-05,-2.000000000000000164e-05,-2.999999999999999737e-05,0.000000000000000000e+00,1.000000000000000082e-05,1.000000000000000000e+00,1.300000000000000000e+01
2.753500000000000000e+04,-2.999999999999999737e-05,0.000000000000000000e+00,-1.000000000000000082e-05,1.000000000000000082e-05,-2.000000000000000164e-05,-2.999999999999999737e-05,0.000000000000000000e+00,1.000000000000000082e-05,1.000000000000000000e+00,1.300000000000000000e+01
2.753600000000000000e+04,-2.999999999999999737e-05,0.000000000000000000e+00,-1.000000000000000082e-05,1.000000000000000082e-05,-2.000000000000000164e-05,-2.999999999999999737e-05,0.000000000000000000e+00,1.000000000000000082e-05,1.000000000000000000e+00,1.300000000000000000e+01
2.753800000000000000e+04,-2.999999999999999737e-05,0.000000000000000000e+00,-1.000000000000000082e-05,1.000000000000000082e-05,-2.000000000000000164e-05,-2.999999999999999737e-05,0.000000000000000000e+00,1.000000000000000082e-05,1.000000000000000000e+00,1.300000000000000000e+01
2.753900000000000000e+04,-2.999999999999999737e-05,0.000000000000000000e+00,-1.000000000000000082e-05,1.000000000000000082e-05,-2.000000000000000164e-05,-2.999999999999999737e-05,0.000000000000000000e+00,1.000000000000000082e-05,1.000000000000000000e+00,1.300000000000000000e+01
2.754000000000000000e+04,-2.999999999999999737e-05,0.000000000000000000e+00,-1.000000000000000082e-05,1.000000000000000082e-05,-2.000000000000000164e-05,-2.999999999999999737e-05,0.000000000000000000e+00,1.000000000000000082e-05,1.000000000000000000e+00,1.300000000000000000e+01
2.754100000000000000e+04,-2.999999999999999737e-05,0.000000000000000000e+00,-1.000000000000000082e-05,1.000000000000000082e-05,-2.000000000000000164e-05,-2.999999999999999737e-05,0.000000000000000000e+00,1.000000000000000082e-05,1.000000000000000000e+00,1.300000000000000000e+01
2.754200000000000000e+04,-2.999999999999999737e-05,0.000000000000000000e+00,-1.000000000000000082e-05,1.000000000000000082e-05,-2.000000000000000164e-05,-2.999999999999999737e-05,0.000000000000000000e+00,1.000000000000000082e-05,1.000000000000000000e+00,1.300000000000000000e+01
2.754300000000000000e+04,-2.999999999999999737e-05,0.000000000000000000e+00,-1.000000000000000082e-05,1.000000000000000082e-05,-2.000000000000000164e-05,-2.999999999999999737e-05,0.000000000000000000e+00,1.000000000000000082e-05,1.000000000000000000e+00,1.300000000000000000e+01
2.754400000000000000e+04,-2.999999999999999737e-05,0.000000000000000000e+00,-1.000000000000000082e-05,1.000000000000000082e-05,-2.000000000000000164e-05,-2.999999999999999737e-05,0.000000000000000000e+00,1.000000000000000082e-05,1.000000000000000000e+00,1.300000000000000000e+01
2.754500000000000000e+04,-2.999999999999999737e-05,0.000000000000000000e+00,-1.000000000000000082e-05,1.000000000000000082e-05,-2.000000000000000164e-05,-2.999999999999999737e-05,0.000000000000000000e+00,1.000000000000000082e-05,1.000000000000000000e+00,1.300000000000000000e+01
2.754600000000000000e+04,-2.999999999999999737e-05,0.000000000000000000e+00,-1.000000000000000082e-05,1.000000000000000082e-05,-2.000000000000000164e-05,-2.999999999999999737e-05,0.000000000000000000e+00,1.000000000000000082e-05,1.000000000000000000e+00,1.300000000000000000e+01
2.754700000000000000e+04,-2.999999999999999737e-05,0.000000000000000000e+00,-1.000000000000000082e-05,1.000000000000000082e-05,-2.000000000000000164e-05,-2.999999999999999737e-05,0.000000000000000000e+00,1.000000000000000082e-05,1.000000000000000000e+00,1.300000000000000000e+01
2.754800000000000000e+04,-2.999999999999999737e-05,0.000000000000000000e+00,-1.000000000000000082e-05,1.000000000000000082e-05,-2.000000000000000164e-05,-2.999999999999999737e-05,0.000000000000000000e+00,1.000000000000000082e-05,1.000000000000000000e+00,1.300000000000000000e+01
2.754900000000000000e+04,0.000000000000000000e+00,1.000000000000000082e-05,0.000000000000000000e+00,-2.999999999999999737e-05,4.000000000000000327e-05,1.000000000000000082e-05,-1.000000000000000082e-05,-2.999999999999999737e-05,1.000000000000000000e+00,1.300000000000000000e+01
2.755000000000000000e+04,0.000000000000000000e+00,-2.000000000000000164e-05,-2.999999999999999737e-05,1.000000000000000082e-05,-1.699999999999999851e-04,-2.000000000000000164e-05,-1.000000000000000082e-05,-4.000000000000000327e-05,1.000000000000000000e+00,1.300000000000000000e+01
2.755100000000000000e+04,0.000000000000000000e+00,-2.000000000000000164e-05,-2.999999999999999737e-05,1.000000000000000082e-05,-1.699999999999999851e-04,-2.000000000000000164e-05,-1.000000000000000082e-05,-4.000000000000000327e-05,1.000000000000000000e+00,1.300000000000000000e+01
2.755200000000000000e+04,0.000000000000000000e+00,-2.000000000000000164e-05,-2.999999999999999737e-05,1.000000000000000082e-05,-1.699999999999999851e-04,-2.000000000000000164e-05,-1.000000000000000082e-05,-4.000000000000000327e-05,1.000000000000000000e+00,1.300000000000000000e+01
2.755300000000000000e+04,0.000000000000000000e+00,-2.000000000000000164e-05,-2.999999999999999737e-05,1.000000000000000082e-05,-1.699999999999999851e-04,-2.000000000000000164e-05,-1.000000000000000082e-05,-4.000000000000000327e-05,1.000000000000000000e+00,1.300000000000000000e+01
2.755400000000000000e+04,0.000000000000000000e+00,-2.000000000000000164e-05,-2.999999999999999737e-05,1.000000000000000082e-05,-1.699999999999999851e-04,-2.000000000000000164e-05,-1.000000000000000082e-05,-4.000000000000000327e-05,1.000000000000000000e+00,1.300000000000000000e+01
2.755500000000000000e+04,0.000000000000000000e+00,-2.000000000000000164e-05,-2.999999999999999737e-05,1.000000000000000082e-05,-1.699999999999999851e-04,-2.000000000000000164e-05,-1.000000000000000082e-05,-4.000000000000000327e-05,1.000000000000000000e+00,1.300000000000000000e+01
2.755600000000000000e+04,0.000000000000000000e+00,-2.000000000000000164e-05,-2.999999999999999737e-05,1.000000000000000082e-05,-1.699999999999999851e-04,-2.000000000000000164e-05,-1.000000000000000082e-05,-4.000000000000000327e-05,1.000000000000000000e+00,1.300000000000000000e+01
2.755700000000000000e+04,0.000000000000000000e+00,-2.000000000000000164e-05,-2.999999999999999737e-05,1.000000000000000082e-05,-1.699999999999999851e-04,-2.000000000000000164e-05,-1.000000000000000082e-05,-4.000000000000000327e-05,1.000000000000000000e+00,1.300000000000000000e+01
2.755800000000000000e+04,0.000000000000000000e+00,-2.000000000000000164e-05,-2.999999999999999737e-05,1.000000000000000082e-05,-1.699999999999999851e-04,-2.000000000000000164e-05,-1.000000000000000082e-05,-4.000000000000000327e-05,1.000000000000000000e+00,1.300000000000000000e+01
2.755900000000000000e+04,0.000000000000000000e+00,-2.000000000000000164e-05,-2.999999999999999737e-05,1.000000000000000082e-05,-1.699999999999999851e-04,-2.000000000000000164e-05,-1.000000000000000082e-05,-4.000000000000000327e-05,1.000000000000000000e+00,1.300000000000000000e+01
2.756000000000000000e+04,0.000000000000000000e+00,-2.000000000000000164e-05,-2.999999999999999737e-05,1.000000000000000082e-05,-1.699999999999999851e-04,-2.000000000000000164e-05,-1.000000000000000082e-05,-4.000000000000000327e-05,1.000000000000000000e+00,1.300000000000000000e+01
2.756100000000000000e+04,0.000000000000000000e+00,-2.000000000000000164e-05,-2.999999999999999737e-05,1.000000000000000082e-05,-1.699999999999999851e-04,-2.000000000000000164e-05,-1.000000000000000082e-05,-4.000000000000000327e-05,1.000000000000000000e+00,1.300000000000000000e+01
2.756200000000000000e+04,0.000000000000000000e+00,-2.000000000000000164e-05,-2.999999999999999737e-05,1.000000000000000082e-05,-1.699999999999999851e-04,-2.000000000000000164e-05,-1.000000000000000082e-05,-4.000000000000000327e-05,1.000000000000000000e+00,1.300000000000000000e+01
2.756300000000000000e+04,0.000000000000000000e+00,-2.000000000000000164e-05,-2.999999999999999737e-05,1.000000000000000082e-05,-1.699999999999999851e-04,-2.000000000000000164e-05,-1.000000000000000082e-05,-4.000000000000000327e-05,1.000000000000000000e+00,1.300000000000000000e+01
2.756400000000000000e+04,0.000000000000000000e+00,-2.000000000000000164e-05,-2.999999999999999737e-05,1.000000000000000082e-05,-1.699999999999999851e-04,-2.000000000000000164e-05,-1.000000000000000082e-05,-4.000000000000000327e-05,1.000000000000000000e+00,1.300000000000000000e+01
2.756500000000000000e+04,0.000000000000000000e+00,-2.000000000000000164e-05,-2.999999999999999737e-05,1.000000000000000082e-05,-1.699999999999999851e-04,-2.000000000000000164e-05,-1.000000000000000082e-05,-4.000000000000000327e-05,1.000000000000000000e+00,1.300000000000000000e+01
2.756600000000000000e+04,0.000000000000000000e+00,-2.000000000000000164e-05,-2.999999999999999737e-05,1.000000000000000082e-05,-1.699999999999999851e-04,-2.000000000000000164e-05,-1.000000000000000082e-05,-4.000000000000000327e-05,1.000000000000000000e+00,1.300000000000000000e+01
2.756700000000000000e+04,0.000000000000000000e+00,-2.000000000000000164e-05,-2.999999999999999737e-05,1.000000000000000082e-05,-1.699999999999999851e-04,-2.000000000000000164e-05,-1.000000000000000082e-05,-4.000000000000000327e-05,1.000000000000000000e+00,1.300000000000000000e+01
2.756800000000000000e+04,0.000000000000000000e+00,-2.000000000000000164e-05,-2.999999999999999737e-05,1.000000000000000082e-05,-1.699999999999999851e-04,-2.000000000000000164e-05,-1.000000000000000082e-05,-4.000000000000000327e-05,1.000000000000000000e+00,1.300000000000000000e+01
2.756900000000000000e+04,0.000000000000000000e+00,-2.000000000000000164e-05,-2.999999999999999737e-05,1.000000000000000082e-05,-1.699999999999999851e-04,-2.000000000000000164e-05,-1.000000000000000082e-05,-4.000000000000000327e-05,1.000000000000000000e+00,1.300000000000000000e+01
2.757000000000000000e+04,0.000000000000000000e+00,-2.000000000000000164e-05,-2.999999999999999737e-05,1.000000000000000082e-05,-1.699999999999999851e-04,-2.000000000000000164e-05,-1.000000000000000082e-05,-4.000000000000000327e-05,1.000000000000000000e+00,1.300000000000000000e+01
2.757100000000000000e+04,-2.000000000000000164e-05,-1.000000000000000082e-05,-2.000000000000000164e-05,2.999999999999999737e-05,-6.999999999999999387e-05,-4.000000000000000327e-05,0.000000000000000000e+00,0.000000000000000000e+00,1.000000000000000000e+00,1.300000000000000000e+01
2.757200000000000000e+04,-2.000000000000000164e-05,-1.000000000000000082e-05,-2.000000000000000164e-05,2.999999999999999737e-05,-6.999999999999999387e-05,-4.000000000000000327e-05,0.000000000000000000e+00,0.000000000000000000e+00,1.000000000000000000e+00,1.300000000000000000e+01
2.757300000000000000e+04,-2.000000000000000164e-05,-1.000000000000000082e-05,-1.000000000000000082e-05,-2.999999999999999737e-05,-2.000000000000000164e-05,0.000000000000000000e+00,-1.000000000000000082e-05,0.000000000000000000e+00,1.000000000000000000e+00,1.300000000000000000e+01
2.757400000000000000e+04,-2.000000000000000164e-05,-1.000000000000000082e-05,-1.000000000000000082e-05,-2.999999999999999737e-05,-2.000000000000000164e-05,0.000000000000000000e+00,-1.000000000000000082e-05,0.000000000000000000e+00,1.000000000000000000e+00,1.300000000000000000e+01
2.757500000000000000e+04,-2.000000000000000164e-05,-1.000000000000000082e-05,-1.000000000000000082e-05,-2.999999999999999737e-05,-2.000000000000000164e-05,0.000000000000000000e+00,-1.000000000000000082e-05,0.000000000000000000e+00,1.000000000000000000e+00,1.300000000000000000e+01
2.757600000000000000e+04,-2.000000000000000164e-05,-1.000000000000000082e-05,-1.000000000000000082e-05,-2.999999999999999737e-05,-2.000000000000000164e-05,0.000000000000000000e+00,-1.000000000000000082e-05,0.000000000000000000e+00,1.000000000000000000e+00,1.300000000000000000e+01
2.757700000000000000e+04,-2.000000000000000164e-05,-1.000000000000000082e-05,-1.000000000000000082e-05,-2.999999999999999737e-05,-2.000000000000000164e-05,0.000000000000000000e+00,-1.000000000000000082e-05,0.000000000000000000e+00,1.000000000000000000e+00,1.300000000000000000e+01
2.757800000000000000e+04,-2.000000000000000164e-05,-1.000000000000000082e-05,-1.000000000000000082e-05,-2.999999999999999737e-05,-2.000000000000000164e-05,0.000000000000000000e+00,-1.000000000000000082e-05,0.000000000000000000e+00,1.000000000000000000e+00,1.300000000000000000e+01
2.757900000000000000e+04,-2.000000000000000164e-05,-1.000000000000000082e-05,-1.000000000000000082e-05,-2.999999999999999737e-05,-2.000000000000000164e-05,0.000000000000000000e+00,-1.000000000000000082e-05,0.000000000000000000e+00,1.000000000000000000e+00,1.300000000000000000e+01
2.758000000000000000e+04,-2.000000000000000164e-05,-1.000000000000000082e-05,-1.000000000000000082e-05,-2.999999999999999737e-05,-2.000000000000000164e-05,0.000000000000000000e+00,-1.000000000000000082e-05,0.000000000000000000e+00,1.000000000000000000e+00,1.300000000000000000e+01
2.758100000000000000e+04,-2.000000000000000164e-05,-1.000000000000000082e-05,-1.000000000000000082e-05,-2.999999999999999737e-05,-2.000000000000000164e-05,0.000000000000000000e+00,-1.000000000000000082e-05,0.000000000000000000e+00,1.000000000000000000e+00,1.300000000000000000e+01
2.758200000000000000e+04,-2.000000000000000164e-05,-1.000000000000000082e-05,-1.000000000000000082e-05,-2.999999999999999737e-05,-2.000000000000000164e-05,0.000000000000000000e+00,-1.000000000000000082e-05,0.000000000000000000e+00,1.000000000000000000e+00,1.300000000000000000e+01
2.758300000000000000e+04,-2.000000000000000164e-05,-1.000000000000000082e-05,-1.000000000000000082e-05,-2.999999999999999737e-05,-2.000000000000000164e-05,0.000000000000000000e+00,-1.000000000000000082e-05,0.000000000000000000e+00,1.000000000000000000e+00,1.300000000000000000e+01
2.758400000000000000e+04,-2.000000000000000164e-05,-1.000000000000000082e-05,-1.000000000000000082e-05,-2.999999999999999737e-05,-2.000000000000000164e-05,0.000000000000000000e+00,-1.000000000000000082e-05,0.000000000000000000e+00,1.000000000000000000e+00,1.300000000000000000e+01
2.758500000000000000e+04,-1.000000000000000082e-05,-2.000000000000000164e-05,-2.999999999999999737e-05,-2.000000000000000164e-05,0.000000000000000000e+00,-1.000000000000000082e-05,-1.000000000000000082e-05,-2.000000000000000164e-05,1.000000000000000000e+00,1.300000000000000000e+01
2.758600000000000000e+04,-1.000000000000000082e-05,-2.000000000000000164e-05,-2.999999999999999737e-05,-2.000000000000000164e-05,0.000000000000000000e+00,-1.000000000000000082e-05,-1.000000000000000082e-05,-2.000000000000000164e-05,1.000000000000000000e+00,1.300000000000000000e+01
2.758800000000000000e+04,-1.000000000000000082e-05,-2.000000000000000164e-05,-2.999999999999999737e-05,-2.000000000000000164e-05,0.000000000000000000e+00,-1.000000000000000082e-05,-1.000000000000000082e-05,-2.000000000000000164e-05,1.000000000000000000e+00,1.300000000000000000e+01
2.758900000000000000e+04,-1.000000000000000082e-05,-2.000000000000000164e-05,-2.999999999999999737e-05,-2.000000000000000164e-05,0.000000000000000000e+00,-1.000000000000000082e-05,-1.000000000000000082e-05,-2.000000000000000164e-05,1.000000000000000000e+00,1.300000000000000000e+01
2.759000000000000000e+04,-1.000000000000000082e-05,-2.000000000000000164e-05,-2.999999999999999737e-05,-2.000000000000000164e-05,0.000000000000000000e+00,-1.000000000000000082e-05,-1.000000000000000082e-05,-2.000000000000000164e-05,1.000000000000000000e+00,1.300000000000000000e+01
2.759100000000000000e+04,-1.000000000000000082e-05,-2.000000000000000164e-05,-2.999999999999999737e-05,-2.000000000000000164e-05,0.000000000000000000e+00,-1.000000000000000082e-05,-1.000000000000000082e-05,-2.000000000000000164e-05,1.000000000000000000e+00,1.300000000000000000e+01
2.759200000000000000e+04,-1.000000000000000082e-05,-2.000000000000000164e-05,-2.999999999999999737e-05,-2.000000000000000164e-05,0.000000000000000000e+00,-1.000000000000000082e-05,-1.000000000000000082e-05,-2.000000000000000164e-05,1.000000000000000000e+00,1.300000000000000000e+01
2.759300000000000000e+04,-1.000000000000000082e-05,-2.000000000000000164e-05,-2.999999999999999737e-05,-2.000000000000000164e-05,0.000000000000000000e+00,-1.000000000000000082e-05,-1.000000000000000082e-05,-2.000000000000000164e-05,1.000000000000000000e+00,1.300000000000000000e+01
2.759400000000000000e+04,-1.000000000000000082e-05,1.000000000000000082e-05,-1.000000000000000082e-05,1.000000000000000082e-05,1.000000000000000082e-05,-2.000000000000000164e-05,-2.000000000000000164e-05,-1.000000000000000082e-05,1.000000000000000000e+00,1.300000000000000000e+01
2.759500000000000000e+04,-1.000000000000000082e-05,1.000000000000000082e-05,-1.000000000000000082e-05,1.000000000000000082e-05,1.000000000000000082e-05,-2.000000000000000164e-05,-2.000000000000000164e-05,-1.000000000000000082e-05,1.000000000000000000e+00,1.300000000000000000e+01
2.759600000000000000e+04,-1.000000000000000082e-05,1.000000000000000082e-05,-1.000000000000000082e-05,1.000000000000000082e-05,1.000000000000000082e-05,-2.000000000000000164e-05,-2.000000000000000164e-05,-1.000000000000000082e-05,1.000000000000000000e+00,1.300000000000000000e+01
2.759700000000000000e+04,-1.000000000000000082e-05,1.000000000000000082e-05,-1.000000000000000082e-05,1.000000000000000082e-05,1.000000000000000082e-05,-2.000000000000000164e-05,-2.000000000000000164e-05,-1.000000000000000082e-05,1.000000000000000000e+00,1.300000000000000000e+01
2.759800000000000000e+04,-1.000000000000000082e-05,1.000000000000000082e-05,-1.000000000000000082e-05,1.000000000000000082e-05,1.000000000000000082e-05,-2.000000000000000164e-05,-2.000000000000000164e-05,-1.000000000000000082e-05,1.000000000000000000e+00,1.300000000000000000e+01
2.759900000000000000e+04,-1.000000000000000082e-05,1.000000000000000082e-05,-1.000000000000000082e-05,1.000000000000000082e-05,1.000000000000000082e-05,-2.000000000000000164e-05,-2.000000000000000164e-05,-1.000000000000000082e-05,1.000000000000000000e+00,1.300000000000000000e+01
2.760000000000000000e+04,-1.000000000000000082e-05,1.000000000000000082e-05,-1.000000000000000082e-05,1.000000000000000082e-05,1.000000000000000082e-05,-2.000000000000000164e-05,-2.000000000000000164e-05,-1.000000000000000082e-05,1.000000000000000000e+00,1.300000000000000000e+01
2.760100000000000000e+04,-1.000000000000000082e-05,1.000000000000000082e-05,-1.000000000000000082e-05,1.000000000000000082e-05,1.000000000000000082e-05,-2.000000000000000164e-05,-2.000000000000000164e-05,-1.000000000000000082e-05,1.000000000000000000e+00,1.300000000000000000e+01
2.760200000000000000e+04,-1.000000000000000082e-05,1.000000000000000082e-05,-1.000000000000000082e-05,1.000000000000000082e-05,1.000000000000000082e-05,-2.000000000000000164e-05,-2.000000000000000164e-05,-1.000000000000000082e-05,1.000000000000000000e+00,1.300000000000000000e+01
2.760300000000000000e+04,-1.000000000000000082e-05,1.000000000000000082e-05,-1.000000000000000082e-05,1.000000000000000082e-05,1.000000000000000082e-05,-2.000000000000000164e-05,-2.000000000000000164e-05,-1.000000000000000082e-05,1.000000000000000000e+00,1.300000000000000000e+01
2.760400000000000000e+04,-1.000000000000000082e-05,1.000000000000000082e-05,-1.000000000000000082e-05,1.000000000000000082e-05,1.000000000000000082e-05,-2.000000000000000164e-05,-2.000000000000000164e-05,-1.000000000000000082e-05,1.000000000000000000e+00,1.300000000000000000e+01
2.760500000000000000e+04,-1.000000000000000082e-05,1.000000000000000082e-05,-1.000000000000000082e-05,1.000000000000000082e-05,1.000000000000000082e-05,-2.000000000000000164e-05,-2.000000000000000164e-05,-1.000000000000000082e-05,1.000000000000000000e+00,1.300000000000000000e+01
2.760600000000000000e+04,-1.000000000000000082e-05,1.000000000000000082e-05,-1.000000000000000082e-05,1.000000000000000082e-05,1.000000000000000082e-05,-2.000000000000000164e-05,-2.000000000000000164e-05,-1.000000000000000082e-05,1.000000000000000000e+00,1.300000000000000000e+01
2.760700000000000000e+04,-1.000000000000000082e-05,1.000000000000000082e-05,-1.000000000000000082e-05,1.000000000000000082e-05,1.000000000000000082e-05,-2.000000000000000164e-05,-2.000000000000000164e-05,-1.000000000000000082e-05,1.000000000000000000e+00,1.300000000000000000e+01
2.760800000000000000e+04,-1.000000000000000082e-05,1.000000000000000082e-05,-1.000000000000000082e-05,1.000000000000000082e-05,1.000000000000000082e-05,-2.000000000000000164e-05,-2.000000000000000164e-05,-1.000000000000000082e-05,1.000000000000000000e+00,1.300000000000000000e+01
2.760900000000000000e+04,-2.000000000000000164e-05,1.000000000000000082e-05,2.999999999999999737e-05,-1.000000000000000082e-05,-2.000000000000000164e-05,-2.000000000000000164e-05,-1.000000000000000082e-05,0.000000000000000000e+00,1.000000000000000000e+00,1.300000000000000000e+01
2.761000000000000000e+04,0.000000000000000000e+00,1.000000000000000082e-05,2.000000000000000164e-05,-5.999999999999999474e-05,-6.999999999999999387e-05,-1.000000000000000082e-05,-2.000000000000000164e-05,0.000000000000000000e+00,1.000000000000000000e+00,1.300000000000000000e+01
2.761100000000000000e+04,0.000000000000000000e+00,1.000000000000000082e-05,2.000000000000000164e-05,-5.999999999999999474e-05,-6.999999999999999387e-05,-1.000000000000000082e-05,-2.000000000000000164e-05,0.000000000000000000e+00,1.000000000000000000e+00,1.300000000000000000e+01
2.761200000000000000e+04,0.000000000000000000e+00,1.000000000000000082e-05,2.000000000000000164e-05,-5.999999999999999474e-05,-6.999999999999999387e-05,-1.000000000000000082e-05,-2.000000000000000164e-05,0.000000000000000000e+00,1.000000000000000000e+00,1.300000000000000000e+01
2.761300000000000000e+04,0.000000000000000000e+00,1.000000000000000082e-05,2.000000000000000164e-05,-5.999999999999999474e-05,-6.999999999999999387e-05,-1.000000000000000082e-05,-2.000000000000000164e-05,0.000000000000000000e+00,1.000000000000000000e+00,1.300000000000000000e+01
2.761400000000000000e+04,0.000000000000000000e+00,1.000000000000000082e-05,2.000000000000000164e-05,-5.999999999999999474e-05,-6.999999999999999387e-05,-1.000000000000000082e-05,-2.000000000000000164e-05,0.000000000000000000e+00,1.000000000000000000e+00,1.300000000000000000e+01
2.761500000000000000e+04,0.000000000000000000e+00,1.000000000000000082e-05,2.000000000000000164e-05,-5.999999999999999474e-05,-6.999999999999999387e-05,-1.000000000000000082e-05,-2.000000000000000164e-05,0.000000000000000000e+00,1.000000000000000000e+00,1.300000000000000000e+01
2.761600000000000000e+04,0.000000000000000000e+00,1.000000000000000082e-05,2.000000000000000164e-05,-5.999999999999999474e-05,-6.999999999999999387e-05,-1.000000000000000082e-05,-2.000000000000000164e-05,0.000000000000000000e+00,1.000000000000000000e+00,1.300000000000000000e+01
2.761700000000000000e+04,0.000000000000000000e+00,1.000000000000000082e-05,2.000000000000000164e-05,-5.999999999999999474e-05,-6.999999999999999387e-05,-1.000000000000000082e-05,-2.000000000000000164e-05,0.000000000000000000e+00,1.000000000000000000e+00,1.300000000000000000e+01
2.761800000000000000e+04,0.000000000000000000e+00,1.000000000000000082e-05,2.000000000000000164e-05,-5.999999999999999474e-05,-6.999999999999999387e-05,-1.000000000000000082e-05,-2.000000000000000164e-05,0.000000000000000000e+00,1.000000000000000000e+00,1.300000000000000000e+01
2.761900000000000000e+04,0.000000000000000000e+00,1.000000000000000082e-05,2.000000000000000164e-05,-5.999999999999999474e-05,-6.999999999999999387e-05,-1.000000000000000082e-05,-2.000000000000000164e-05,0.000000000000000000e+00,1.000000000000000000e+00,1.300000000000000000e+01
2.762000000000000000e+04,0.000000000000000000e+00,1.000000000000000082e-05,2.000000000000000164e-05,-5.999999999999999474e-05,-6.999999999999999387e-05,-1.000000000000000082e-05,-2.000000000000000164e-05,0.000000000000000000e+00,1.000000000000000000e+00,1.300000000000000000e+01
2.762100000000000000e+04,0.000000000000000000e+00,1.000000000000000082e-05,2.000000000000000164e-05,-5.999999999999999474e-05,-6.999999999999999387e-05,-1.000000000000000082e-05,-2.000000000000000164e-05,0.000000000000000000e+00,1.000000000000000000e+00,1.300000000000000000e+01
2.762200000000000000e+04,0.000000000000000000e+00,1.000000000000000082e-05,2.000000000000000164e-05,-5.999999999999999474e-05,-6.999999999999999387e-05,-1.000000000000000082e-05,-2.000000000000000164e-05,0.000000000000000000e+00,1.000000000000000000e+00,1.300000000000000000e+01
2.762300000000000000e+04,0.000000000000000000e+00,1.000000000000000082e-05,2.000000000000000164e-05,-5.999999999999999474e-05,-6.999999999999999387e-05,-1.000000000000000082e-05,-2.000000000000000164e-05,0.000000000000000000e+00,1.000000000000000000e+00,1.300000000000000000e+01
2.762400000000000000e+04,0.000000000000000000e+00,1.000000000000000082e-05,2.000000000000000164e-05,-5.999999999999999474e-05,-6.999999999999999387e-05,-1.000000000000000082e-05,-2.000000000000000164e-05,0.000000000000000000e+00,1.000000000000000000e+00,1.300000000000000000e+01
2.762500000000000000e+04,0.000000000000000000e+00,1.000000000000000082e-05,2.000000000000000164e-05,-5.999999999999999474e-05,-6.999999999999999387e-05,-1.000000000000000082e-05,-2.000000000000000164e-05,0.000000000000000000e+00,1.000000000000000000e+00,1.300000000000000000e+01
2.762600000000000000e+04,0.000000000000000000e+00,1.000000000000000082e-05,2.000000000000000164e-05,-5.999999999999999474e-05,-6.999999999999999387e-05,-1.000000000000000082e-05,-2.000000000000000164e-05,0.000000000000000000e+00,1.000000000000000000e+00,1.300000000000000000e+01
2.762700000000000000e+04,0.000000000000000000e+00,1.000000000000000082e-05,2.000000000000000164e-05,-5.999999999999999474e-05,-6.999999999999999387e-05,-1.000000000000000082e-05,-2.000000000000000164e-05,0.000000000000000000e+00,1.000000000000000000e+00,1.300000000000000000e+01
2.762800000000000000e+04,0.000000000000000000e+00,1.000000000000000082e-05,2.000000000000000164e-05,-5.999999999999999474e-05,-6.999999999999999387e-05,-1.000000000000000082e-05,-2.000000000000000164e-05,0.000000000000000000e+00,1.000000000000000000e+00,1.300000000000000000e+01
2.762900000000000000e+04,0.000000000000000000e+00,1.000000000000000082e-05,2.000000000000000164e-05,-5.999999999999999474e-05,-6.999999999999999387e-05,-1.000000000000000082e-05,-2.000000000000000164e-05,0.000000000000000000e+00,1.000000000000000000e+00,1.300000000000000000e+01
2.763000000000000000e+04,0.000000000000000000e+00,1.000000000000000082e-05,2.000000000000000164e-05,-5.999999999999999474e-05,-6.999999999999999387e-05,-1.000000000000000082e-05,-2.000000000000000164e-05,0.000000000000000000e+00,1.000000000000000000e+00,1.300000000000000000e+01
2.763100000000000000e+04,0.000000000000000000e+00,1.000000000000000082e-05,2.000000000000000164e-05,-5.999999999999999474e-05,-6.999999999999999387e-05,-1.000000000000000082e-05,-2.000000000000000164e-05,0.000000000000000000e+00,1.000000000000000000e+00,1.300000000000000000e+01
2.763200000000000000e+04,-2.000000000000000164e-05,-2.000000000000000164e-05,-2.999999999999999737e-05,8.000000000000000654e-05,9.000000000000000567e-05,2.999999999999999737e-05,-1.000000000000000082e-05,0.000000000000000000e+00,1.000000000000000000e+00,1.300000000000000000e+01
2.763300000000000000e+04,-2.000000000000000164e-05,-2.999999999999999737e-05,-5.999999999999999474e-05,0.000000000000000000e+00,1.000000000000000082e-05,2.000000000000000164e-05,0.000000000000000000e+00,-2.000000000000000164e-05,1.000000000000000000e+00,1.300000000000000000e+01
2.763400000000000000e+04,-2.000000000000000164e-05,-2.999999999999999737e-05,-5.999999999999999474e-05,0.000000000000000000e+00,1.000000000000000082e-05,2.000000000000000164e-05,0.000000000000000000e+00,-2.000000000000000164e-05,1.000000000000000000e+00,1.300000000000000000e+01
2.763500000000000000e+04,-2.000000000000000164e-05,-2.999999999999999737e-05,-5.999999999999999474e-05,0.000000000000000000e+00,1.000000000000000082e-05,2.000000000000000164e-05,0.000000000000000000e+00,-2.000000000000000164e-05,1.000000000000000000e+00,1.300000000000000000e+01
2.763600000000000000e+04,-2.000000000000000164e-05,-2.999999999999999737e-05,-5.999999999999999474e-05,0.000000000000000000e+00,1.000000000000000082e-05,2.000000000000000164e-05,0.000000000000000000e+00,-2.000000000000000164e-05,1.000000000000000000e+00,1.300000000000000000e+01
2.763800000000000000e+04,-2.000000000000000164e-05,-2.999999999999999737e-05,-5.999999999999999474e-05,0.000000000000000000e+00,1.000000000000000082e-05,2.000000000000000164e-05,0.000000000000000000e+00,-2.000000000000000164e-05,1.000000000000000000e+00,1.300000000000000000e+01
2.763900000000000000e+04,-2.000000000000000164e-05,-2.999999999999999737e-05,-5.999999999999999474e-05,0.000000000000000000e+00,1.000000000000000082e-05,2.000000000000000164e-05,0.000000000000000000e+00,-2.000000000000000164e-05,1.000000000000000000e+00,1.300000000000000000e+01
2.764000000000000000e+04,-2.000000000000000164e-05,-2.999999999999999737e-05,-5.999999999999999474e-05,0.000000000000000000e+00,1.000000000000000082e-05,2.000000000000000164e-05,0.000000000000000000e+00,-2.000000000000000164e-05,1.000000000000000000e+00,1.300000000000000000e+01
2.764100000000000000e+04,-2.000000000000000164e-05,-2.999999999999999737e-05,-5.999999999999999474e-05,0.000000000000000000e+00,1.000000000000000082e-05,2.000000000000000164e-05,0.000000000000000000e+00,-2.000000000000000164e-05,1.000000000000000000e+00,1.300000000000000000e+01
2.764200000000000000e+04,-2.000000000000000164e-05,-2.999999999999999737e-05,-5.999999999999999474e-05,0.000000000000000000e+00,1.000000000000000082e-05,2.000000000000000164e-05,0.000000000000000000e+00,-2.000000000000000164e-05,1.000000000000000000e+00,1.300000000000000000e+01
2.764300000000000000e+04,-2.000000000000000164e-05,-2.999999999999999737e-05,-5.999999999999999474e-05,0.000000000000000000e+00,1.000000000000000082e-05,2.000000000000000164e-05,0.000000000000000000e+00,-2.000000000000000164e-05,1.000000000000000000e+00,1.300000000000000000e+01
2.764400000000000000e+04,-2.000000000000000164e-05,-2.999999999999999737e-05,-5.999999999999999474e-05,0.000000000000000000e+00,1.000000000000000082e-05,2.000000000000000164e-05,0.000000000000000000e+00,-2.000000000000000164e-05,1.000000000000000000e+00,1.300000000000000000e+01
2.764500000000000000e+04,-2.000000000000000164e-05,-2.999999999999999737e-05,-5.999999999999999474e-05,0.000000000000000000e+00,1.000000000000000082e-05,2.000000000000000164e-05,0.000000000000000000e+00,-2.000000000000000164e-05,1.000000000000000000e+00,1.300000000000000000e+01
2.764600000000000000e+04,-2.000000000000000164e-05,-2.999999999999999737e-05,-5.999999999999999474e-05,0.000000000000000000e+00,1.000000000000000082e-05,2.000000000000000164e-05,0.000000000000000000e+00,-2.000000000000000164e-05,1.000000000000000000e+00,1.300000000000000000e+01
2.764700000000000000e+04,-2.000000000000000164e-05,-2.999999999999999737e-05,-5.999999999999999474e-05,0.000000000000000000e+00,1.000000000000000082e-05,2.000000000000000164e-05,0.000000000000000000e+00,-2.000000000000000164e-05,1.000000000000000000e+00,1.300000000000000000e+01
2.764800000000000000e+04,-2.000000000000000164e-05,-2.999999999999999737e-05,-5.999999999999999474e-05,0.000000000000000000e+00,1.000000000000000082e-05,2.000000000000000164e-05,0.000000000000000000e+00,-2.000000000000000164e-05,1.000000000000000000e+00,1.300000000000000000e+01
2.764900000000000000e+04,-2.000000000000000164e-05,-2.999999999999999737e-05,-5.999999999999999474e-05,0.000000000000000000e+00,1.000000000000000082e-05,2.000000000000000164e-05,0.000000000000000000e+00,-2.000000000000000164e-05,1.000000000000000000e+00,1.300000000000000000e+01
2.765000000000000000e+04,-2.000000000000000164e-05,-2.999999999999999737e-05,-5.999999999999999474e-05,0.000000000000000000e+00,1.000000000000000082e-05,2.000000000000000164e-05,0.000000000000000000e+00,-2.000000000000000164e-05,1.000000000000000000e+00,1.300000000000000000e+01
2.765100000000000000e+04,-2.000000000000000164e-05,-2.999999999999999737e-05,-5.999999999999999474e-05,0.000000000000000000e+00,1.000000000000000082e-05,2.000000000000000164e-05,0.000000000000000000e+00,-2.000000000000000164e-05,1.000000000000000000e+00,1.300000000000000000e+01
2.765200000000000000e+04,-2.000000000000000164e-05,-2.999999999999999737e-05,-5.999999999999999474e-05,0.000000000000000000e+00,1.000000000000000082e-05,2.000000000000000164e-05,0.000000000000000000e+00,-2.000000000000000164e-05,1.000000000000000000e+00,1.300000000000000000e+01
2.765300000000000000e+04,-2.000000000000000164e-05,-2.999999999999999737e-05,-5.999999999999999474e-05,0.000000000000000000e+00,1.000000000000000082e-05,2.000000000000000164e-05,0.000000000000000000e+00,-2.000000000000000164e-05,1.000000000000000000e+00,1.300000000000000000e+01
2.765400000000000000e+04,-2.000000000000000164e-05,-2.000000000000000164e-05,-2.999999999999999737e-05,-1.399999999999999877e-04,2.999999999999999737e-05,1.100000000000000039e-04,1.000000000000000082e-05,-2.000000000000000164e-05,1.000000000000000000e+00,1.300000000000000000e+01
2.765500000000000000e+04,1.000000000000000082e-05,0.000000000000000000e+00,-2.999999999999999737e-05,2.000000000000000164e-05,2.700000000000000035e-04,1.199999999999999895e-04,2.000000000000000164e-05,2.000000000000000164e-05,1.000000000000000000e+00,1.300000000000000000e+01
2.765600000000000000e+04,1.000000000000000082e-05,0.000000000000000000e+00,-2.999999999999999737e-05,2.000000000000000164e-05,2.700000000000000035e-04,1.199999999999999895e-04,2.000000000000000164e-05,2.000000000000000164e-05,1.000000000000000000e+00,1.300000000000000000e+01
2.765700000000000000e+04,1.000000000000000082e-05,0.000000000000000000e+00,-2.999999999999999737e-05,2.000000000000000164e-05,2.700000000000000035e-04,1.199999999999999895e-04,2.000000000000000164e-05,2.000000000000000164e-05,1.000000000000000000e+00,1.300000000000000000e+01
2.765800000000000000e+04,1.000000000000000082e-05,0.000000000000000000e+00,-2.999999999999999737e-05,2.000000000000000164e-05,2.700000000000000035e-04,1.199999999999999895e-04,2.000000000000000164e-05,2.000000000000000164e-05,1.000000000000000000e+00,1.300000000000000000e+01
2.765900000000000000e+04,1.000000000000000082e-05,0.000000000000000000e+00,-2.999999999999999737e-05,2.000000000000000164e-05,2.700000000000000035e-04,1.199999999999999895e-04,2.000000000000000164e-05,2.000000000000000164e-05,1.000000000000000000e+00,1.300000000000000000e+01
2.766000000000000000e+04,1.000000000000000082e-05,0.000000000000000000e+00,-2.999999999999999737e-05,2.000000000000000164e-05,2.700000000000000035e-04,1.199999999999999895e-04,2.000000000000000164e-05,2.000000000000000164e-05,1.000000000000000000e+00,1.300000000000000000e+01
2.766100000000000000e+04,1.000000000000000082e-05,0.000000000000000000e+00,-2.999999999999999737e-05,2.000000000000000164e-05,2.700000000000000035e-04,1.199999999999999895e-04,2.000000000000000164e-05,2.000000000000000164e-05,1.000000000000000000e+00,1.300000000000000000e+01
2.766200000000000000e+04,1.000000000000000082e-05,0.000000000000000000e+00,-2.999999999999999737e-05,2.000000000000000164e-05,2.700000000000000035e-04,1.199999999999999895e-04,2.000000000000000164e-05,2.000000000000000164e-05,1.000000000000000000e+00,1.300000000000000000e+01
2.766300000000000000e+04,1.000000000000000082e-05,0.000000000000000000e+00,-2.999999999999999737e-05,2.000000000000000164e-05,2.700000000000000035e-04,1.199999999999999895e-04,2.000000000000000164e-05,2.000000000000000164e-05,1.000000000000000000e+00,1.300000000000000000e+01
2.766400000000000000e+04,1.000000000000000082e-05,0.000000000000000000e+00,-2.999999999999999737e-05,2.000000000000000164e-05,2.700000000000000035e-04,1.199999999999999895e-04,2.000000000000000164e-05,2.000000000000000164e-05,1.000000000000000000e+00,1.300000000000000000e+01
2.766500000000000000e+04,1.000000000000000082e-05,0.000000000000000000e+00,-2.999999999999999737e-05,2.000000000000000164e-05,2.700000000000000035e-04,1.199999999999999895e-04,2.000000000000000164e-05,2.000000000000000164e-05,1.000000000000000000e+00,1.300000000000000000e+01
2.766600000000000000e+04,1.000000000000000082e-05,0.000000000000000000e+00,-2.999999999999999737e-05,2.000000000000000164e-05,2.700000000000000035e-04,1.199999999999999895e-04,2.000000000000000164e-05,2.000000000000000164e-05,1.000000000000000000e+00,1.300000000000000000e+01
2.766700000000000000e+04,1.000000000000000082e-05,0.000000000000000000e+00,-2.999999999999999737e-05,2.000000000000000164e-05,2.700000000000000035e-04,1.199999999999999895e-04,2.000000000000000164e-05,2.000000000000000164e-05,1.000000000000000000e+00,1.300000000000000000e+01
2.766800000000000000e+04,1.000000000000000082e-05,0.000000000000000000e+00,-2.999999999999999737e-05,2.000000000000000164e-05,2.700000000000000035e-04,1.199999999999999895e-04,2.000000000000000164e-05,2.000000000000000164e-05,1.000000000000000000e+00,1.300000000000000000e+01
2.766900000000000000e+04,1.000000000000000082e-05,0.000000000000000000e+00,-2.999999999999999737e-05,2.000000000000000164e-05,2.700000000000000035e-04,1.199999999999999895e-04,2.000000000000000164e-05,2.000000000000000164e-05,1.000000000000000000e+00,1.300000000000000000e+01
2.767000000000000000e+04,1.000000000000000082e-05,0.000000000000000000e+00,-2.999999999999999737e-05,2.000000000000000164e-05,2.700000000000000035e-04,1.199999999999999895e-04,2.000000000000000164e-05,2.000000000000000164e-05,1.000000000000000000e+00,1.300000000000000000e+01
2.767100000000000000e+04,1.000000000000000082e-05,0.000000000000000000e+00,-2.999999999999999737e-05,2.000000000000000164e-05,2.700000000000000035e-04,1.199999999999999895e-04,2.000000000000000164e-05,2.000000000000000164e-05,1.000000000000000000e+00,1.300000000000000000e+01
2.767200000000000000e+04,1.000000000000000082e-05,0.000000000000000000e+00,-2.999999999999999737e-05,2.000000000000000164e-05,2.700000000000000035e-04,1.199999999999999895e-04,2.000000000000000164e-05,2.000000000000000164e-05,1.000000000000000000e+00,1.300000000000000000e+01
2.767300000000000000e+04,1.000000000000000082e-05,0.000000000000000000e+00,-2.999999999999999737e-05,2.000000000000000164e-05,2.700000000000000035e-04,1.199999999999999895e-04,2.000000000000000164e-05,2.000000000000000164e-05,1.000000000000000000e+00,1.300000000000000000e+01
2.767400000000000000e+04,1.000000000000000082e-05,0.000000000000000000e+00,-2.999999999999999737e-05,2.000000000000000164e-05,2.700000000000000035e-04,1.199999999999999895e-04,2.000000000000000164e-05,2.000000000000000164e-05,1.000000000000000000e+00,1.300000000000000000e+01
2.767500000000000000e+04,1.000000000000000082e-05,0.000000000000000000e+00,-2.999999999999999737e-05,2.000000000000000164e-05,2.700000000000000035e-04,1.199999999999999895e-04,2.000000000000000164e-05,2.000000000000000164e-05,1.000000000000000000e+00,1.300000000000000000e+01
2.767600000000000000e+04,1.000000000000000082e-05,0.000000000000000000e+00,-2.999999999999999737e-05,2.000000000000000164e-05,2.700000000000000035e-04,1.199999999999999895e-04,2.000000000000000164e-05,2.000000000000000164e-05,1.000000000000000000e+00,1.300000000000000000e+01
