1.692700000000000000e+04,2.999999999999999737e-05,5.000000000000000240e-05,2.799999999999999755e-04,-8.599999999999999789e-04,4.200000000000000174e-04,6.099999999999999737e-04,2.999999999999999737e-05,2.999999999999999737e-05,4.000000000000000000e+00,6.000000000000000000e+00
1.692800000000000000e+04,2.999999999999999737e-05,5.000000000000000240e-05,2.799999999999999755e-04,-8.599999999999999789e-04,4.200000000000000174e-04,6.099999999999999737e-04,2.999999999999999737e-05,2.999999999999999737e-05,4.000000000000000000e+00,6.000000000000000000e+00
1.692900000000000000e+04,2.999999999999999737e-05,5.000000000000000240e-05,2.799999999999999755e-04,-8.599999999999999789e-04,4.200000000000000174e-04,6.099999999999999737e-04,2.999999999999999737e-05,2.999999999999999737e-05,4.000000000000000000e+00,6.000000000000000000e+00
1.693000000000000000e+04,2.999999999999999737e-05,5.000000000000000240e-05,2.799999999999999755e-04,-8.599999999999999789e-04,4.200000000000000174e-04,6.099999999999999737e-04,2.999999999999999737e-05,2.999999999999999737e-05,4.000000000000000000e+00,6.000000000000000000e+00
1.693100000000000000e+04,2.999999999999999737e-05,5.000000000000000240e-05,2.799999999999999755e-04,-8.599999999999999789e-04,4.200000000000000174e-04,6.099999999999999737e-04,2.999999999999999737e-05,2.999999999999999737e-05,4.000000000000000000e+00,6.000000000000000000e+00
1.693200000000000000e+04,2.999999999999999737e-05,5.000000000000000240e-05,2.799999999999999755e-04,-8.599999999999999789e-04,4.200000000000000174e-04,6.099999999999999737e-04,2.999999999999999737e-05,2.999999999999999737e-05,4.000000000000000000e+00,6.000000000000000000e+00
1.693300000000000000e+04,2.999999999999999737e-05,5.000000000000000240e-05,2.799999999999999755e-04,-8.599999999999999789e-04,4.200000000000000174e-04,6.099999999999999737e-04,2.999999999999999737e-05,2.999999999999999737e-05,4.000000000000000000e+00,6.000000000000000000e+00
1.693400000000000000e+04,2.999999999999999737e-05,5.000000000000000240e-05,2.799999999999999755e-04,-8.599999999999999789e-04,4.200000000000000174e-04,6.099999999999999737e-04,2.999999999999999737e-05,2.999999999999999737e-05,4.000000000000000000e+00,6.000000000000000000e+00
1.693500000000000000e+04,2.999999999999999737e-05,5.000000000000000240e-05,2.799999999999999755e-04,-8.599999999999999789e-04,4.200000000000000174e-04,6.099999999999999737e-04,2.999999999999999737e-05,2.999999999999999737e-05,4.000000000000000000e+00,6.000000000000000000e+00
1.693600000000000000e+04,2.999999999999999737e-05,5.000000000000000240e-05,2.799999999999999755e-04,-8.599999999999999789e-04,4.200000000000000174e-04,6.099999999999999737e-04,2.999999999999999737e-05,2.999999999999999737e-05,4.000000000000000000e+00,6.000000000000000000e+00
1.693900000000000000e+04,2.999999999999999737e-05,5.000000000000000240e-05,2.799999999999999755e-04,-8.599999999999999789e-04,4.200000000000000174e-04,6.099999999999999737e-04,2.999999999999999737e-05,2.999999999999999737e-05,4.000000000000000000e+00,6.000000000000000000e+00
1.694000000000000000e+04,2.999999999999999737e-05,5.000000000000000240e-05,2.799999999999999755e-04,-8.599999999999999789e-04,4.200000000000000174e-04,6.099999999999999737e-04,2.999999999999999737e-05,2.999999999999999737e-05,4.000000000000000000e+00,6.000000000000000000e+00
1.694100000000000000e+04,-8.000000000000000654e-05,-1.000000000000000048e-04,-2.799999999999999755e-04,1.199999999999999895e-04,-9.300000000000000541e-04,-6.999999999999999929e-04,-2.500000000000000052e-04,-1.000000000000000048e-04,4.000000000000000000e+00,6.000000000000000000e+00
1.694200000000000000e+04,4.000000000000000327e-05,1.000000000000000082e-05,4.000000000000000327e-05,-3.899999999999999929e-04,4.499999999999999877e-04,1.600000000000000131e-04,8.000000000000000654e-05,5.999999999999999474e-05,4.000000000000000000e+00,6.000000000000000000e+00
1.694300000000000000e+04,4.000000000000000327e-05,1.000000000000000082e-05,4.000000000000000327e-05,-3.899999999999999929e-04,4.499999999999999877e-04,1.600000000000000131e-04,8.000000000000000654e-05,5.999999999999999474e-05,4.000000000000000000e+00,6.000000000000000000e+00
1.694400000000000000e+04,2.100000000000000087e-04,3.399999999999999702e-04,4.299999999999999894e-04,8.999999999999999754e-04,8.599999999999999789e-04,9.799999999999999684e-04,5.299999999999999807e-04,2.500000000000000052e-04,4.000000000000000000e+00,6.000000000000000000e+00
1.694500000000000000e+04,2.100000000000000087e-04,3.399999999999999702e-04,4.299999999999999894e-04,8.999999999999999754e-04,8.599999999999999789e-04,9.799999999999999684e-04,5.299999999999999807e-04,2.500000000000000052e-04,4.000000000000000000e+00,6.000000000000000000e+00
1.694600000000000000e+04,2.100000000000000087e-04,3.399999999999999702e-04,4.299999999999999894e-04,8.999999999999999754e-04,8.599999999999999789e-04,9.799999999999999684e-04,5.299999999999999807e-04,2.500000000000000052e-04,4.000000000000000000e+00,6.000000000000000000e+00
1.694700000000000000e+04,2.100000000000000087e-04,3.399999999999999702e-04,4.299999999999999894e-04,8.999999999999999754e-04,8.599999999999999789e-04,9.799999999999999684e-04,5.299999999999999807e-04,2.500000000000000052e-04,4.000000000000000000e+00,6.000000000000000000e+00
1.694800000000000000e+04,2.100000000000000087e-04,3.399999999999999702e-04,4.299999999999999894e-04,8.999999999999999754e-04,8.599999999999999789e-04,9.799999999999999684e-04,5.299999999999999807e-04,2.500000000000000052e-04,4.000000000000000000e+00,6.000000000000000000e+00
1.694900000000000000e+04,2.100000000000000087e-04,3.399999999999999702e-04,4.299999999999999894e-04,8.999999999999999754e-04,8.599999999999999789e-04,9.799999999999999684e-04,5.299999999999999807e-04,2.500000000000000052e-04,4.000000000000000000e+00,6.000000000000000000e+00
1.695000000000000000e+04,2.100000000000000087e-04,3.399999999999999702e-04,4.299999999999999894e-04,8.999999999999999754e-04,8.599999999999999789e-04,9.799999999999999684e-04,5.299999999999999807e-04,2.500000000000000052e-04,4.000000000000000000e+00,6.000000000000000000e+00
1.695100000000000000e+04,2.100000000000000087e-04,3.399999999999999702e-04,4.299999999999999894e-04,8.999999999999999754e-04,8.599999999999999789e-04,9.799999999999999684e-04,5.299999999999999807e-04,2.500000000000000052e-04,4.000000000000000000e+00,6.000000000000000000e+00
1.695200000000000000e+04,2.100000000000000087e-04,3.399999999999999702e-04,4.299999999999999894e-04,8.999999999999999754e-04,8.599999999999999789e-04,9.799999999999999684e-04,5.299999999999999807e-04,2.500000000000000052e-04,4.000000000000000000e+00,6.000000000000000000e+00
1.695300000000000000e+04,2.100000000000000087e-04,3.399999999999999702e-04,4.299999999999999894e-04,8.999999999999999754e-04,8.599999999999999789e-04,9.799999999999999684e-04,5.299999999999999807e-04,2.500000000000000052e-04,4.000000000000000000e+00,6.000000000000000000e+00
1.695400000000000000e+04,2.100000000000000087e-04,3.399999999999999702e-04,4.299999999999999894e-04,8.999999999999999754e-04,8.599999999999999789e-04,9.799999999999999684e-04,5.299999999999999807e-04,2.500000000000000052e-04,4.000000000000000000e+00,6.000000000000000000e+00
1.695500000000000000e+04,2.100000000000000087e-04,3.399999999999999702e-04,4.299999999999999894e-04,8.999999999999999754e-04,8.599999999999999789e-04,9.799999999999999684e-04,5.299999999999999807e-04,2.500000000000000052e-04,4.000000000000000000e+00,6.000000000000000000e+00
1.695600000000000000e+04,-1.000000000000000082e-05,-2.999999999999999737e-05,-5.000000000000000240e-05,-4.599999999999999597e-04,-7.799999999999999859e-04,-2.399999999999999790e-04,2.999999999999999737e-05,1.000000000000000082e-05,4.000000000000000000e+00,6.000000000000000000e+00
1.695700000000000000e+04,-1.000000000000000082e-05,-2.999999999999999737e-05,-5.000000000000000240e-05,-4.599999999999999597e-04,-7.799999999999999859e-04,-2.399999999999999790e-04,2.999999999999999737e-05,1.000000000000000082e-05,4.000000000000000000e+00,6.000000000000000000e+00
1.695800000000000000e+04,-1.000000000000000082e-05,-2.999999999999999737e-05,-5.000000000000000240e-05,-4.599999999999999597e-04,-7.799999999999999859e-04,-2.399999999999999790e-04,2.999999999999999737e-05,1.000000000000000082e-05,4.000000000000000000e+00,6.000000000000000000e+00
1.695900000000000000e+04,-1.000000000000000082e-05,-2.999999999999999737e-05,-5.000000000000000240e-05,-4.599999999999999597e-04,-7.799999999999999859e-04,-2.399999999999999790e-04,2.999999999999999737e-05,1.000000000000000082e-05,4.000000000000000000e+00,6.000000000000000000e+00
1.696000000000000000e+04,-1.000000000000000082e-05,-2.999999999999999737e-05,-5.000000000000000240e-05,-4.599999999999999597e-04,-7.799999999999999859e-04,-2.399999999999999790e-04,2.999999999999999737e-05,1.000000000000000082e-05,4.000000000000000000e+00,6.000000000000000000e+00
1.696100000000000000e+04,-1.000000000000000082e-05,-2.999999999999999737e-05,-5.000000000000000240e-05,-4.599999999999999597e-04,-7.799999999999999859e-04,-2.399999999999999790e-04,2.999999999999999737e-05,1.000000000000000082e-05,4.000000000000000000e+00,6.000000000000000000e+00
1.696200000000000000e+04,-1.000000000000000082e-05,-2.999999999999999737e-05,-5.000000000000000240e-05,-4.599999999999999597e-04,-7.799999999999999859e-04,-2.399999999999999790e-04,2.999999999999999737e-05,1.000000000000000082e-05,4.000000000000000000e+00,6.000000000000000000e+00
1.696300000000000000e+04,-2.000000000000000096e-04,-2.700000000000000035e-04,-3.899999999999999929e-04,-6.199999999999999999e-04,-5.599999999999999509e-04,-9.799999999999999684e-04,-4.299999999999999894e-04,-2.200000000000000078e-04,4.000000000000000000e+00,6.000000000000000000e+00
1.696400000000000000e+04,-2.000000000000000096e-04,-2.700000000000000035e-04,-3.899999999999999929e-04,-6.199999999999999999e-04,-5.599999999999999509e-04,-9.799999999999999684e-04,-4.299999999999999894e-04,-2.200000000000000078e-04,4.000000000000000000e+00,6.000000000000000000e+00
1.696500000000000000e+04,-2.000000000000000096e-04,-2.700000000000000035e-04,-3.899999999999999929e-04,-6.199999999999999999e-04,-5.599999999999999509e-04,-9.799999999999999684e-04,-4.299999999999999894e-04,-2.200000000000000078e-04,4.000000000000000000e+00,6.000000000000000000e+00
1.696600000000000000e+04,-2.000000000000000096e-04,-2.700000000000000035e-04,-3.899999999999999929e-04,-6.199999999999999999e-04,-5.599999999999999509e-04,-9.799999999999999684e-04,-4.299999999999999894e-04,-2.200000000000000078e-04,4.000000000000000000e+00,6.000000000000000000e+00
1.696700000000000000e+04,-2.000000000000000096e-04,-2.700000000000000035e-04,-3.899999999999999929e-04,-6.199999999999999999e-04,-5.599999999999999509e-04,-9.799999999999999684e-04,-4.299999999999999894e-04,-2.200000000000000078e-04,4.000000000000000000e+00,6.000000000000000000e+00
1.696800000000000000e+04,-2.000000000000000096e-04,-2.700000000000000035e-04,-3.899999999999999929e-04,-6.199999999999999999e-04,-5.599999999999999509e-04,-9.799999999999999684e-04,-4.299999999999999894e-04,-2.200000000000000078e-04,4.000000000000000000e+00,6.000000000000000000e+00
1.696900000000000000e+04,-2.000000000000000096e-04,-2.700000000000000035e-04,-3.899999999999999929e-04,-6.199999999999999999e-04,-5.599999999999999509e-04,-9.799999999999999684e-04,-4.299999999999999894e-04,-2.200000000000000078e-04,4.000000000000000000e+00,6.000000000000000000e+00
1.697000000000000000e+04,-2.000000000000000096e-04,-2.700000000000000035e-04,-3.899999999999999929e-04,-6.199999999999999999e-04,-5.599999999999999509e-04,-9.799999999999999684e-04,-4.299999999999999894e-04,-2.200000000000000078e-04,4.000000000000000000e+00,6.000000000000000000e+00
1.697100000000000000e+04,-2.000000000000000096e-04,-2.700000000000000035e-04,-3.899999999999999929e-04,-6.199999999999999999e-04,-5.599999999999999509e-04,-9.799999999999999684e-04,-4.299999999999999894e-04,-2.200000000000000078e-04,4.000000000000000000e+00,6.000000000000000000e+00
1.697200000000000000e+04,-2.000000000000000096e-04,-2.700000000000000035e-04,-3.899999999999999929e-04,-6.199999999999999999e-04,-5.599999999999999509e-04,-9.799999999999999684e-04,-4.299999999999999894e-04,-2.200000000000000078e-04,4.000000000000000000e+00,6.000000000000000000e+00
1.697300000000000000e+04,-2.000000000000000096e-04,-2.700000000000000035e-04,-3.899999999999999929e-04,-6.199999999999999999e-04,-5.599999999999999509e-04,-9.799999999999999684e-04,-4.299999999999999894e-04,-2.200000000000000078e-04,4.000000000000000000e+00,6.000000000000000000e+00
1.697400000000000000e+04,-2.000000000000000096e-04,-2.700000000000000035e-04,-3.899999999999999929e-04,-6.199999999999999999e-04,-5.599999999999999509e-04,-9.799999999999999684e-04,-4.299999999999999894e-04,-2.200000000000000078e-04,4.000000000000000000e+00,6.000000000000000000e+00
1.697500000000000000e+04,-2.000000000000000096e-04,-2.700000000000000035e-04,-3.899999999999999929e-04,-6.199999999999999999e-04,-5.599999999999999509e-04,-9.799999999999999684e-04,-4.299999999999999894e-04,-2.200000000000000078e-04,4.000000000000000000e+00,6.000000000000000000e+00
1.697600000000000000e+04,-2.000000000000000096e-04,-2.700000000000000035e-04,-3.899999999999999929e-04,-6.199999999999999999e-04,-5.599999999999999509e-04,-9.799999999999999684e-04,-4.299999999999999894e-04,-2.200000000000000078e-04,4.000000000000000000e+00,6.000000000000000000e+00
1.697700000000000000e+04,-2.000000000000000096e-04,-2.700000000000000035e-04,-3.899999999999999929e-04,-6.199999999999999999e-04,-5.599999999999999509e-04,-9.799999999999999684e-04,-4.299999999999999894e-04,-2.200000000000000078e-04,4.000000000000000000e+00,6.000000000000000000e+00
1.697800000000000000e+04,-2.000000000000000096e-04,-2.700000000000000035e-04,-3.899999999999999929e-04,-6.199999999999999999e-04,-5.599999999999999509e-04,-9.799999999999999684e-04,-4.299999999999999894e-04,-2.200000000000000078e-04,4.000000000000000000e+00,6.000000000000000000e+00
1.697900000000000000e+04,-2.000000000000000096e-04,-2.700000000000000035e-04,-3.899999999999999929e-04,-6.199999999999999999e-04,-5.599999999999999509e-04,-9.799999999999999684e-04,-4.299999999999999894e-04,-2.200000000000000078e-04,4.000000000000000000e+00,6.000000000000000000e+00
1.698000000000000000e+04,5.999999999999999474e-05,8.000000000000000654e-05,1.000000000000000048e-04,1.300000000000000157e-04,9.599999999999999159e-04,-1.199999999999999895e-04,1.399999999999999877e-04,6.999999999999999387e-05,4.000000000000000000e+00,6.000000000000000000e+00
1.698100000000000000e+04,2.000000000000000164e-05,9.000000000000000567e-05,2.200000000000000078e-04,1.040000000000000126e-03,-3.699999999999999947e-04,-8.000000000000000654e-05,0.000000000000000000e+00,1.000000000000000082e-05,4.000000000000000000e+00,6.000000000000000000e+00
1.698200000000000000e+04,-1.100000000000000039e-04,-1.499999999999999869e-04,-1.199999999999999895e-04,-2.999999999999999737e-05,-6.199999999999999999e-04,-6.999999999999999929e-04,-2.900000000000000017e-04,-1.300000000000000157e-04,4.000000000000000000e+00,6.000000000000000000e+00
1.698300000000000000e+04,-1.100000000000000039e-04,-1.499999999999999869e-04,-1.199999999999999895e-04,-2.999999999999999737e-05,-6.199999999999999999e-04,-6.999999999999999929e-04,-2.900000000000000017e-04,-1.300000000000000157e-04,4.000000000000000000e+00,6.000000000000000000e+00
1.698400000000000000e+04,-1.100000000000000039e-04,-1.499999999999999869e-04,-1.199999999999999895e-04,-2.999999999999999737e-05,-6.199999999999999999e-04,-6.999999999999999929e-04,-2.900000000000000017e-04,-1.300000000000000157e-04,4.000000000000000000e+00,6.000000000000000000e+00
1.698500000000000000e+04,-1.100000000000000039e-04,-1.499999999999999869e-04,-1.199999999999999895e-04,-2.999999999999999737e-05,-6.199999999999999999e-04,-6.999999999999999929e-04,-2.900000000000000017e-04,-1.300000000000000157e-04,4.000000000000000000e+00,6.000000000000000000e+00
1.698600000000000000e+04,-1.100000000000000039e-04,-1.499999999999999869e-04,-1.199999999999999895e-04,-2.999999999999999737e-05,-6.199999999999999999e-04,-6.999999999999999929e-04,-2.900000000000000017e-04,-1.300000000000000157e-04,4.000000000000000000e+00,6.000000000000000000e+00
1.698900000000000000e+04,-1.100000000000000039e-04,-1.499999999999999869e-04,-1.199999999999999895e-04,-2.999999999999999737e-05,-6.199999999999999999e-04,-6.999999999999999929e-04,-2.900000000000000017e-04,-1.300000000000000157e-04,4.000000000000000000e+00,6.000000000000000000e+00
1.699000000000000000e+04,-1.100000000000000039e-04,-1.499999999999999869e-04,-1.199999999999999895e-04,-2.999999999999999737e-05,-6.199999999999999999e-04,-6.999999999999999929e-04,-2.900000000000000017e-04,-1.300000000000000157e-04,4.000000000000000000e+00,6.000000000000000000e+00
1.699100000000000000e+04,-1.100000000000000039e-04,-1.499999999999999869e-04,-1.199999999999999895e-04,-2.999999999999999737e-05,-6.199999999999999999e-04,-6.999999999999999929e-04,-2.900000000000000017e-04,-1.300000000000000157e-04,4.000000000000000000e+00,6.000000000000000000e+00
1.699200000000000000e+04,-1.100000000000000039e-04,-1.499999999999999869e-04,-1.199999999999999895e-04,-2.999999999999999737e-05,-6.199999999999999999e-04,-6.999999999999999929e-04,-2.900000000000000017e-04,-1.300000000000000157e-04,4.000000000000000000e+00,6.000000000000000000e+00
1.699300000000000000e+04,-1.100000000000000039e-04,-1.499999999999999869e-04,-1.199999999999999895e-04,-2.999999999999999737e-05,-6.199999999999999999e-04,-6.999999999999999929e-04,-2.900000000000000017e-04,-1.300000000000000157e-04,4.000000000000000000e+00,6.000000000000000000e+00
1.699400000000000000e+04,-1.100000000000000039e-04,-1.499999999999999869e-04,-1.199999999999999895e-04,-2.999999999999999737e-05,-6.199999999999999999e-04,-6.999999999999999929e-04,-2.900000000000000017e-04,-1.300000000000000157e-04,4.000000000000000000e+00,6.000000000000000000e+00
1.699500000000000000e+04,-1.100000000000000039e-04,-1.499999999999999869e-04,-1.199999999999999895e-04,-2.999999999999999737e-05,-6.199999999999999999e-04,-6.999999999999999929e-04,-2.900000000000000017e-04,-1.300000000000000157e-04,4.000000000000000000e+00,6.000000000000000000e+00
1.699600000000000000e+04,-1.100000000000000039e-04,-1.499999999999999869e-04,-1.199999999999999895e-04,-2.999999999999999737e-05,-6.199999999999999999e-04,-6.999999999999999929e-04,-2.900000000000000017e-04,-1.300000000000000157e-04,4.000000000000000000e+00,6.000000000000000000e+00
1.699700000000000000e+04,-1.100000000000000039e-04,-1.499999999999999869e-04,-1.199999999999999895e-04,-2.999999999999999737e-05,-6.199999999999999999e-04,-6.999999999999999929e-04,-2.900000000000000017e-04,-1.300000000000000157e-04,4.000000000000000000e+00,6.000000000000000000e+00
1.699800000000000000e+04,-1.100000000000000039e-04,-1.499999999999999869e-04,-1.199999999999999895e-04,-2.999999999999999737e-05,-6.199999999999999999e-04,-6.999999999999999929e-04,-2.900000000000000017e-04,-1.300000000000000157e-04,4.000000000000000000e+00,6.000000000000000000e+00
1.699900000000000000e+04,-1.100000000000000039e-04,-1.499999999999999869e-04,-1.199999999999999895e-04,-2.999999999999999737e-05,-6.199999999999999999e-04,-6.999999999999999929e-04,-2.900000000000000017e-04,-1.300000000000000157e-04,4.000000000000000000e+00,6.000000000000000000e+00
1.700000000000000000e+04,-1.100000000000000039e-04,-1.499999999999999869e-04,-1.199999999999999895e-04,-2.999999999999999737e-05,-6.199999999999999999e-04,-6.999999999999999929e-04,-2.900000000000000017e-04,-1.300000000000000157e-04,4.000000000000000000e+00,6.000000000000000000e+00
1.700100000000000000e+04,-5.000000000000000240e-05,-1.499999999999999869e-04,-5.299999999999999807e-04,2.100000000000000087e-04,-7.700000000000000681e-04,4.299999999999999894e-04,9.000000000000000567e-05,-1.000000000000000082e-05,4.000000000000000000e+00,6.000000000000000000e+00
1.700200000000000000e+04,-6.999999999999999387e-05,-1.100000000000000039e-04,-1.399999999999999877e-04,-4.299999999999999894e-04,-3.799999999999999667e-04,-6.700000000000000226e-04,-6.999999999999999387e-05,-5.999999999999999474e-05,4.000000000000000000e+00,6.000000000000000000e+00
1.700300000000000000e+04,-6.999999999999999387e-05,-1.100000000000000039e-04,-2.900000000000000017e-04,-1.300000000000000157e-04,-1.269999999999999862e-03,-6.999999999999999387e-05,-1.100000000000000039e-04,-6.999999999999999387e-05,4.000000000000000000e+00,6.000000000000000000e+00
1.700400000000000000e+04,-6.999999999999999387e-05,-1.100000000000000039e-04,-2.900000000000000017e-04,-1.300000000000000157e-04,-1.269999999999999862e-03,-6.999999999999999387e-05,-1.100000000000000039e-04,-6.999999999999999387e-05,4.000000000000000000e+00,6.000000000000000000e+00
1.700500000000000000e+04,-6.999999999999999387e-05,-1.100000000000000039e-04,-2.900000000000000017e-04,-1.300000000000000157e-04,-1.269999999999999862e-03,-6.999999999999999387e-05,-1.100000000000000039e-04,-6.999999999999999387e-05,4.000000000000000000e+00,6.000000000000000000e+00
1.700600000000000000e+04,-6.999999999999999387e-05,-1.100000000000000039e-04,-2.900000000000000017e-04,-1.300000000000000157e-04,-1.269999999999999862e-03,-6.999999999999999387e-05,-1.100000000000000039e-04,-6.999999999999999387e-05,4.000000000000000000e+00,6.000000000000000000e+00
1.700700000000000000e+04,-6.999999999999999387e-05,-1.100000000000000039e-04,-2.900000000000000017e-04,-1.300000000000000157e-04,-1.269999999999999862e-03,-6.999999999999999387e-05,-1.100000000000000039e-04,-6.999999999999999387e-05,4.000000000000000000e+00,6.000000000000000000e+00
1.700800000000000000e+04,-6.999999999999999387e-05,-1.100000000000000039e-04,-2.900000000000000017e-04,-1.300000000000000157e-04,-1.269999999999999862e-03,-6.999999999999999387e-05,-1.100000000000000039e-04,-6.999999999999999387e-05,4.000000000000000000e+00,6.000000000000000000e+00
1.700900000000000000e+04,-6.999999999999999387e-05,-1.100000000000000039e-04,-2.900000000000000017e-04,-1.300000000000000157e-04,-1.269999999999999862e-03,-6.999999999999999387e-05,-1.100000000000000039e-04,-6.999999999999999387e-05,4.000000000000000000e+00,6.000000000000000000e+00
1.701000000000000000e+04,-6.999999999999999387e-05,-1.100000000000000039e-04,-2.900000000000000017e-04,-1.300000000000000157e-04,-1.269999999999999862e-03,-6.999999999999999387e-05,-1.100000000000000039e-04,-6.999999999999999387e-05,4.000000000000000000e+00,6.000000000000000000e+00
1.701100000000000000e+04,-6.999999999999999387e-05,-1.100000000000000039e-04,-2.900000000000000017e-04,-1.300000000000000157e-04,-1.269999999999999862e-03,-6.999999999999999387e-05,-1.100000000000000039e-04,-6.999999999999999387e-05,4.000000000000000000e+00,6.000000000000000000e+00
1.701200000000000000e+04,-6.999999999999999387e-05,-1.100000000000000039e-04,-2.900000000000000017e-04,-1.300000000000000157e-04,-1.269999999999999862e-03,-6.999999999999999387e-05,-1.100000000000000039e-04,-6.999999999999999387e-05,4.000000000000000000e+00,6.000000000000000000e+00
1.701300000000000000e+04,-6.999999999999999387e-05,-1.100000000000000039e-04,-2.900000000000000017e-04,-1.300000000000000157e-04,-1.269999999999999862e-03,-6.999999999999999387e-05,-1.100000000000000039e-04,-6.999999999999999387e-05,4.000000000000000000e+00,6.000000000000000000e+00
1.701400000000000000e+04,-6.999999999999999387e-05,-1.100000000000000039e-04,-2.900000000000000017e-04,-1.300000000000000157e-04,-1.269999999999999862e-03,-6.999999999999999387e-05,-1.100000000000000039e-04,-6.999999999999999387e-05,4.000000000000000000e+00,6.000000000000000000e+00
1.701500000000000000e+04,-6.999999999999999387e-05,-1.100000000000000039e-04,-2.900000000000000017e-04,-1.300000000000000157e-04,-1.269999999999999862e-03,-6.999999999999999387e-05,-1.100000000000000039e-04,-6.999999999999999387e-05,4.000000000000000000e+00,6.000000000000000000e+00
1.701600000000000000e+04,-1.499999999999999869e-04,-2.500000000000000052e-04,-3.200000000000000262e-04,-1.000000000000000048e-04,-2.999999999999999737e-05,-2.700000000000000035e-04,-2.299999999999999799e-04,-1.399999999999999877e-04,4.000000000000000000e+00,6.000000000000000000e+00
1.701700000000000000e+04,-1.499999999999999869e-04,-2.500000000000000052e-04,-3.200000000000000262e-04,-1.000000000000000048e-04,-2.999999999999999737e-05,-2.700000000000000035e-04,-2.299999999999999799e-04,-1.399999999999999877e-04,4.000000000000000000e+00,6.000000000000000000e+00
1.701800000000000000e+04,-1.499999999999999869e-04,-2.500000000000000052e-04,-3.200000000000000262e-04,-1.000000000000000048e-04,-2.999999999999999737e-05,-2.700000000000000035e-04,-2.299999999999999799e-04,-1.399999999999999877e-04,4.000000000000000000e+00,6.000000000000000000e+00
1.701900000000000000e+04,-1.499999999999999869e-04,-2.500000000000000052e-04,-3.200000000000000262e-04,-1.000000000000000048e-04,-2.999999999999999737e-05,-2.700000000000000035e-04,-2.299999999999999799e-04,-1.399999999999999877e-04,4.000000000000000000e+00,6.000000000000000000e+00
1.702000000000000000e+04,-1.499999999999999869e-04,-2.500000000000000052e-04,-3.200000000000000262e-04,-1.000000000000000048e-04,-2.999999999999999737e-05,-2.700000000000000035e-04,-2.299999999999999799e-04,-1.399999999999999877e-04,4.000000000000000000e+00,6.000000000000000000e+00
1.702100000000000000e+04,-1.499999999999999869e-04,-2.500000000000000052e-04,-3.200000000000000262e-04,-1.000000000000000048e-04,-2.999999999999999737e-05,-2.700000000000000035e-04,-2.299999999999999799e-04,-1.399999999999999877e-04,4.000000000000000000e+00,6.000000000000000000e+00
1.702200000000000000e+04,4.000000000000000327e-05,1.000000000000000048e-04,1.699999999999999851e-04,-3.299999999999999982e-04,-2.000000000000000096e-04,2.600000000000000314e-04,2.200000000000000078e-04,1.100000000000000039e-04,4.000000000000000000e+00,6.000000000000000000e+00
1.702300000000000000e+04,-2.000000000000000164e-05,-4.000000000000000327e-05,-5.999999999999999474e-05,1.149999999999999981e-03,9.899999999999999946e-04,5.000000000000000240e-05,-9.000000000000000567e-05,-5.000000000000000240e-05,4.000000000000000000e+00,6.000000000000000000e+00
1.702400000000000000e+04,-2.000000000000000164e-05,-4.000000000000000327e-05,-5.999999999999999474e-05,1.149999999999999981e-03,9.899999999999999946e-04,5.000000000000000240e-05,-9.000000000000000567e-05,-5.000000000000000240e-05,4.000000000000000000e+00,6.000000000000000000e+00
1.702500000000000000e+04,-2.000000000000000164e-05,-4.000000000000000327e-05,-5.999999999999999474e-05,1.149999999999999981e-03,9.899999999999999946e-04,5.000000000000000240e-05,-9.000000000000000567e-05,-5.000000000000000240e-05,4.000000000000000000e+00,6.000000000000000000e+00
1.702600000000000000e+04,-2.000000000000000164e-05,-4.000000000000000327e-05,-5.999999999999999474e-05,1.149999999999999981e-03,9.899999999999999946e-04,5.000000000000000240e-05,-9.000000000000000567e-05,-5.000000000000000240e-05,4.000000000000000000e+00,6.000000000000000000e+00
1.702700000000000000e+04,-2.000000000000000164e-05,-4.000000000000000327e-05,-5.999999999999999474e-05,1.149999999999999981e-03,9.899999999999999946e-04,5.000000000000000240e-05,-9.000000000000000567e-05,-5.000000000000000240e-05,4.000000000000000000e+00,6.000000000000000000e+00
1.702800000000000000e+04,-2.000000000000000164e-05,-4.000000000000000327e-05,-5.999999999999999474e-05,1.149999999999999981e-03,9.899999999999999946e-04,5.000000000000000240e-05,-9.000000000000000567e-05,-5.000000000000000240e-05,4.000000000000000000e+00,6.000000000000000000e+00
1.702900000000000000e+04,-2.000000000000000164e-05,-4.000000000000000327e-05,-5.999999999999999474e-05,1.149999999999999981e-03,9.899999999999999946e-04,5.000000000000000240e-05,-9.000000000000000567e-05,-5.000000000000000240e-05,4.000000000000000000e+00,6.000000000000000000e+00
1.703000000000000000e+04,-2.000000000000000164e-05,-4.000000000000000327e-05,-5.999999999999999474e-05,1.149999999999999981e-03,9.899999999999999946e-04,5.000000000000000240e-05,-9.000000000000000567e-05,-5.000000000000000240e-05,4.000000000000000000e+00,6.000000000000000000e+00
1.703100000000000000e+04,-2.000000000000000164e-05,-4.000000000000000327e-05,-5.999999999999999474e-05,1.149999999999999981e-03,9.899999999999999946e-04,5.000000000000000240e-05,-9.000000000000000567e-05,-5.000000000000000240e-05,4.000000000000000000e+00,6.000000000000000000e+00
1.703200000000000000e+04,-2.000000000000000164e-05,-4.000000000000000327e-05,-5.999999999999999474e-05,1.149999999999999981e-03,9.899999999999999946e-04,5.000000000000000240e-05,-9.000000000000000567e-05,-5.000000000000000240e-05,4.000000000000000000e+00,6.000000000000000000e+00
1.703300000000000000e+04,-2.000000000000000164e-05,-4.000000000000000327e-05,-5.999999999999999474e-05,1.149999999999999981e-03,9.899999999999999946e-04,5.000000000000000240e-05,-9.000000000000000567e-05,-5.000000000000000240e-05,4.000000000000000000e+00,6.000000000000000000e+00
1.703400000000000000e+04,-2.000000000000000164e-05,-4.000000000000000327e-05,-5.999999999999999474e-05,1.149999999999999981e-03,9.899999999999999946e-04,5.000000000000000240e-05,-9.000000000000000567e-05,-5.000000000000000240e-05,4.000000000000000000e+00,6.000000000000000000e+00
1.703500000000000000e+04,-2.000000000000000164e-05,-4.000000000000000327e-05,-5.999999999999999474e-05,1.149999999999999981e-03,9.899999999999999946e-04,5.000000000000000240e-05,-9.000000000000000567e-05,-5.000000000000000240e-05,4.000000000000000000e+00,6.000000000000000000e+00
1.703600000000000000e+04,-2.000000000000000164e-05,-4.000000000000000327e-05,-5.999999999999999474e-05,1.149999999999999981e-03,9.899999999999999946e-04,5.000000000000000240e-05,-9.000000000000000567e-05,-5.000000000000000240e-05,4.000000000000000000e+00,6.000000000000000000e+00
1.703900000000000000e+04,-2.000000000000000164e-05,-4.000000000000000327e-05,-5.999999999999999474e-05,1.149999999999999981e-03,9.899999999999999946e-04,5.000000000000000240e-05,-9.000000000000000567e-05,-5.000000000000000240e-05,4.000000000000000000e+00,6.000000000000000000e+00
1.704000000000000000e+04,5.000000000000000240e-05,9.000000000000000567e-05,1.699999999999999851e-04,3.299999999999999982e-04,9.400000000000000803e-04,9.599999999999999159e-04,2.399999999999999790e-04,8.000000000000000654e-05,4.000000000000000000e+00,6.000000000000000000e+00
1.704100000000000000e+04,2.299999999999999799e-04,3.499999999999999964e-04,6.400000000000000524e-04,5.000000000000000104e-04,-2.799999999999999755e-04,5.699999999999999772e-04,3.899999999999999929e-04,2.600000000000000314e-04,4.000000000000000000e+00,6.000000000000000000e+00
1.704200000000000000e+04,2.299999999999999799e-04,3.499999999999999964e-04,6.400000000000000524e-04,5.000000000000000104e-04,-2.799999999999999755e-04,5.699999999999999772e-04,3.899999999999999929e-04,2.600000000000000314e-04,4.000000000000000000e+00,6.000000000000000000e+00
1.704300000000000000e+04,2.299999999999999799e-04,3.499999999999999964e-04,6.400000000000000524e-04,5.000000000000000104e-04,-2.799999999999999755e-04,5.699999999999999772e-04,3.899999999999999929e-04,2.600000000000000314e-04,4.000000000000000000e+00,6.000000000000000000e+00
1.704400000000000000e+04,2.299999999999999799e-04,3.499999999999999964e-04,6.400000000000000524e-04,5.000000000000000104e-04,-2.799999999999999755e-04,5.699999999999999772e-04,3.899999999999999929e-04,2.600000000000000314e-04,4.000000000000000000e+00,6.000000000000000000e+00
1.704500000000000000e+04,2.299999999999999799e-04,3.499999999999999964e-04,6.400000000000000524e-04,5.000000000000000104e-04,-2.799999999999999755e-04,5.699999999999999772e-04,3.899999999999999929e-04,2.600000000000000314e-04,4.000000000000000000e+00,6.000000000000000000e+00
1.704600000000000000e+04,2.299999999999999799e-04,3.499999999999999964e-04,6.400000000000000524e-04,5.000000000000000104e-04,-2.799999999999999755e-04,5.699999999999999772e-04,3.899999999999999929e-04,2.600000000000000314e-04,4.000000000000000000e+00,6.000000000000000000e+00
1.704700000000000000e+04,2.299999999999999799e-04,3.499999999999999964e-04,6.400000000000000524e-04,5.000000000000000104e-04,-2.799999999999999755e-04,5.699999999999999772e-04,3.899999999999999929e-04,2.600000000000000314e-04,4.000000000000000000e+00,6.000000000000000000e+00
1.704800000000000000e+04,2.299999999999999799e-04,3.499999999999999964e-04,6.400000000000000524e-04,5.000000000000000104e-04,-2.799999999999999755e-04,5.699999999999999772e-04,3.899999999999999929e-04,2.600000000000000314e-04,4.000000000000000000e+00,6.000000000000000000e+00
1.704900000000000000e+04,2.299999999999999799e-04,3.499999999999999964e-04,6.400000000000000524e-04,5.000000000000000104e-04,-2.799999999999999755e-04,5.699999999999999772e-04,3.899999999999999929e-04,2.600000000000000314e-04,4.000000000000000000e+00,6.000000000000000000e+00
1.705000000000000000e+04,2.299999999999999799e-04,3.499999999999999964e-04,6.400000000000000524e-04,5.000000000000000104e-04,-2.799999999999999755e-04,5.699999999999999772e-04,3.899999999999999929e-04,2.600000000000000314e-04,4.000000000000000000e+00,6.000000000000000000e+00
1.705100000000000000e+04,2.299999999999999799e-04,3.499999999999999964e-04,6.400000000000000524e-04,5.000000000000000104e-04,-2.799999999999999755e-04,5.699999999999999772e-04,3.899999999999999929e-04,2.600000000000000314e-04,4.000000000000000000e+00,6.000000000000000000e+00
1.705200000000000000e+04,2.299999999999999799e-04,3.499999999999999964e-04,6.400000000000000524e-04,5.000000000000000104e-04,-2.799999999999999755e-04,5.699999999999999772e-04,3.899999999999999929e-04,2.600000000000000314e-04,4.000000000000000000e+00,6.000000000000000000e+00
1.705300000000000000e+04,2.299999999999999799e-04,3.499999999999999964e-04,6.400000000000000524e-04,5.000000000000000104e-04,-2.799999999999999755e-04,5.699999999999999772e-04,3.899999999999999929e-04,2.600000000000000314e-04,4.000000000000000000e+00,6.000000000000000000e+00
1.705400000000000000e+04,2.299999999999999799e-04,3.499999999999999964e-04,6.400000000000000524e-04,5.000000000000000104e-04,-2.799999999999999755e-04,5.699999999999999772e-04,3.899999999999999929e-04,2.600000000000000314e-04,4.000000000000000000e+00,6.000000000000000000e+00
1.705500000000000000e+04,2.299999999999999799e-04,3.499999999999999964e-04,6.400000000000000524e-04,5.000000000000000104e-04,-2.799999999999999755e-04,5.699999999999999772e-04,3.899999999999999929e-04,2.600000000000000314e-04,4.000000000000000000e+00,6.000000000000000000e+00
1.705600000000000000e+04,2.299999999999999799e-04,3.499999999999999964e-04,6.400000000000000524e-04,5.000000000000000104e-04,-2.799999999999999755e-04,5.699999999999999772e-04,3.899999999999999929e-04,2.600000000000000314e-04,4.000000000000000000e+00,6.000000000000000000e+00
1.705700000000000000e+04,2.299999999999999799e-04,3.499999999999999964e-04,6.400000000000000524e-04,5.000000000000000104e-04,-2.799999999999999755e-04,5.699999999999999772e-04,3.899999999999999929e-04,2.600000000000000314e-04,4.000000000000000000e+00,6.000000000000000000e+00
1.705800000000000000e+04,2.299999999999999799e-04,3.499999999999999964e-04,6.400000000000000524e-04,5.000000000000000104e-04,-2.799999999999999755e-04,5.699999999999999772e-04,3.899999999999999929e-04,2.600000000000000314e-04,4.000000000000000000e+00,6.000000000000000000e+00
1.705900000000000000e+04,2.299999999999999799e-04,3.499999999999999964e-04,6.400000000000000524e-04,5.000000000000000104e-04,-2.799999999999999755e-04,5.699999999999999772e-04,3.899999999999999929e-04,2.600000000000000314e-04,4.000000000000000000e+00,6.000000000000000000e+00
1.706000000000000000e+04,2.299999999999999799e-04,3.499999999999999964e-04,6.400000000000000524e-04,5.000000000000000104e-04,-2.799999999999999755e-04,5.699999999999999772e-04,3.899999999999999929e-04,2.600000000000000314e-04,4.000000000000000000e+00,6.000000000000000000e+00
1.706100000000000000e+04,5.999999999999999474e-05,1.399999999999999877e-04,2.000000000000000096e-04,2.500000000000000052e-04,5.999999999999999474e-04,-3.899999999999999929e-04,0.000000000000000000e+00,5.999999999999999474e-05,4.000000000000000000e+00,6.000000000000000000e+00
1.706200000000000000e+04,5.999999999999999474e-05,1.399999999999999877e-04,2.000000000000000096e-04,2.500000000000000052e-04,5.999999999999999474e-04,-3.899999999999999929e-04,0.000000000000000000e+00,5.999999999999999474e-05,4.000000000000000000e+00,6.000000000000000000e+00
1.706300000000000000e+04,1.300000000000000157e-04,2.500000000000000052e-04,5.900000000000000296e-04,6.700000000000000226e-04,3.799999999999999667e-04,-3.499999999999999964e-04,1.800000000000000113e-04,1.699999999999999851e-04,4.000000000000000000e+00,6.000000000000000000e+00
1.706400000000000000e+04,-6.999999999999999387e-05,-1.000000000000000048e-04,-2.000000000000000096e-04,2.000000000000000164e-05,-5.000000000000000240e-05,2.999999999999999737e-05,-9.000000000000000567e-05,-8.000000000000000654e-05,4.000000000000000000e+00,6.000000000000000000e+00
1.706500000000000000e+04,-6.999999999999999387e-05,-1.000000000000000048e-04,-2.000000000000000096e-04,2.000000000000000164e-05,-5.000000000000000240e-05,2.999999999999999737e-05,-9.000000000000000567e-05,-8.000000000000000654e-05,4.000000000000000000e+00,6.000000000000000000e+00
1.706600000000000000e+04,-6.999999999999999387e-05,-1.000000000000000048e-04,-2.000000000000000096e-04,2.000000000000000164e-05,-5.000000000000000240e-05,2.999999999999999737e-05,-9.000000000000000567e-05,-8.000000000000000654e-05,4.000000000000000000e+00,6.000000000000000000e+00
1.706700000000000000e+04,-6.999999999999999387e-05,-1.000000000000000048e-04,-2.000000000000000096e-04,2.000000000000000164e-05,-5.000000000000000240e-05,2.999999999999999737e-05,-9.000000000000000567e-05,-8.000000000000000654e-05,4.000000000000000000e+00,6.000000000000000000e+00
1.706800000000000000e+04,-6.999999999999999387e-05,-1.000000000000000048e-04,-2.000000000000000096e-04,2.000000000000000164e-05,-5.000000000000000240e-05,2.999999999999999737e-05,-9.000000000000000567e-05,-8.000000000000000654e-05,4.000000000000000000e+00,6.000000000000000000e+00
1.706900000000000000e+04,-6.999999999999999387e-05,-1.000000000000000048e-04,-2.000000000000000096e-04,2.000000000000000164e-05,-5.000000000000000240e-05,2.999999999999999737e-05,-9.000000000000000567e-05,-8.000000000000000654e-05,4.000000000000000000e+00,6.000000000000000000e+00
1.707000000000000000e+04,-6.999999999999999387e-05,-1.000000000000000048e-04,-2.000000000000000096e-04,2.000000000000000164e-05,-5.000000000000000240e-05,2.999999999999999737e-05,-9.000000000000000567e-05,-8.000000000000000654e-05,4.000000000000000000e+00,6.000000000000000000e+00
1.707100000000000000e+04,-6.999999999999999387e-05,-1.000000000000000048e-04,-2.000000000000000096e-04,2.000000000000000164e-05,-5.000000000000000240e-05,2.999999999999999737e-05,-9.000000000000000567e-05,-8.000000000000000654e-05,4.000000000000000000e+00,6.000000000000000000e+00
1.707200000000000000e+04,-6.999999999999999387e-05,-1.000000000000000048e-04,-2.000000000000000096e-04,2.000000000000000164e-05,-5.000000000000000240e-05,2.999999999999999737e-05,-9.000000000000000567e-05,-8.000000000000000654e-05,4.000000000000000000e+00,6.000000000000000000e+00
1.707300000000000000e+04,-6.999999999999999387e-05,-1.000000000000000048e-04,-2.000000000000000096e-04,2.000000000000000164e-05,-5.000000000000000240e-05,2.999999999999999737e-05,-9.000000000000000567e-05,-8.000000000000000654e-05,4.000000000000000000e+00,6.000000000000000000e+00
1.707400000000000000e+04,-6.999999999999999387e-05,-1.000000000000000048e-04,-2.000000000000000096e-04,2.000000000000000164e-05,-5.000000000000000240e-05,2.999999999999999737e-05,-9.000000000000000567e-05,-8.000000000000000654e-05,4.000000000000000000e+00,6.000000000000000000e+00
1.707500000000000000e+04,-6.999999999999999387e-05,-1.000000000000000048e-04,-2.000000000000000096e-04,2.000000000000000164e-05,-5.000000000000000240e-05,2.999999999999999737e-05,-9.000000000000000567e-05,-8.000000000000000654e-05,4.000000000000000000e+00,6.000000000000000000e+00
1.707600000000000000e+04,1.000000000000000048e-04,1.199999999999999895e-04,9.000000000000000567e-05,-4.499999999999999877e-04,-1.080000000000000014e-03,1.049999999999999935e-03,9.000000000000000567e-05,9.000000000000000567e-05,4.000000000000000000e+00,6.000000000000000000e+00
1.707700000000000000e+04,1.000000000000000048e-04,1.199999999999999895e-04,9.000000000000000567e-05,-4.499999999999999877e-04,-1.080000000000000014e-03,1.049999999999999935e-03,9.000000000000000567e-05,9.000000000000000567e-05,4.000000000000000000e+00,6.000000000000000000e+00
1.707800000000000000e+04,1.000000000000000048e-04,1.199999999999999895e-04,9.000000000000000567e-05,-4.499999999999999877e-04,-1.080000000000000014e-03,1.049999999999999935e-03,9.000000000000000567e-05,9.000000000000000567e-05,4.000000000000000000e+00,6.000000000000000000e+00
1.707900000000000000e+04,1.000000000000000048e-04,1.199999999999999895e-04,9.000000000000000567e-05,-4.499999999999999877e-04,-1.080000000000000014e-03,1.049999999999999935e-03,9.000000000000000567e-05,9.000000000000000567e-05,4.000000000000000000e+00,6.000000000000000000e+00
1.708000000000000000e+04,1.000000000000000048e-04,1.199999999999999895e-04,9.000000000000000567e-05,-4.499999999999999877e-04,-1.080000000000000014e-03,1.049999999999999935e-03,9.000000000000000567e-05,9.000000000000000567e-05,4.000000000000000000e+00,6.000000000000000000e+00
1.708100000000000000e+04,1.000000000000000048e-04,1.199999999999999895e-04,9.000000000000000567e-05,-4.499999999999999877e-04,-1.080000000000000014e-03,1.049999999999999935e-03,9.000000000000000567e-05,9.000000000000000567e-05,4.000000000000000000e+00,6.000000000000000000e+00
1.708200000000000000e+04,-2.299999999999999799e-04,-3.399999999999999702e-04,-3.899999999999999929e-04,-7.700000000000000681e-04,-1.080000000000000014e-03,-1.240000000000000000e-03,-3.299999999999999982e-04,-2.700000000000000035e-04,4.000000000000000000e+00,6.000000000000000000e+00
1.708300000000000000e+04,8.000000000000000654e-05,1.499999999999999869e-04,8.000000000000000654e-05,6.700000000000000226e-04,1.699999999999999851e-04,3.299999999999999982e-04,2.700000000000000035e-04,1.300000000000000157e-04,4.000000000000000000e+00,6.000000000000000000e+00
1.708400000000000000e+04,8.000000000000000654e-05,1.499999999999999869e-04,8.000000000000000654e-05,6.700000000000000226e-04,1.699999999999999851e-04,3.299999999999999982e-04,2.700000000000000035e-04,1.300000000000000157e-04,4.000000000000000000e+00,6.000000000000000000e+00
1.708500000000000000e+04,8.000000000000000654e-05,1.499999999999999869e-04,8.000000000000000654e-05,6.700000000000000226e-04,1.699999999999999851e-04,3.299999999999999982e-04,2.700000000000000035e-04,1.300000000000000157e-04,4.000000000000000000e+00,6.000000000000000000e+00
1.708600000000000000e+04,8.000000000000000654e-05,1.499999999999999869e-04,8.000000000000000654e-05,6.700000000000000226e-04,1.699999999999999851e-04,3.299999999999999982e-04,2.700000000000000035e-04,1.300000000000000157e-04,4.000000000000000000e+00,6.000000000000000000e+00
1.708900000000000000e+04,8.000000000000000654e-05,1.499999999999999869e-04,8.000000000000000654e-05,6.700000000000000226e-04,1.699999999999999851e-04,3.299999999999999982e-04,2.700000000000000035e-04,1.300000000000000157e-04,4.000000000000000000e+00,6.000000000000000000e+00
1.709000000000000000e+04,8.000000000000000654e-05,1.499999999999999869e-04,8.000000000000000654e-05,6.700000000000000226e-04,1.699999999999999851e-04,3.299999999999999982e-04,2.700000000000000035e-04,1.300000000000000157e-04,4.000000000000000000e+00,6.000000000000000000e+00
1.709100000000000000e+04,8.000000000000000654e-05,1.499999999999999869e-04,8.000000000000000654e-05,6.700000000000000226e-04,1.699999999999999851e-04,3.299999999999999982e-04,2.700000000000000035e-04,1.300000000000000157e-04,4.000000000000000000e+00,6.000000000000000000e+00
1.709200000000000000e+04,8.000000000000000654e-05,1.499999999999999869e-04,8.000000000000000654e-05,6.700000000000000226e-04,1.699999999999999851e-04,3.299999999999999982e-04,2.700000000000000035e-04,1.300000000000000157e-04,4.000000000000000000e+00,6.000000000000000000e+00
1.709300000000000000e+04,8.000000000000000654e-05,1.499999999999999869e-04,8.000000000000000654e-05,6.700000000000000226e-04,1.699999999999999851e-04,3.299999999999999982e-04,2.700000000000000035e-04,1.300000000000000157e-04,4.000000000000000000e+00,6.000000000000000000e+00
1.709400000000000000e+04,8.000000000000000654e-05,1.499999999999999869e-04,8.000000000000000654e-05,6.700000000000000226e-04,1.699999999999999851e-04,3.299999999999999982e-04,2.700000000000000035e-04,1.300000000000000157e-04,4.000000000000000000e+00,6.000000000000000000e+00
1.709500000000000000e+04,8.000000000000000654e-05,1.499999999999999869e-04,8.000000000000000654e-05,6.700000000000000226e-04,1.699999999999999851e-04,3.299999999999999982e-04,2.700000000000000035e-04,1.300000000000000157e-04,4.000000000000000000e+00,6.000000000000000000e+00
1.709600000000000000e+04,8.000000000000000654e-05,1.499999999999999869e-04,8.000000000000000654e-05,6.700000000000000226e-04,1.699999999999999851e-04,3.299999999999999982e-04,2.700000000000000035e-04,1.300000000000000157e-04,4.000000000000000000e+00,6.000000000000000000e+00
1.709700000000000000e+04,8.000000000000000654e-05,1.499999999999999869e-04,8.000000000000000654e-05,6.700000000000000226e-04,1.699999999999999851e-04,3.299999999999999982e-04,2.700000000000000035e-04,1.300000000000000157e-04,4.000000000000000000e+00,6.000000000000000000e+00
1.709800000000000000e+04,8.000000000000000654e-05,1.499999999999999869e-04,8.000000000000000654e-05,6.700000000000000226e-04,1.699999999999999851e-04,3.299999999999999982e-04,2.700000000000000035e-04,1.300000000000000157e-04,4.000000000000000000e+00,6.000000000000000000e+00
1.709900000000000000e+04,-1.300000000000000157e-04,-1.699999999999999851e-04,-1.800000000000000113e-04,2.399999999999999790e-04,4.599999999999999597e-04,-2.299999999999999799e-04,-2.799999999999999755e-04,-1.499999999999999869e-04,4.000000000000000000e+00,6.000000000000000000e+00
1.710000000000000000e+04,-5.999999999999999474e-05,-4.000000000000000327e-05,-1.800000000000000113e-04,-4.299999999999999894e-04,-9.499999999999999981e-04,1.699999999999999851e-04,-1.899999999999999834e-04,-1.000000000000000048e-04,4.000000000000000000e+00,6.000000000000000000e+00
1.710100000000000000e+04,-2.000000000000000164e-05,-1.399999999999999877e-04,-2.100000000000000087e-04,1.499999999999999869e-04,5.500000000000000331e-04,5.000000000000000240e-05,1.000000000000000082e-05,-2.000000000000000164e-05,4.000000000000000000e+00,6.000000000000000000e+00
1.710200000000000000e+04,-2.000000000000000164e-05,-1.399999999999999877e-04,-2.100000000000000087e-04,1.499999999999999869e-04,5.500000000000000331e-04,5.000000000000000240e-05,1.000000000000000082e-05,-2.000000000000000164e-05,4.000000000000000000e+00,6.000000000000000000e+00
1.710300000000000000e+04,-2.000000000000000164e-05,-1.399999999999999877e-04,-2.100000000000000087e-04,1.499999999999999869e-04,5.500000000000000331e-04,5.000000000000000240e-05,1.000000000000000082e-05,-2.000000000000000164e-05,4.000000000000000000e+00,6.000000000000000000e+00
1.710400000000000000e+04,-2.000000000000000164e-05,-1.399999999999999877e-04,-2.100000000000000087e-04,1.499999999999999869e-04,5.500000000000000331e-04,5.000000000000000240e-05,1.000000000000000082e-05,-2.000000000000000164e-05,4.000000000000000000e+00,6.000000000000000000e+00
1.710500000000000000e+04,-2.000000000000000164e-05,-1.399999999999999877e-04,-2.100000000000000087e-04,1.499999999999999869e-04,5.500000000000000331e-04,5.000000000000000240e-05,1.000000000000000082e-05,-2.000000000000000164e-05,4.000000000000000000e+00,6.000000000000000000e+00
1.710600000000000000e+04,-2.000000000000000164e-05,-1.399999999999999877e-04,-2.100000000000000087e-04,1.499999999999999869e-04,5.500000000000000331e-04,5.000000000000000240e-05,1.000000000000000082e-05,-2.000000000000000164e-05,4.000000000000000000e+00,6.000000000000000000e+00
1.710700000000000000e+04,-2.000000000000000164e-05,-1.399999999999999877e-04,-2.100000000000000087e-04,1.499999999999999869e-04,5.500000000000000331e-04,5.000000000000000240e-05,1.000000000000000082e-05,-2.000000000000000164e-05,4.000000000000000000e+00,6.000000000000000000e+00
1.710800000000000000e+04,-2.000000000000000164e-05,-1.399999999999999877e-04,-2.100000000000000087e-04,1.499999999999999869e-04,5.500000000000000331e-04,5.000000000000000240e-05,1.000000000000000082e-05,-2.000000000000000164e-05,4.000000000000000000e+00,6.000000000000000000e+00
1.710900000000000000e+04,-2.000000000000000164e-05,-1.399999999999999877e-04,-2.100000000000000087e-04,1.499999999999999869e-04,5.500000000000000331e-04,5.000000000000000240e-05,1.000000000000000082e-05,-2.000000000000000164e-05,4.000000000000000000e+00,6.000000000000000000e+00
1.711000000000000000e+04,-2.000000000000000164e-05,-1.399999999999999877e-04,-2.100000000000000087e-04,1.499999999999999869e-04,5.500000000000000331e-04,5.000000000000000240e-05,1.000000000000000082e-05,-2.000000000000000164e-05,4.000000000000000000e+00,6.000000000000000000e+00
1.711100000000000000e+04,-2.000000000000000164e-05,-1.399999999999999877e-04,-2.100000000000000087e-04,1.499999999999999869e-04,5.500000000000000331e-04,5.000000000000000240e-05,1.000000000000000082e-05,-2.000000000000000164e-05,4.000000000000000000e+00,6.000000000000000000e+00
1.711200000000000000e+04,-2.000000000000000164e-05,-1.399999999999999877e-04,-2.100000000000000087e-04,1.499999999999999869e-04,5.500000000000000331e-04,5.000000000000000240e-05,1.000000000000000082e-05,-2.000000000000000164e-05,4.000000000000000000e+00,6.000000000000000000e+00
1.711300000000000000e+04,-2.000000000000000164e-05,-1.399999999999999877e-04,-2.100000000000000087e-04,1.499999999999999869e-04,5.500000000000000331e-04,5.000000000000000240e-05,1.000000000000000082e-05,-2.000000000000000164e-05,4.000000000000000000e+00,6.000000000000000000e+00
1.711400000000000000e+04,-2.000000000000000164e-05,-1.399999999999999877e-04,-2.100000000000000087e-04,1.499999999999999869e-04,5.500000000000000331e-04,5.000000000000000240e-05,1.000000000000000082e-05,-2.000000000000000164e-05,4.000000000000000000e+00,6.000000000000000000e+00
1.711500000000000000e+04,-2.000000000000000164e-05,-1.399999999999999877e-04,-2.100000000000000087e-04,1.499999999999999869e-04,5.500000000000000331e-04,5.000000000000000240e-05,1.000000000000000082e-05,-2.000000000000000164e-05,4.000000000000000000e+00,6.000000000000000000e+00
1.711600000000000000e+04,-2.000000000000000164e-05,-1.399999999999999877e-04,-2.100000000000000087e-04,1.499999999999999869e-04,5.500000000000000331e-04,5.000000000000000240e-05,1.000000000000000082e-05,-2.000000000000000164e-05,4.000000000000000000e+00,6.000000000000000000e+00
1.711700000000000000e+04,-2.000000000000000164e-05,-1.399999999999999877e-04,-2.100000000000000087e-04,1.499999999999999869e-04,5.500000000000000331e-04,5.000000000000000240e-05,1.000000000000000082e-05,-2.000000000000000164e-05,4.000000000000000000e+00,6.000000000000000000e+00
1.711800000000000000e+04,-2.000000000000000164e-05,-1.399999999999999877e-04,-2.100000000000000087e-04,1.499999999999999869e-04,5.500000000000000331e-04,5.000000000000000240e-05,1.000000000000000082e-05,-2.000000000000000164e-05,4.000000000000000000e+00,6.000000000000000000e+00
1.711900000000000000e+04,-2.000000000000000164e-05,-1.399999999999999877e-04,-2.100000000000000087e-04,1.499999999999999869e-04,5.500000000000000331e-04,5.000000000000000240e-05,1.000000000000000082e-05,-2.000000000000000164e-05,4.000000000000000000e+00,6.000000000000000000e+00
1.712000000000000000e+04,-2.000000000000000164e-05,-1.399999999999999877e-04,-2.100000000000000087e-04,1.499999999999999869e-04,5.500000000000000331e-04,5.000000000000000240e-05,1.000000000000000082e-05,-2.000000000000000164e-05,4.000000000000000000e+00,6.000000000000000000e+00
1.712100000000000000e+04,-1.000000000000000082e-05,-1.000000000000000082e-05,-2.000000000000000164e-05,-1.260000000000000052e-03,-8.400000000000000348e-04,-4.000000000000000327e-05,-9.000000000000000567e-05,2.000000000000000164e-05,4.000000000000000000e+00,6.000000000000000000e+00
1.712200000000000000e+04,-2.999999999999999737e-05,-4.000000000000000327e-05,-8.000000000000000654e-05,1.600000000000000131e-04,2.000000000000000096e-04,0.000000000000000000e+00,-1.399999999999999877e-04,-5.000000000000000240e-05,4.000000000000000000e+00,6.000000000000000000e+00
1.712300000000000000e+04,-8.000000000000000654e-05,-9.000000000000000567e-05,-1.399999999999999877e-04,-1.280000000000000105e-03,-1.059999999999999961e-03,-1.119999999999999902e-03,-1.499999999999999869e-04,-8.000000000000000654e-05,4.000000000000000000e+00,6.000000000000000000e+00
1.712400000000000000e+04,-8.000000000000000654e-05,-9.000000000000000567e-05,-1.399999999999999877e-04,-1.280000000000000105e-03,-1.059999999999999961e-03,-1.119999999999999902e-03,-1.499999999999999869e-04,-8.000000000000000654e-05,4.000000000000000000e+00,6.000000000000000000e+00
1.712500000000000000e+04,-8.000000000000000654e-05,-9.000000000000000567e-05,-1.399999999999999877e-04,-1.280000000000000105e-03,-1.059999999999999961e-03,-1.119999999999999902e-03,-1.499999999999999869e-04,-8.000000000000000654e-05,4.000000000000000000e+00,6.000000000000000000e+00
1.712600000000000000e+04,-8.000000000000000654e-05,-9.000000000000000567e-05,-1.399999999999999877e-04,-1.280000000000000105e-03,-1.059999999999999961e-03,-1.119999999999999902e-03,-1.499999999999999869e-04,-8.000000000000000654e-05,4.000000000000000000e+00,6.000000000000000000e+00
1.712700000000000000e+04,-8.000000000000000654e-05,-9.000000000000000567e-05,-1.399999999999999877e-04,-1.280000000000000105e-03,-1.059999999999999961e-03,-1.119999999999999902e-03,-1.499999999999999869e-04,-8.000000000000000654e-05,4.000000000000000000e+00,6.000000000000000000e+00
1.712800000000000000e+04,-8.000000000000000654e-05,-9.000000000000000567e-05,-1.399999999999999877e-04,-1.280000000000000105e-03,-1.059999999999999961e-03,-1.119999999999999902e-03,-1.499999999999999869e-04,-8.000000000000000654e-05,4.000000000000000000e+00,6.000000000000000000e+00
1.712900000000000000e+04,-8.000000000000000654e-05,-9.000000000000000567e-05,-1.399999999999999877e-04,-1.280000000000000105e-03,-1.059999999999999961e-03,-1.119999999999999902e-03,-1.499999999999999869e-04,-8.000000000000000654e-05,4.000000000000000000e+00,6.000000000000000000e+00
1.713000000000000000e+04,-8.000000000000000654e-05,-9.000000000000000567e-05,-1.399999999999999877e-04,-1.280000000000000105e-03,-1.059999999999999961e-03,-1.119999999999999902e-03,-1.499999999999999869e-04,-8.000000000000000654e-05,4.000000000000000000e+00,6.000000000000000000e+00
1.713100000000000000e+04,-8.000000000000000654e-05,-9.000000000000000567e-05,-1.399999999999999877e-04,-1.280000000000000105e-03,-1.059999999999999961e-03,-1.119999999999999902e-03,-1.499999999999999869e-04,-8.000000000000000654e-05,4.000000000000000000e+00,6.000000000000000000e+00
1.713200000000000000e+04,-8.000000000000000654e-05,-9.000000000000000567e-05,-1.399999999999999877e-04,-1.280000000000000105e-03,-1.059999999999999961e-03,-1.119999999999999902e-03,-1.499999999999999869e-04,-8.000000000000000654e-05,4.000000000000000000e+00,6.000000000000000000e+00
1.713300000000000000e+04,-8.000000000000000654e-05,-9.000000000000000567e-05,-1.399999999999999877e-04,-1.280000000000000105e-03,-1.059999999999999961e-03,-1.119999999999999902e-03,-1.499999999999999869e-04,-8.000000000000000654e-05,4.000000000000000000e+00,6.000000000000000000e+00
1.713400000000000000e+04,-8.000000000000000654e-05,-9.000000000000000567e-05,-1.399999999999999877e-04,-1.280000000000000105e-03,-1.059999999999999961e-03,-1.119999999999999902e-03,-1.499999999999999869e-04,-8.000000000000000654e-05,4.000000000000000000e+00,6.000000000000000000e+00
1.713500000000000000e+04,-8.000000000000000654e-05,-9.000000000000000567e-05,-1.399999999999999877e-04,-1.280000000000000105e-03,-1.059999999999999961e-03,-1.119999999999999902e-03,-1.499999999999999869e-04,-8.000000000000000654e-05,4.000000000000000000e+00,6.000000000000000000e+00
1.713600000000000000e+04,-9.000000000000000567e-05,-9.000000000000000567e-05,-4.000000000000000327e-05,-2.500000000000000052e-04,-1.080000000000000014e-03,-2.700000000000000035e-04,-1.600000000000000131e-04,-1.100000000000000039e-04,4.000000000000000000e+00,6.000000000000000000e+00
1.713900000000000000e+04,-9.000000000000000567e-05,-9.000000000000000567e-05,-4.000000000000000327e-05,-2.500000000000000052e-04,-1.080000000000000014e-03,-2.700000000000000035e-04,-1.600000000000000131e-04,-1.100000000000000039e-04,4.000000000000000000e+00,6.000000000000000000e+00
1.714000000000000000e+04,-9.000000000000000567e-05,-9.000000000000000567e-05,-4.000000000000000327e-05,-2.500000000000000052e-04,-1.080000000000000014e-03,-2.700000000000000035e-04,-1.600000000000000131e-04,-1.100000000000000039e-04,4.000000000000000000e+00,6.000000000000000000e+00
1.714100000000000000e+04,-9.000000000000000567e-05,-9.000000000000000567e-05,-4.000000000000000327e-05,-2.500000000000000052e-04,-1.080000000000000014e-03,-2.700000000000000035e-04,-1.600000000000000131e-04,-1.100000000000000039e-04,4.000000000000000000e+00,6.000000000000000000e+00
1.714200000000000000e+04,-9.000000000000000567e-05,-9.000000000000000567e-05,-4.000000000000000327e-05,-2.500000000000000052e-04,-1.080000000000000014e-03,-2.700000000000000035e-04,-1.600000000000000131e-04,-1.100000000000000039e-04,4.000000000000000000e+00,6.000000000000000000e+00
1.714300000000000000e+04,-2.000000000000000164e-05,-2.999999999999999737e-05,-9.000000000000000567e-05,-9.499999999999999981e-04,3.899999999999999929e-04,1.899999999999999834e-04,4.000000000000000327e-05,1.000000000000000082e-05,4.000000000000000000e+00,6.000000000000000000e+00
1.714400000000000000e+04,-2.000000000000000164e-05,-2.999999999999999737e-05,-9.000000000000000567e-05,-9.499999999999999981e-04,3.899999999999999929e-04,1.899999999999999834e-04,4.000000000000000327e-05,1.000000000000000082e-05,4.000000000000000000e+00,6.000000000000000000e+00
1.714500000000000000e+04,-2.000000000000000164e-05,-2.999999999999999737e-05,-9.000000000000000567e-05,-9.499999999999999981e-04,3.899999999999999929e-04,1.899999999999999834e-04,4.000000000000000327e-05,1.000000000000000082e-05,4.000000000000000000e+00,6.000000000000000000e+00
1.714600000000000000e+04,-2.000000000000000164e-05,-2.999999999999999737e-05,-9.000000000000000567e-05,-9.499999999999999981e-04,3.899999999999999929e-04,1.899999999999999834e-04,4.000000000000000327e-05,1.000000000000000082e-05,4.000000000000000000e+00,6.000000000000000000e+00
1.714700000000000000e+04,-2.000000000000000164e-05,-2.999999999999999737e-05,-9.000000000000000567e-05,-9.499999999999999981e-04,3.899999999999999929e-04,1.899999999999999834e-04,4.000000000000000327e-05,1.000000000000000082e-05,4.000000000000000000e+00,6.000000000000000000e+00
1.714800000000000000e+04,-2.000000000000000164e-05,-2.999999999999999737e-05,-9.000000000000000567e-05,-9.499999999999999981e-04,3.899999999999999929e-04,1.899999999999999834e-04,4.000000000000000327e-05,1.000000000000000082e-05,4.000000000000000000e+00,6.000000000000000000e+00
1.714900000000000000e+04,-2.000000000000000164e-05,-2.999999999999999737e-05,-9.000000000000000567e-05,-9.499999999999999981e-04,3.899999999999999929e-04,1.899999999999999834e-04,4.000000000000000327e-05,1.000000000000000082e-05,4.000000000000000000e+00,6.000000000000000000e+00
1.715000000000000000e+04,-2.000000000000000164e-05,-2.999999999999999737e-05,-9.000000000000000567e-05,-9.499999999999999981e-04,3.899999999999999929e-04,1.899999999999999834e-04,4.000000000000000327e-05,1.000000000000000082e-05,4.000000000000000000e+00,6.000000000000000000e+00
1.715100000000000000e+04,-2.000000000000000164e-05,-2.999999999999999737e-05,-9.000000000000000567e-05,-9.499999999999999981e-04,3.899999999999999929e-04,1.899999999999999834e-04,4.000000000000000327e-05,1.000000000000000082e-05,4.000000000000000000e+00,6.000000000000000000e+00
1.715200000000000000e+04,-2.000000000000000164e-05,-2.999999999999999737e-05,-9.000000000000000567e-05,-9.499999999999999981e-04,3.899999999999999929e-04,1.899999999999999834e-04,4.000000000000000327e-05,1.000000000000000082e-05,4.000000000000000000e+00,6.000000000000000000e+00
1.715300000000000000e+04,-2.000000000000000164e-05,-2.999999999999999737e-05,-9.000000000000000567e-05,-9.499999999999999981e-04,3.899999999999999929e-04,1.899999999999999834e-04,4.000000000000000327e-05,1.000000000000000082e-05,4.000000000000000000e+00,6.000000000000000000e+00
1.715400000000000000e+04,-2.000000000000000164e-05,-2.999999999999999737e-05,-9.000000000000000567e-05,-9.499999999999999981e-04,3.899999999999999929e-04,1.899999999999999834e-04,4.000000000000000327e-05,1.000000000000000082e-05,4.000000000000000000e+00,6.000000000000000000e+00
1.715500000000000000e+04,-2.000000000000000164e-05,-2.999999999999999737e-05,-9.000000000000000567e-05,-9.499999999999999981e-04,3.899999999999999929e-04,1.899999999999999834e-04,4.000000000000000327e-05,1.000000000000000082e-05,4.000000000000000000e+00,6.000000000000000000e+00
1.715600000000000000e+04,-2.000000000000000164e-05,-2.999999999999999737e-05,-9.000000000000000567e-05,-9.499999999999999981e-04,3.899999999999999929e-04,1.899999999999999834e-04,4.000000000000000327e-05,1.000000000000000082e-05,4.000000000000000000e+00,6.000000000000000000e+00
1.715700000000000000e+04,-2.000000000000000164e-05,-2.999999999999999737e-05,-9.000000000000000567e-05,-9.499999999999999981e-04,3.899999999999999929e-04,1.899999999999999834e-04,4.000000000000000327e-05,1.000000000000000082e-05,4.000000000000000000e+00,6.000000000000000000e+00
1.715800000000000000e+04,-2.000000000000000164e-05,-2.999999999999999737e-05,-9.000000000000000567e-05,-9.499999999999999981e-04,3.899999999999999929e-04,1.899999999999999834e-04,4.000000000000000327e-05,1.000000000000000082e-05,4.000000000000000000e+00,6.000000000000000000e+00
1.715900000000000000e+04,-1.600000000000000131e-04,-2.500000000000000052e-04,-3.499999999999999964e-04,0.000000000000000000e+00,-1.040000000000000126e-03,-2.799999999999999755e-04,-2.100000000000000087e-04,-1.399999999999999877e-04,4.000000000000000000e+00,6.000000000000000000e+00
1.716000000000000000e+04,0.000000000000000000e+00,1.000000000000000048e-04,2.200000000000000078e-04,2.999999999999999737e-05,8.699999999999998967e-04,-1.199999999999999895e-04,-9.000000000000000567e-05,-2.999999999999999737e-05,4.000000000000000000e+00,6.000000000000000000e+00
1.716100000000000000e+04,-1.399999999999999877e-04,-2.399999999999999790e-04,-3.699999999999999947e-04,2.500000000000000052e-04,-9.799999999999999684e-04,-8.699999999999998967e-04,-2.799999999999999755e-04,-1.699999999999999851e-04,4.000000000000000000e+00,6.000000000000000000e+00
1.716200000000000000e+04,-1.399999999999999877e-04,-2.399999999999999790e-04,-3.699999999999999947e-04,2.500000000000000052e-04,-9.799999999999999684e-04,-8.699999999999998967e-04,-2.799999999999999755e-04,-1.699999999999999851e-04,4.000000000000000000e+00,6.000000000000000000e+00
1.716300000000000000e+04,-1.399999999999999877e-04,-2.399999999999999790e-04,-3.699999999999999947e-04,2.500000000000000052e-04,-9.799999999999999684e-04,-8.699999999999998967e-04,-2.799999999999999755e-04,-1.699999999999999851e-04,4.000000000000000000e+00,6.000000000000000000e+00
1.716400000000000000e+04,-1.399999999999999877e-04,-2.399999999999999790e-04,-3.699999999999999947e-04,2.500000000000000052e-04,-9.799999999999999684e-04,-8.699999999999998967e-04,-2.799999999999999755e-04,-1.699999999999999851e-04,4.000000000000000000e+00,6.000000000000000000e+00
1.716500000000000000e+04,-1.399999999999999877e-04,-2.399999999999999790e-04,-3.699999999999999947e-04,2.500000000000000052e-04,-9.799999999999999684e-04,-8.699999999999998967e-04,-2.799999999999999755e-04,-1.699999999999999851e-04,4.000000000000000000e+00,6.000000000000000000e+00
1.716600000000000000e+04,-1.399999999999999877e-04,-2.399999999999999790e-04,-3.699999999999999947e-04,2.500000000000000052e-04,-9.799999999999999684e-04,-8.699999999999998967e-04,-2.799999999999999755e-04,-1.699999999999999851e-04,4.000000000000000000e+00,6.000000000000000000e+00
1.716700000000000000e+04,-1.399999999999999877e-04,-2.399999999999999790e-04,-3.699999999999999947e-04,2.500000000000000052e-04,-9.799999999999999684e-04,-8.699999999999998967e-04,-2.799999999999999755e-04,-1.699999999999999851e-04,4.000000000000000000e+00,6.000000000000000000e+00
1.716800000000000000e+04,-1.399999999999999877e-04,-2.399999999999999790e-04,-3.699999999999999947e-04,2.500000000000000052e-04,-9.799999999999999684e-04,-8.699999999999998967e-04,-2.799999999999999755e-04,-1.699999999999999851e-04,4.000000000000000000e+00,6.000000000000000000e+00
1.716900000000000000e+04,-1.399999999999999877e-04,-2.399999999999999790e-04,-3.699999999999999947e-04,2.500000000000000052e-04,-9.799999999999999684e-04,-8.699999999999998967e-04,-2.799999999999999755e-04,-1.699999999999999851e-04,4.000000000000000000e+00,6.000000000000000000e+00
1.717000000000000000e+04,-1.399999999999999877e-04,-2.399999999999999790e-04,-3.699999999999999947e-04,2.500000000000000052e-04,-9.799999999999999684e-04,-8.699999999999998967e-04,-2.799999999999999755e-04,-1.699999999999999851e-04,4.000000000000000000e+00,6.000000000000000000e+00
1.717100000000000000e+04,-1.399999999999999877e-04,-2.399999999999999790e-04,-3.699999999999999947e-04,2.500000000000000052e-04,-9.799999999999999684e-04,-8.699999999999998967e-04,-2.799999999999999755e-04,-1.699999999999999851e-04,4.000000000000000000e+00,6.000000000000000000e+00
1.717200000000000000e+04,-1.399999999999999877e-04,-2.399999999999999790e-04,-3.699999999999999947e-04,2.500000000000000052e-04,-9.799999999999999684e-04,-8.699999999999998967e-04,-2.799999999999999755e-04,-1.699999999999999851e-04,4.000000000000000000e+00,6.000000000000000000e+00
1.717300000000000000e+04,-1.399999999999999877e-04,-2.399999999999999790e-04,-3.699999999999999947e-04,2.500000000000000052e-04,-9.799999999999999684e-04,-8.699999999999998967e-04,-2.799999999999999755e-04,-1.699999999999999851e-04,4.000000000000000000e+00,6.000000000000000000e+00
1.717400000000000000e+04,-1.399999999999999877e-04,-2.399999999999999790e-04,-3.699999999999999947e-04,2.500000000000000052e-04,-9.799999999999999684e-04,-8.699999999999998967e-04,-2.799999999999999755e-04,-1.699999999999999851e-04,4.000000000000000000e+00,6.000000000000000000e+00
1.717500000000000000e+04,-1.399999999999999877e-04,-2.399999999999999790e-04,-3.699999999999999947e-04,2.500000000000000052e-04,-9.799999999999999684e-04,-8.699999999999998967e-04,-2.799999999999999755e-04,-1.699999999999999851e-04,4.000000000000000000e+00,6.000000000000000000e+00
1.717600000000000000e+04,-1.399999999999999877e-04,-2.399999999999999790e-04,-3.699999999999999947e-04,2.500000000000000052e-04,-9.799999999999999684e-04,-8.699999999999998967e-04,-2.799999999999999755e-04,-1.699999999999999851e-04,4.000000000000000000e+00,6.000000000000000000e+00
1.717700000000000000e+04,-1.399999999999999877e-04,-2.399999999999999790e-04,-3.699999999999999947e-04,2.500000000000000052e-04,-9.799999999999999684e-04,-8.699999999999998967e-04,-2.799999999999999755e-04,-1.699999999999999851e-04,4.000000000000000000e+00,6.000000000000000000e+00
1.717800000000000000e+04,-1.399999999999999877e-04,-2.399999999999999790e-04,-3.699999999999999947e-04,2.500000000000000052e-04,-9.799999999999999684e-04,-8.699999999999998967e-04,-2.799999999999999755e-04,-1.699999999999999851e-04,4.000000000000000000e+00,6.000000000000000000e+00
1.717900000000000000e+04,-1.399999999999999877e-04,-2.399999999999999790e-04,-3.699999999999999947e-04,2.500000000000000052e-04,-9.799999999999999684e-04,-8.699999999999998967e-04,-2.799999999999999755e-04,-1.699999999999999851e-04,4.000000000000000000e+00,6.000000000000000000e+00
1.718000000000000000e+04,-1.399999999999999877e-04,-2.399999999999999790e-04,-3.699999999999999947e-04,2.500000000000000052e-04,-9.799999999999999684e-04,-8.699999999999998967e-04,-2.799999999999999755e-04,-1.699999999999999851e-04,4.000000000000000000e+00,6.000000000000000000e+00
1.718100000000000000e+04,-1.399999999999999877e-04,-2.399999999999999790e-04,-3.699999999999999947e-04,2.500000000000000052e-04,-9.799999999999999684e-04,-8.699999999999998967e-04,-2.799999999999999755e-04,-1.699999999999999851e-04,4.000000000000000000e+00,6.000000000000000000e+00
1.718200000000000000e+04,1.000000000000000082e-05,-2.999999999999999737e-05,-1.000000000000000082e-05,4.899999999999999842e-04,5.999999999999999474e-05,-2.999999999999999737e-05,-1.000000000000000048e-04,-2.999999999999999737e-05,4.000000000000000000e+00,6.000000000000000000e+00
1.718300000000000000e+04,-8.000000000000000654e-05,-1.499999999999999869e-04,-2.900000000000000017e-04,1.399999999999999877e-04,-5.000000000000000104e-04,-4.899999999999999842e-04,-6.999999999999999387e-05,-1.000000000000000048e-04,4.000000000000000000e+00,6.000000000000000000e+00
1.718400000000000000e+04,-8.000000000000000654e-05,-1.499999999999999869e-04,-2.900000000000000017e-04,1.399999999999999877e-04,-5.000000000000000104e-04,-4.899999999999999842e-04,-6.999999999999999387e-05,-1.000000000000000048e-04,4.000000000000000000e+00,6.000000000000000000e+00
1.718500000000000000e+04,-8.000000000000000654e-05,-1.499999999999999869e-04,-2.900000000000000017e-04,1.399999999999999877e-04,-5.000000000000000104e-04,-4.899999999999999842e-04,-6.999999999999999387e-05,-1.000000000000000048e-04,4.000000000000000000e+00,6.000000000000000000e+00
1.718600000000000000e+04,-8.000000000000000654e-05,-1.499999999999999869e-04,-2.900000000000000017e-04,1.399999999999999877e-04,-5.000000000000000104e-04,-4.899999999999999842e-04,-6.999999999999999387e-05,-1.000000000000000048e-04,4.000000000000000000e+00,6.000000000000000000e+00
1.718900000000000000e+04,-8.000000000000000654e-05,-1.499999999999999869e-04,-2.900000000000000017e-04,1.399999999999999877e-04,-5.000000000000000104e-04,-4.899999999999999842e-04,-6.999999999999999387e-05,-1.000000000000000048e-04,4.000000000000000000e+00,6.000000000000000000e+00
1.719000000000000000e+04,-8.000000000000000654e-05,-1.499999999999999869e-04,-2.900000000000000017e-04,1.399999999999999877e-04,-5.000000000000000104e-04,-4.899999999999999842e-04,-6.999999999999999387e-05,-1.000000000000000048e-04,4.000000000000000000e+00,6.000000000000000000e+00
1.719100000000000000e+04,-8.000000000000000654e-05,-1.499999999999999869e-04,-2.900000000000000017e-04,1.399999999999999877e-04,-5.000000000000000104e-04,-4.899999999999999842e-04,-6.999999999999999387e-05,-1.000000000000000048e-04,4.000000000000000000e+00,6.000000000000000000e+00
1.719200000000000000e+04,-8.000000000000000654e-05,-1.499999999999999869e-04,-2.900000000000000017e-04,1.399999999999999877e-04,-5.000000000000000104e-04,-4.899999999999999842e-04,-6.999999999999999387e-05,-1.000000000000000048e-04,4.000000000000000000e+00,6.000000000000000000e+00
1.719300000000000000e+04,-8.000000000000000654e-05,-1.499999999999999869e-04,-2.900000000000000017e-04,1.399999999999999877e-04,-5.000000000000000104e-04,-4.899999999999999842e-04,-6.999999999999999387e-05,-1.000000000000000048e-04,4.000000000000000000e+00,6.000000000000000000e+00
1.719400000000000000e+04,-8.000000000000000654e-05,-1.499999999999999869e-04,-2.900000000000000017e-04,1.399999999999999877e-04,-5.000000000000000104e-04,-4.899999999999999842e-04,-6.999999999999999387e-05,-1.000000000000000048e-04,4.000000000000000000e+00,6.000000000000000000e+00
1.719500000000000000e+04,-8.000000000000000654e-05,-1.499999999999999869e-04,-2.900000000000000017e-04,1.399999999999999877e-04,-5.000000000000000104e-04,-4.899999999999999842e-04,-6.999999999999999387e-05,-1.000000000000000048e-04,4.000000000000000000e+00,6.000000000000000000e+00
1.719600000000000000e+04,2.000000000000000164e-05,9.000000000000000567e-05,2.000000000000000096e-04,-2.500000000000000052e-04,-1.219999999999999947e-03,-1.499999999999999869e-04,-6.999999999999999387e-05,1.000000000000000082e-05,4.000000000000000000e+00,6.000000000000000000e+00
1.719700000000000000e+04,2.000000000000000164e-05,9.000000000000000567e-05,2.000000000000000096e-04,-2.500000000000000052e-04,-1.219999999999999947e-03,-1.499999999999999869e-04,-6.999999999999999387e-05,1.000000000000000082e-05,4.000000000000000000e+00,6.000000000000000000e+00
1.719800000000000000e+04,2.000000000000000164e-05,9.000000000000000567e-05,2.000000000000000096e-04,-2.500000000000000052e-04,-1.219999999999999947e-03,-1.499999999999999869e-04,-6.999999999999999387e-05,1.000000000000000082e-05,4.000000000000000000e+00,6.000000000000000000e+00
1.719900000000000000e+04,2.000000000000000164e-05,9.000000000000000567e-05,2.000000000000000096e-04,-2.500000000000000052e-04,-1.219999999999999947e-03,-1.499999999999999869e-04,-6.999999999999999387e-05,1.000000000000000082e-05,4.000000000000000000e+00,6.000000000000000000e+00
1.720000000000000000e+04,2.000000000000000164e-05,9.000000000000000567e-05,2.000000000000000096e-04,-2.500000000000000052e-04,-1.219999999999999947e-03,-1.499999999999999869e-04,-6.999999999999999387e-05,1.000000000000000082e-05,4.000000000000000000e+00,6.000000000000000000e+00
1.720100000000000000e+04,2.000000000000000164e-05,9.000000000000000567e-05,2.000000000000000096e-04,-2.500000000000000052e-04,-1.219999999999999947e-03,-1.499999999999999869e-04,-6.999999999999999387e-05,1.000000000000000082e-05,4.000000000000000000e+00,6.000000000000000000e+00
1.720200000000000000e+04,2.000000000000000164e-05,9.000000000000000567e-05,2.000000000000000096e-04,-2.500000000000000052e-04,-1.219999999999999947e-03,-1.499999999999999869e-04,-6.999999999999999387e-05,1.000000000000000082e-05,4.000000000000000000e+00,6.000000000000000000e+00
1.720300000000000000e+04,2.000000000000000164e-05,9.000000000000000567e-05,2.000000000000000096e-04,-2.500000000000000052e-04,-1.219999999999999947e-03,-1.499999999999999869e-04,-6.999999999999999387e-05,1.000000000000000082e-05,4.000000000000000000e+00,6.000000000000000000e+00
1.720400000000000000e+04,2.999999999999999737e-05,2.000000000000000164e-05,0.000000000000000000e+00,2.299999999999999799e-04,-1.399999999999999877e-04,6.099999999999999737e-04,9.000000000000000567e-05,5.000000000000000240e-05,4.000000000000000000e+00,6.000000000000000000e+00
1.720500000000000000e+04,2.999999999999999737e-05,2.000000000000000164e-05,0.000000000000000000e+00,2.299999999999999799e-04,-1.399999999999999877e-04,6.099999999999999737e-04,9.000000000000000567e-05,5.000000000000000240e-05,4.000000000000000000e+00,6.000000000000000000e+00
1.720600000000000000e+04,2.999999999999999737e-05,2.000000000000000164e-05,0.000000000000000000e+00,2.299999999999999799e-04,-1.399999999999999877e-04,6.099999999999999737e-04,9.000000000000000567e-05,5.000000000000000240e-05,4.000000000000000000e+00,6.000000000000000000e+00
1.720700000000000000e+04,2.999999999999999737e-05,2.000000000000000164e-05,0.000000000000000000e+00,2.299999999999999799e-04,-1.399999999999999877e-04,6.099999999999999737e-04,9.000000000000000567e-05,5.000000000000000240e-05,4.000000000000000000e+00,6.000000000000000000e+00
1.720800000000000000e+04,2.999999999999999737e-05,2.000000000000000164e-05,0.000000000000000000e+00,2.299999999999999799e-04,-1.399999999999999877e-04,6.099999999999999737e-04,9.000000000000000567e-05,5.000000000000000240e-05,4.000000000000000000e+00,6.000000000000000000e+00
1.720900000000000000e+04,2.999999999999999737e-05,2.000000000000000164e-05,0.000000000000000000e+00,2.299999999999999799e-04,-1.399999999999999877e-04,6.099999999999999737e-04,9.000000000000000567e-05,5.000000000000000240e-05,4.000000000000000000e+00,6.000000000000000000e+00
1.721000000000000000e+04,2.999999999999999737e-05,2.000000000000000164e-05,0.000000000000000000e+00,2.299999999999999799e-04,-1.399999999999999877e-04,6.099999999999999737e-04,9.000000000000000567e-05,5.000000000000000240e-05,4.000000000000000000e+00,6.000000000000000000e+00
1.721100000000000000e+04,2.999999999999999737e-05,2.000000000000000164e-05,0.000000000000000000e+00,2.299999999999999799e-04,-1.399999999999999877e-04,6.099999999999999737e-04,9.000000000000000567e-05,5.000000000000000240e-05,4.000000000000000000e+00,6.000000000000000000e+00
1.721200000000000000e+04,2.999999999999999737e-05,2.000000000000000164e-05,0.000000000000000000e+00,2.299999999999999799e-04,-1.399999999999999877e-04,6.099999999999999737e-04,9.000000000000000567e-05,5.000000000000000240e-05,4.000000000000000000e+00,6.000000000000000000e+00
1.721300000000000000e+04,2.999999999999999737e-05,2.000000000000000164e-05,0.000000000000000000e+00,2.299999999999999799e-04,-1.399999999999999877e-04,6.099999999999999737e-04,9.000000000000000567e-05,5.000000000000000240e-05,4.000000000000000000e+00,6.000000000000000000e+00
1.721400000000000000e+04,2.999999999999999737e-05,2.000000000000000164e-05,0.000000000000000000e+00,2.299999999999999799e-04,-1.399999999999999877e-04,6.099999999999999737e-04,9.000000000000000567e-05,5.000000000000000240e-05,4.000000000000000000e+00,6.000000000000000000e+00
1.721500000000000000e+04,2.999999999999999737e-05,2.000000000000000164e-05,0.000000000000000000e+00,2.299999999999999799e-04,-1.399999999999999877e-04,6.099999999999999737e-04,9.000000000000000567e-05,5.000000000000000240e-05,4.000000000000000000e+00,6.000000000000000000e+00
1.721600000000000000e+04,2.999999999999999737e-05,2.000000000000000164e-05,0.000000000000000000e+00,2.299999999999999799e-04,-1.399999999999999877e-04,6.099999999999999737e-04,9.000000000000000567e-05,5.000000000000000240e-05,4.000000000000000000e+00,6.000000000000000000e+00
1.721700000000000000e+04,2.999999999999999737e-05,2.000000000000000164e-05,0.000000000000000000e+00,2.299999999999999799e-04,-1.399999999999999877e-04,6.099999999999999737e-04,9.000000000000000567e-05,5.000000000000000240e-05,4.000000000000000000e+00,6.000000000000000000e+00
1.721800000000000000e+04,2.999999999999999737e-05,2.000000000000000164e-05,0.000000000000000000e+00,2.299999999999999799e-04,-1.399999999999999877e-04,6.099999999999999737e-04,9.000000000000000567e-05,5.000000000000000240e-05,4.000000000000000000e+00,6.000000000000000000e+00
1.721900000000000000e+04,2.999999999999999737e-05,4.000000000000000327e-05,-4.000000000000000327e-05,3.899999999999999929e-04,3.499999999999999964e-04,-1.800000000000000113e-04,2.100000000000000087e-04,5.000000000000000240e-05,4.000000000000000000e+00,6.000000000000000000e+00
1.722000000000000000e+04,1.000000000000000082e-05,-2.999999999999999737e-05,-1.399999999999999877e-04,3.699999999999999947e-04,9.100000000000000016e-04,2.100000000000000087e-04,-1.100000000000000039e-04,-1.000000000000000082e-05,4.000000000000000000e+00,6.000000000000000000e+00
1.722100000000000000e+04,-1.000000000000000082e-05,-1.000000000000000082e-05,9.000000000000000567e-05,-4.499999999999999877e-04,2.100000000000000087e-04,8.400000000000000348e-04,8.000000000000000654e-05,4.000000000000000327e-05,4.000000000000000000e+00,6.000000000000000000e+00
1.722200000000000000e+04,-1.000000000000000082e-05,-1.000000000000000082e-05,9.000000000000000567e-05,-4.499999999999999877e-04,2.100000000000000087e-04,8.400000000000000348e-04,8.000000000000000654e-05,4.000000000000000327e-05,4.000000000000000000e+00,6.000000000000000000e+00
1.722300000000000000e+04,-1.000000000000000082e-05,-1.000000000000000082e-05,9.000000000000000567e-05,-4.499999999999999877e-04,2.100000000000000087e-04,8.400000000000000348e-04,8.000000000000000654e-05,4.000000000000000327e-05,4.000000000000000000e+00,6.000000000000000000e+00
1.722400000000000000e+04,-1.000000000000000082e-05,-1.000000000000000082e-05,9.000000000000000567e-05,-4.499999999999999877e-04,2.100000000000000087e-04,8.400000000000000348e-04,8.000000000000000654e-05,4.000000000000000327e-05,4.000000000000000000e+00,6.000000000000000000e+00
1.722600000000000000e+04,-1.000000000000000082e-05,-1.000000000000000082e-05,9.000000000000000567e-05,-4.499999999999999877e-04,2.100000000000000087e-04,8.400000000000000348e-04,8.000000000000000654e-05,4.000000000000000327e-05,4.000000000000000000e+00,6.000000000000000000e+00
1.722700000000000000e+04,-1.000000000000000082e-05,-1.000000000000000082e-05,9.000000000000000567e-05,-4.499999999999999877e-04,2.100000000000000087e-04,8.400000000000000348e-04,8.000000000000000654e-05,4.000000000000000327e-05,4.000000000000000000e+00,6.000000000000000000e+00
1.722800000000000000e+04,-1.000000000000000082e-05,-1.000000000000000082e-05,9.000000000000000567e-05,-4.499999999999999877e-04,2.100000000000000087e-04,8.400000000000000348e-04,8.000000000000000654e-05,4.000000000000000327e-05,4.000000000000000000e+00,6.000000000000000000e+00
1.722900000000000000e+04,-1.000000000000000082e-05,-1.000000000000000082e-05,9.000000000000000567e-05,-4.499999999999999877e-04,2.100000000000000087e-04,8.400000000000000348e-04,8.000000000000000654e-05,4.000000000000000327e-05,4.000000000000000000e+00,6.000000000000000000e+00
1.723000000000000000e+04,-1.000000000000000082e-05,-1.000000000000000082e-05,9.000000000000000567e-05,-4.499999999999999877e-04,2.100000000000000087e-04,8.400000000000000348e-04,8.000000000000000654e-05,4.000000000000000327e-05,4.000000000000000000e+00,6.000000000000000000e+00
1.723100000000000000e+04,-1.000000000000000082e-05,-1.000000000000000082e-05,9.000000000000000567e-05,-4.499999999999999877e-04,2.100000000000000087e-04,8.400000000000000348e-04,8.000000000000000654e-05,4.000000000000000327e-05,4.000000000000000000e+00,6.000000000000000000e+00
1.723200000000000000e+04,-1.000000000000000082e-05,-1.000000000000000082e-05,9.000000000000000567e-05,-4.499999999999999877e-04,2.100000000000000087e-04,8.400000000000000348e-04,8.000000000000000654e-05,4.000000000000000327e-05,4.000000000000000000e+00,6.000000000000000000e+00
1.723300000000000000e+04,-1.000000000000000082e-05,-1.000000000000000082e-05,9.000000000000000567e-05,-4.499999999999999877e-04,2.100000000000000087e-04,8.400000000000000348e-04,8.000000000000000654e-05,4.000000000000000327e-05,4.000000000000000000e+00,6.000000000000000000e+00
1.723400000000000000e+04,-1.000000000000000082e-05,-1.000000000000000082e-05,9.000000000000000567e-05,-4.499999999999999877e-04,2.100000000000000087e-04,8.400000000000000348e-04,8.000000000000000654e-05,4.000000000000000327e-05,4.000000000000000000e+00,6.000000000000000000e+00
1.723500000000000000e+04,-1.000000000000000082e-05,-1.000000000000000082e-05,9.000000000000000567e-05,-4.499999999999999877e-04,2.100000000000000087e-04,8.400000000000000348e-04,8.000000000000000654e-05,4.000000000000000327e-05,4.000000000000000000e+00,6.000000000000000000e+00
1.723600000000000000e+04,-1.000000000000000082e-05,-1.000000000000000082e-05,9.000000000000000567e-05,-4.499999999999999877e-04,2.100000000000000087e-04,8.400000000000000348e-04,8.000000000000000654e-05,4.000000000000000327e-05,4.000000000000000000e+00,6.000000000000000000e+00
1.723900000000000000e+04,-1.000000000000000082e-05,-1.000000000000000082e-05,9.000000000000000567e-05,-4.499999999999999877e-04,2.100000000000000087e-04,8.400000000000000348e-04,8.000000000000000654e-05,4.000000000000000327e-05,4.000000000000000000e+00,6.000000000000000000e+00
1.724000000000000000e+04,-1.000000000000000082e-05,-1.000000000000000082e-05,9.000000000000000567e-05,-4.499999999999999877e-04,2.100000000000000087e-04,8.400000000000000348e-04,8.000000000000000654e-05,4.000000000000000327e-05,4.000000000000000000e+00,6.000000000000000000e+00
1.724100000000000000e+04,-1.000000000000000082e-05,-1.000000000000000082e-05,9.000000000000000567e-05,-4.499999999999999877e-04,2.100000000000000087e-04,8.400000000000000348e-04,8.000000000000000654e-05,4.000000000000000327e-05,4.000000000000000000e+00,6.000000000000000000e+00
1.724200000000000000e+04,2.999999999999999737e-05,5.000000000000000240e-05,5.999999999999999474e-05,-5.699999999999999772e-04,-2.999999999999999737e-04,5.699999999999999772e-04,1.699999999999999851e-04,5.999999999999999474e-05,4.000000000000000000e+00,6.000000000000000000e+00
1.724300000000000000e+04,5.999999999999999474e-05,1.000000000000000048e-04,1.399999999999999877e-04,0.000000000000000000e+00,-9.100000000000000016e-04,-4.000000000000000192e-04,-1.399999999999999877e-04,-2.999999999999999737e-05,4.000000000000000000e+00,6.000000000000000000e+00
1.724400000000000000e+04,-1.000000000000000082e-05,1.000000000000000082e-05,0.000000000000000000e+00,-1.100000000000000039e-04,-4.799999999999999580e-04,5.900000000000000296e-04,-9.000000000000000567e-05,-1.000000000000000082e-05,4.000000000000000000e+00,6.000000000000000000e+00
1.724500000000000000e+04,-1.000000000000000082e-05,1.000000000000000082e-05,0.000000000000000000e+00,-1.100000000000000039e-04,-4.799999999999999580e-04,5.900000000000000296e-04,-9.000000000000000567e-05,-1.000000000000000082e-05,4.000000000000000000e+00,6.000000000000000000e+00
1.724600000000000000e+04,-1.000000000000000082e-05,1.000000000000000082e-05,0.000000000000000000e+00,-1.100000000000000039e-04,-4.799999999999999580e-04,5.900000000000000296e-04,-9.000000000000000567e-05,-1.000000000000000082e-05,4.000000000000000000e+00,6.000000000000000000e+00
1.724700000000000000e+04,-1.000000000000000082e-05,1.000000000000000082e-05,0.000000000000000000e+00,-1.100000000000000039e-04,-4.799999999999999580e-04,5.900000000000000296e-04,-9.000000000000000567e-05,-1.000000000000000082e-05,4.000000000000000000e+00,6.000000000000000000e+00
1.724800000000000000e+04,-1.000000000000000082e-05,1.000000000000000082e-05,0.000000000000000000e+00,-1.100000000000000039e-04,-4.799999999999999580e-04,5.900000000000000296e-04,-9.000000000000000567e-05,-1.000000000000000082e-05,4.000000000000000000e+00,6.000000000000000000e+00
1.724900000000000000e+04,-1.000000000000000082e-05,1.000000000000000082e-05,0.000000000000000000e+00,-1.100000000000000039e-04,-4.799999999999999580e-04,5.900000000000000296e-04,-9.000000000000000567e-05,-1.000000000000000082e-05,4.000000000000000000e+00,6.000000000000000000e+00
1.725000000000000000e+04,-1.000000000000000082e-05,1.000000000000000082e-05,0.000000000000000000e+00,-1.100000000000000039e-04,-4.799999999999999580e-04,5.900000000000000296e-04,-9.000000000000000567e-05,-1.000000000000000082e-05,4.000000000000000000e+00,6.000000000000000000e+00
1.725100000000000000e+04,-1.000000000000000082e-05,1.000000000000000082e-05,0.000000000000000000e+00,-1.100000000000000039e-04,-4.799999999999999580e-04,5.900000000000000296e-04,-9.000000000000000567e-05,-1.000000000000000082e-05,4.000000000000000000e+00,6.000000000000000000e+00
1.725200000000000000e+04,-1.000000000000000082e-05,1.000000000000000082e-05,0.000000000000000000e+00,-1.100000000000000039e-04,-4.799999999999999580e-04,5.900000000000000296e-04,-9.000000000000000567e-05,-1.000000000000000082e-05,4.000000000000000000e+00,6.000000000000000000e+00
1.725300000000000000e+04,-1.000000000000000082e-05,1.000000000000000082e-05,0.000000000000000000e+00,-1.100000000000000039e-04,-4.799999999999999580e-04,5.900000000000000296e-04,-9.000000000000000567e-05,-1.000000000000000082e-05,4.000000000000000000e+00,6.000000000000000000e+00
1.725400000000000000e+04,-1.000000000000000082e-05,1.000000000000000082e-05,0.000000000000000000e+00,-1.100000000000000039e-04,-4.799999999999999580e-04,5.900000000000000296e-04,-9.000000000000000567e-05,-1.000000000000000082e-05,4.000000000000000000e+00,6.000000000000000000e+00
1.725500000000000000e+04,1.300000000000000157e-04,2.100000000000000087e-04,3.600000000000000227e-04,6.700000000000000226e-04,-1.600000000000000131e-04,-5.000000000000000240e-05,2.299999999999999799e-04,1.499999999999999869e-04,4.000000000000000000e+00,6.000000000000000000e+00
1.725600000000000000e+04,1.300000000000000157e-04,2.100000000000000087e-04,3.600000000000000227e-04,6.700000000000000226e-04,-1.600000000000000131e-04,-5.000000000000000240e-05,2.299999999999999799e-04,1.499999999999999869e-04,4.000000000000000000e+00,6.000000000000000000e+00
1.725700000000000000e+04,1.300000000000000157e-04,2.100000000000000087e-04,3.600000000000000227e-04,6.700000000000000226e-04,-1.600000000000000131e-04,-5.000000000000000240e-05,2.299999999999999799e-04,1.499999999999999869e-04,4.000000000000000000e+00,6.000000000000000000e+00
1.725800000000000000e+04,1.300000000000000157e-04,2.100000000000000087e-04,3.600000000000000227e-04,6.700000000000000226e-04,-1.600000000000000131e-04,-5.000000000000000240e-05,2.299999999999999799e-04,1.499999999999999869e-04,4.000000000000000000e+00,6.000000000000000000e+00
1.725900000000000000e+04,1.300000000000000157e-04,2.100000000000000087e-04,3.600000000000000227e-04,6.700000000000000226e-04,-1.600000000000000131e-04,-5.000000000000000240e-05,2.299999999999999799e-04,1.499999999999999869e-04,4.000000000000000000e+00,6.000000000000000000e+00
1.726000000000000000e+04,1.300000000000000157e-04,2.100000000000000087e-04,3.600000000000000227e-04,6.700000000000000226e-04,-1.600000000000000131e-04,-5.000000000000000240e-05,2.299999999999999799e-04,1.499999999999999869e-04,4.000000000000000000e+00,6.000000000000000000e+00
1.726100000000000000e+04,1.300000000000000157e-04,2.100000000000000087e-04,3.600000000000000227e-04,6.700000000000000226e-04,-1.600000000000000131e-04,-5.000000000000000240e-05,2.299999999999999799e-04,1.499999999999999869e-04,4.000000000000000000e+00,6.000000000000000000e+00
1.726200000000000000e+04,1.300000000000000157e-04,2.100000000000000087e-04,3.600000000000000227e-04,6.700000000000000226e-04,-1.600000000000000131e-04,-5.000000000000000240e-05,2.299999999999999799e-04,1.499999999999999869e-04,4.000000000000000000e+00,6.000000000000000000e+00
1.726300000000000000e+04,1.300000000000000157e-04,2.100000000000000087e-04,3.600000000000000227e-04,6.700000000000000226e-04,-1.600000000000000131e-04,-5.000000000000000240e-05,2.299999999999999799e-04,1.499999999999999869e-04,4.000000000000000000e+00,6.000000000000000000e+00
1.726400000000000000e+04,1.300000000000000157e-04,2.100000000000000087e-04,3.600000000000000227e-04,6.700000000000000226e-04,-1.600000000000000131e-04,-5.000000000000000240e-05,2.299999999999999799e-04,1.499999999999999869e-04,4.000000000000000000e+00,6.000000000000000000e+00
1.726500000000000000e+04,1.300000000000000157e-04,2.100000000000000087e-04,3.600000000000000227e-04,6.700000000000000226e-04,-1.600000000000000131e-04,-5.000000000000000240e-05,2.299999999999999799e-04,1.499999999999999869e-04,4.000000000000000000e+00,6.000000000000000000e+00
1.726600000000000000e+04,1.300000000000000157e-04,2.100000000000000087e-04,3.600000000000000227e-04,6.700000000000000226e-04,-1.600000000000000131e-04,-5.000000000000000240e-05,2.299999999999999799e-04,1.499999999999999869e-04,4.000000000000000000e+00,6.000000000000000000e+00
1.726700000000000000e+04,1.300000000000000157e-04,2.100000000000000087e-04,3.600000000000000227e-04,6.700000000000000226e-04,-1.600000000000000131e-04,-5.000000000000000240e-05,2.299999999999999799e-04,1.499999999999999869e-04,4.000000000000000000e+00,6.000000000000000000e+00
1.726800000000000000e+04,1.300000000000000157e-04,2.100000000000000087e-04,3.600000000000000227e-04,6.700000000000000226e-04,-1.600000000000000131e-04,-5.000000000000000240e-05,2.299999999999999799e-04,1.499999999999999869e-04,4.000000000000000000e+00,6.000000000000000000e+00
1.726900000000000000e+04,1.300000000000000157e-04,2.100000000000000087e-04,3.600000000000000227e-04,6.700000000000000226e-04,-1.600000000000000131e-04,-5.000000000000000240e-05,2.299999999999999799e-04,1.499999999999999869e-04,4.000000000000000000e+00,6.000000000000000000e+00
1.727000000000000000e+04,1.300000000000000157e-04,2.100000000000000087e-04,3.600000000000000227e-04,6.700000000000000226e-04,-1.600000000000000131e-04,-5.000000000000000240e-05,2.299999999999999799e-04,1.499999999999999869e-04,4.000000000000000000e+00,6.000000000000000000e+00
1.727100000000000000e+04,1.300000000000000157e-04,2.100000000000000087e-04,3.600000000000000227e-04,6.700000000000000226e-04,-1.600000000000000131e-04,-5.000000000000000240e-05,2.299999999999999799e-04,1.499999999999999869e-04,4.000000000000000000e+00,6.000000000000000000e+00
1.727200000000000000e+04,1.300000000000000157e-04,2.100000000000000087e-04,3.600000000000000227e-04,6.700000000000000226e-04,-1.600000000000000131e-04,-5.000000000000000240e-05,2.299999999999999799e-04,1.499999999999999869e-04,4.000000000000000000e+00,6.000000000000000000e+00
1.727300000000000000e+04,1.300000000000000157e-04,2.100000000000000087e-04,3.600000000000000227e-04,6.700000000000000226e-04,-1.600000000000000131e-04,-5.000000000000000240e-05,2.299999999999999799e-04,1.499999999999999869e-04,4.000000000000000000e+00,6.000000000000000000e+00
1.727400000000000000e+04,1.300000000000000157e-04,2.100000000000000087e-04,3.600000000000000227e-04,6.700000000000000226e-04,-1.600000000000000131e-04,-5.000000000000000240e-05,2.299999999999999799e-04,1.499999999999999869e-04,4.000000000000000000e+00,6.000000000000000000e+00
1.727500000000000000e+04,1.300000000000000157e-04,2.100000000000000087e-04,3.600000000000000227e-04,6.700000000000000226e-04,-1.600000000000000131e-04,-5.000000000000000240e-05,2.299999999999999799e-04,1.499999999999999869e-04,4.000000000000000000e+00,6.000000000000000000e+00
1.727600000000000000e+04,1.300000000000000157e-04,2.100000000000000087e-04,3.600000000000000227e-04,6.700000000000000226e-04,-1.600000000000000131e-04,-5.000000000000000240e-05,2.299999999999999799e-04,1.499999999999999869e-04,4.000000000000000000e+00,6.000000000000000000e+00
1.727700000000000000e+04,1.300000000000000157e-04,2.100000000000000087e-04,3.600000000000000227e-04,6.700000000000000226e-04,-1.600000000000000131e-04,-5.000000000000000240e-05,2.299999999999999799e-04,1.499999999999999869e-04,4.000000000000000000e+00,6.000000000000000000e+00
1.727800000000000000e+04,1.300000000000000157e-04,2.100000000000000087e-04,3.600000000000000227e-04,6.700000000000000226e-04,-1.600000000000000131e-04,-5.000000000000000240e-05,2.299999999999999799e-04,1.499999999999999869e-04,4.000000000000000000e+00,6.000000000000000000e+00
1.727900000000000000e+04,-1.000000000000000048e-04,-1.600000000000000131e-04,-2.299999999999999799e-04,0.000000000000000000e+00,-5.400000000000000069e-04,-6.999999999999999387e-05,-1.000000000000000048e-04,-5.999999999999999474e-05,4.000000000000000000e+00,6.000000000000000000e+00
1.728000000000000000e+04,-4.000000000000000327e-05,-6.999999999999999387e-05,-1.000000000000000048e-04,-6.400000000000000524e-04,1.300000000000000157e-04,-5.599999999999999509e-04,-1.899999999999999834e-04,-9.000000000000000567e-05,4.000000000000000000e+00,6.000000000000000000e+00
1.728100000000000000e+04,-4.000000000000000327e-05,-6.999999999999999387e-05,-1.000000000000000048e-04,-6.400000000000000524e-04,1.300000000000000157e-04,-5.599999999999999509e-04,-1.899999999999999834e-04,-9.000000000000000567e-05,4.000000000000000000e+00,6.000000000000000000e+00
1.728200000000000000e+04,-4.000000000000000327e-05,-6.999999999999999387e-05,-1.000000000000000048e-04,-6.400000000000000524e-04,1.300000000000000157e-04,-5.599999999999999509e-04,-1.899999999999999834e-04,-9.000000000000000567e-05,4.000000000000000000e+00,6.000000000000000000e+00
1.728300000000000000e+04,-4.000000000000000327e-05,-6.999999999999999387e-05,-1.000000000000000048e-04,-6.400000000000000524e-04,1.300000000000000157e-04,-5.599999999999999509e-04,-1.899999999999999834e-04,-9.000000000000000567e-05,4.000000000000000000e+00,6.000000000000000000e+00
1.728400000000000000e+04,-4.000000000000000327e-05,-6.999999999999999387e-05,-1.000000000000000048e-04,-6.400000000000000524e-04,1.300000000000000157e-04,-5.599999999999999509e-04,-1.899999999999999834e-04,-9.000000000000000567e-05,4.000000000000000000e+00,6.000000000000000000e+00
1.728500000000000000e+04,-4.000000000000000327e-05,-6.999999999999999387e-05,-1.000000000000000048e-04,-6.400000000000000524e-04,1.300000000000000157e-04,-5.599999999999999509e-04,-1.899999999999999834e-04,-9.000000000000000567e-05,4.000000000000000000e+00,6.000000000000000000e+00
1.728700000000000000e+04,8.000000000000000654e-05,1.399999999999999877e-04,1.499999999999999869e-04,1.229999999999999974e-03,7.799999999999999859e-04,2.700000000000000035e-04,1.699999999999999851e-04,1.199999999999999895e-04,4.000000000000000000e+00,6.000000000000000000e+00
1.729000000000000000e+04,8.000000000000000654e-05,1.399999999999999877e-04,1.499999999999999869e-04,1.229999999999999974e-03,7.799999999999999859e-04,2.700000000000000035e-04,1.699999999999999851e-04,1.199999999999999895e-04,4.000000000000000000e+00,6.000000000000000000e+00
1.729100000000000000e+04,8.000000000000000654e-05,1.399999999999999877e-04,1.499999999999999869e-04,1.229999999999999974e-03,7.799999999999999859e-04,2.700000000000000035e-04,1.699999999999999851e-04,1.199999999999999895e-04,4.000000000000000000e+00,6.000000000000000000e+00
1.729200000000000000e+04,8.000000000000000654e-05,1.399999999999999877e-04,1.499999999999999869e-04,1.229999999999999974e-03,7.799999999999999859e-04,2.700000000000000035e-04,1.699999999999999851e-04,1.199999999999999895e-04,4.000000000000000000e+00,6.000000000000000000e+00
1.729300000000000000e+04,8.000000000000000654e-05,1.399999999999999877e-04,1.499999999999999869e-04,1.229999999999999974e-03,7.799999999999999859e-04,2.700000000000000035e-04,1.699999999999999851e-04,1.199999999999999895e-04,4.000000000000000000e+00,6.000000000000000000e+00
1.729400000000000000e+04,8.000000000000000654e-05,1.399999999999999877e-04,1.499999999999999869e-04,1.229999999999999974e-03,7.799999999999999859e-04,2.700000000000000035e-04,1.699999999999999851e-04,1.199999999999999895e-04,4.000000000000000000e+00,6.000000000000000000e+00
1.729500000000000000e+04,8.000000000000000654e-05,1.399999999999999877e-04,1.499999999999999869e-04,1.229999999999999974e-03,7.799999999999999859e-04,2.700000000000000035e-04,1.699999999999999851e-04,1.199999999999999895e-04,4.000000000000000000e+00,6.000000000000000000e+00
1.729600000000000000e+04,8.000000000000000654e-05,1.399999999999999877e-04,1.499999999999999869e-04,1.229999999999999974e-03,7.799999999999999859e-04,2.700000000000000035e-04,1.699999999999999851e-04,1.199999999999999895e-04,4.000000000000000000e+00,6.000000000000000000e+00
1.729700000000000000e+04,8.000000000000000654e-05,1.399999999999999877e-04,1.499999999999999869e-04,1.229999999999999974e-03,7.799999999999999859e-04,2.700000000000000035e-04,1.699999999999999851e-04,1.199999999999999895e-04,4.000000000000000000e+00,6.000000000000000000e+00
1.729800000000000000e+04,8.000000000000000654e-05,1.399999999999999877e-04,1.499999999999999869e-04,1.229999999999999974e-03,7.799999999999999859e-04,2.700000000000000035e-04,1.699999999999999851e-04,1.199999999999999895e-04,4.000000000000000000e+00,6.000000000000000000e+00
1.729900000000000000e+04,8.000000000000000654e-05,1.399999999999999877e-04,1.499999999999999869e-04,1.229999999999999974e-03,7.799999999999999859e-04,2.700000000000000035e-04,1.699999999999999851e-04,1.199999999999999895e-04,4.000000000000000000e+00,6.000000000000000000e+00
1.730000000000000000e+04,8.000000000000000654e-05,1.399999999999999877e-04,1.499999999999999869e-04,1.229999999999999974e-03,7.799999999999999859e-04,2.700000000000000035e-04,1.699999999999999851e-04,1.199999999999999895e-04,4.000000000000000000e+00,6.000000000000000000e+00
1.730100000000000000e+04,-1.300000000000000157e-04,-1.800000000000000113e-04,-2.799999999999999755e-04,-1.800000000000000113e-04,-4.000000000000000327e-05,-8.800000000000000313e-04,-2.299999999999999799e-04,-1.499999999999999869e-04,4.000000000000000000e+00,6.000000000000000000e+00
1.730200000000000000e+04,6.999999999999999387e-05,1.600000000000000131e-04,3.699999999999999947e-04,8.699999999999998967e-04,9.499999999999999981e-04,9.000000000000000567e-05,2.000000000000000096e-04,9.000000000000000567e-05,4.000000000000000000e+00,6.000000000000000000e+00
1.730300000000000000e+04,-1.100000000000000039e-04,-2.100000000000000087e-04,-4.099999999999999912e-04,-1.010000000000000047e-03,-1.280000000000000105e-03,-5.599999999999999509e-04,-3.499999999999999964e-04,-1.800000000000000113e-04,4.000000000000000000e+00,6.000000000000000000e+00
1.730400000000000000e+04,-1.100000000000000039e-04,-2.100000000000000087e-04,-4.099999999999999912e-04,-1.010000000000000047e-03,-1.280000000000000105e-03,-5.599999999999999509e-04,-3.499999999999999964e-04,-1.800000000000000113e-04,4.000000000000000000e+00,6.000000000000000000e+00
1.730500000000000000e+04,-1.100000000000000039e-04,-2.100000000000000087e-04,-4.099999999999999912e-04,-1.010000000000000047e-03,-1.280000000000000105e-03,-5.599999999999999509e-04,-3.499999999999999964e-04,-1.800000000000000113e-04,4.000000000000000000e+00,6.000000000000000000e+00
1.730600000000000000e+04,-1.100000000000000039e-04,-2.100000000000000087e-04,-4.099999999999999912e-04,-1.010000000000000047e-03,-1.280000000000000105e-03,-5.599999999999999509e-04,-3.499999999999999964e-04,-1.800000000000000113e-04,4.000000000000000000e+00,6.000000000000000000e+00
1.730700000000000000e+04,-1.100000000000000039e-04,-2.100000000000000087e-04,-4.099999999999999912e-04,-1.010000000000000047e-03,-1.280000000000000105e-03,-5.599999999999999509e-04,-3.499999999999999964e-04,-1.800000000000000113e-04,4.000000000000000000e+00,6.000000000000000000e+00
1.730800000000000000e+04,-1.100000000000000039e-04,-2.100000000000000087e-04,-4.099999999999999912e-04,-1.010000000000000047e-03,-1.280000000000000105e-03,-5.599999999999999509e-04,-3.499999999999999964e-04,-1.800000000000000113e-04,4.000000000000000000e+00,6.000000000000000000e+00
1.730900000000000000e+04,-1.100000000000000039e-04,-2.100000000000000087e-04,-4.099999999999999912e-04,-1.010000000000000047e-03,-1.280000000000000105e-03,-5.599999999999999509e-04,-3.499999999999999964e-04,-1.800000000000000113e-04,4.000000000000000000e+00,6.000000000000000000e+00
1.731000000000000000e+04,-1.100000000000000039e-04,-2.100000000000000087e-04,-4.099999999999999912e-04,-1.010000000000000047e-03,-1.280000000000000105e-03,-5.599999999999999509e-04,-3.499999999999999964e-04,-1.800000000000000113e-04,4.000000000000000000e+00,6.000000000000000000e+00
1.731100000000000000e+04,-1.100000000000000039e-04,-2.100000000000000087e-04,-4.099999999999999912e-04,-1.010000000000000047e-03,-1.280000000000000105e-03,-5.599999999999999509e-04,-3.499999999999999964e-04,-1.800000000000000113e-04,4.000000000000000000e+00,6.000000000000000000e+00
1.731200000000000000e+04,-1.100000000000000039e-04,-2.100000000000000087e-04,-4.099999999999999912e-04,-1.010000000000000047e-03,-1.280000000000000105e-03,-5.599999999999999509e-04,-3.499999999999999964e-04,-1.800000000000000113e-04,4.000000000000000000e+00,6.000000000000000000e+00
1.731300000000000000e+04,-1.100000000000000039e-04,-2.100000000000000087e-04,-4.099999999999999912e-04,-1.010000000000000047e-03,-1.280000000000000105e-03,-5.599999999999999509e-04,-3.499999999999999964e-04,-1.800000000000000113e-04,4.000000000000000000e+00,6.000000000000000000e+00
1.731400000000000000e+04,-1.100000000000000039e-04,-2.100000000000000087e-04,-4.099999999999999912e-04,-1.010000000000000047e-03,-1.280000000000000105e-03,-5.599999999999999509e-04,-3.499999999999999964e-04,-1.800000000000000113e-04,4.000000000000000000e+00,6.000000000000000000e+00
1.731500000000000000e+04,2.999999999999999737e-05,6.999999999999999387e-05,2.000000000000000096e-04,5.000000000000000104e-04,5.200000000000000629e-04,5.999999999999999474e-05,5.999999999999999474e-05,5.999999999999999474e-05,4.000000000000000000e+00,6.000000000000000000e+00
1.731600000000000000e+04,2.999999999999999737e-05,6.999999999999999387e-05,2.000000000000000096e-04,5.000000000000000104e-04,5.200000000000000629e-04,5.999999999999999474e-05,5.999999999999999474e-05,5.999999999999999474e-05,4.000000000000000000e+00,6.000000000000000000e+00
1.731700000000000000e+04,2.999999999999999737e-05,6.999999999999999387e-05,2.000000000000000096e-04,5.000000000000000104e-04,5.200000000000000629e-04,5.999999999999999474e-05,5.999999999999999474e-05,5.999999999999999474e-05,4.000000000000000000e+00,6.000000000000000000e+00
1.731800000000000000e+04,2.999999999999999737e-05,6.999999999999999387e-05,2.000000000000000096e-04,5.000000000000000104e-04,5.200000000000000629e-04,5.999999999999999474e-05,5.999999999999999474e-05,5.999999999999999474e-05,4.000000000000000000e+00,6.000000000000000000e+00
1.731900000000000000e+04,2.999999999999999737e-05,6.999999999999999387e-05,2.000000000000000096e-04,5.000000000000000104e-04,5.200000000000000629e-04,5.999999999999999474e-05,5.999999999999999474e-05,5.999999999999999474e-05,4.000000000000000000e+00,6.000000000000000000e+00
1.732000000000000000e+04,2.999999999999999737e-05,6.999999999999999387e-05,2.000000000000000096e-04,5.000000000000000104e-04,5.200000000000000629e-04,5.999999999999999474e-05,5.999999999999999474e-05,5.999999999999999474e-05,4.000000000000000000e+00,6.000000000000000000e+00
1.732100000000000000e+04,2.999999999999999737e-05,6.999999999999999387e-05,2.000000000000000096e-04,5.000000000000000104e-04,5.200000000000000629e-04,5.999999999999999474e-05,5.999999999999999474e-05,5.999999999999999474e-05,4.000000000000000000e+00,6.000000000000000000e+00
1.732200000000000000e+04,2.999999999999999737e-05,6.999999999999999387e-05,2.000000000000000096e-04,5.000000000000000104e-04,5.200000000000000629e-04,5.999999999999999474e-05,5.999999999999999474e-05,5.999999999999999474e-05,4.000000000000000000e+00,6.000000000000000000e+00
1.732300000000000000e+04,2.999999999999999737e-05,6.999999999999999387e-05,2.000000000000000096e-04,5.000000000000000104e-04,5.200000000000000629e-04,5.999999999999999474e-05,5.999999999999999474e-05,5.999999999999999474e-05,4.000000000000000000e+00,6.000000000000000000e+00
1.732400000000000000e+04,5.000000000000000240e-05,1.000000000000000048e-04,1.499999999999999869e-04,1.399999999999999877e-04,6.199999999999999999e-04,-2.500000000000000052e-04,2.000000000000000096e-04,6.999999999999999387e-05,4.000000000000000000e+00,6.000000000000000000e+00
1.732500000000000000e+04,5.000000000000000240e-05,1.000000000000000048e-04,1.499999999999999869e-04,1.399999999999999877e-04,6.199999999999999999e-04,-2.500000000000000052e-04,2.000000000000000096e-04,6.999999999999999387e-05,4.000000000000000000e+00,6.000000000000000000e+00
1.732600000000000000e+04,5.000000000000000240e-05,1.000000000000000048e-04,1.499999999999999869e-04,1.399999999999999877e-04,6.199999999999999999e-04,-2.500000000000000052e-04,2.000000000000000096e-04,6.999999999999999387e-05,4.000000000000000000e+00,6.000000000000000000e+00
1.732700000000000000e+04,5.000000000000000240e-05,1.000000000000000048e-04,1.499999999999999869e-04,1.399999999999999877e-04,6.199999999999999999e-04,-2.500000000000000052e-04,2.000000000000000096e-04,6.999999999999999387e-05,4.000000000000000000e+00,6.000000000000000000e+00
1.732800000000000000e+04,5.000000000000000240e-05,1.000000000000000048e-04,1.499999999999999869e-04,1.399999999999999877e-04,6.199999999999999999e-04,-2.500000000000000052e-04,2.000000000000000096e-04,6.999999999999999387e-05,4.000000000000000000e+00,6.000000000000000000e+00
1.732900000000000000e+04,5.000000000000000240e-05,1.000000000000000048e-04,1.499999999999999869e-04,1.399999999999999877e-04,6.199999999999999999e-04,-2.500000000000000052e-04,2.000000000000000096e-04,6.999999999999999387e-05,4.000000000000000000e+00,6.000000000000000000e+00
1.733000000000000000e+04,5.000000000000000240e-05,1.000000000000000048e-04,1.499999999999999869e-04,1.399999999999999877e-04,6.199999999999999999e-04,-2.500000000000000052e-04,2.000000000000000096e-04,6.999999999999999387e-05,4.000000000000000000e+00,6.000000000000000000e+00
1.733100000000000000e+04,5.000000000000000240e-05,1.000000000000000048e-04,1.499999999999999869e-04,1.399999999999999877e-04,6.199999999999999999e-04,-2.500000000000000052e-04,2.000000000000000096e-04,6.999999999999999387e-05,4.000000000000000000e+00,6.000000000000000000e+00
1.733200000000000000e+04,5.000000000000000240e-05,1.000000000000000048e-04,1.499999999999999869e-04,1.399999999999999877e-04,6.199999999999999999e-04,-2.500000000000000052e-04,2.000000000000000096e-04,6.999999999999999387e-05,4.000000000000000000e+00,6.000000000000000000e+00
1.733300000000000000e+04,5.000000000000000240e-05,1.000000000000000048e-04,1.499999999999999869e-04,1.399999999999999877e-04,6.199999999999999999e-04,-2.500000000000000052e-04,2.000000000000000096e-04,6.999999999999999387e-05,4.000000000000000000e+00,6.000000000000000000e+00
1.733400000000000000e+04,5.000000000000000240e-05,1.000000000000000048e-04,1.499999999999999869e-04,1.399999999999999877e-04,6.199999999999999999e-04,-2.500000000000000052e-04,2.000000000000000096e-04,6.999999999999999387e-05,4.000000000000000000e+00,6.000000000000000000e+00
1.733500000000000000e+04,5.000000000000000240e-05,1.000000000000000048e-04,1.499999999999999869e-04,1.399999999999999877e-04,6.199999999999999999e-04,-2.500000000000000052e-04,2.000000000000000096e-04,6.999999999999999387e-05,4.000000000000000000e+00,6.000000000000000000e+00
1.733600000000000000e+04,5.000000000000000240e-05,1.000000000000000048e-04,1.499999999999999869e-04,1.399999999999999877e-04,6.199999999999999999e-04,-2.500000000000000052e-04,2.000000000000000096e-04,6.999999999999999387e-05,4.000000000000000000e+00,6.000000000000000000e+00
1.733900000000000000e+04,-6.999999999999999387e-05,-5.999999999999999474e-05,-1.199999999999999895e-04,-2.399999999999999790e-04,-3.899999999999999929e-04,-7.299999999999999632e-04,-1.399999999999999877e-04,-9.000000000000000567e-05,4.000000000000000000e+00,6.000000000000000000e+00
1.734000000000000000e+04,1.399999999999999877e-04,2.100000000000000087e-04,3.499999999999999964e-04,2.399999999999999790e-04,5.200000000000000629e-04,8.300000000000001170e-04,1.800000000000000113e-04,1.800000000000000113e-04,4.000000000000000000e+00,6.000000000000000000e+00
1.734100000000000000e+04,-1.300000000000000157e-04,-1.699999999999999851e-04,-2.000000000000000096e-04,-3.799999999999999667e-04,3.200000000000000262e-04,-5.000000000000000104e-04,-2.299999999999999799e-04,-1.499999999999999869e-04,4.000000000000000000e+00,6.000000000000000000e+00
1.734200000000000000e+04,-1.300000000000000157e-04,-1.699999999999999851e-04,-2.000000000000000096e-04,-3.799999999999999667e-04,3.200000000000000262e-04,-5.000000000000000104e-04,-2.299999999999999799e-04,-1.499999999999999869e-04,4.000000000000000000e+00,6.000000000000000000e+00
1.734300000000000000e+04,-1.300000000000000157e-04,-1.699999999999999851e-04,-2.000000000000000096e-04,-3.799999999999999667e-04,3.200000000000000262e-04,-5.000000000000000104e-04,-2.299999999999999799e-04,-1.499999999999999869e-04,4.000000000000000000e+00,6.000000000000000000e+00
1.734400000000000000e+04,-1.300000000000000157e-04,-1.699999999999999851e-04,-2.000000000000000096e-04,-3.799999999999999667e-04,3.200000000000000262e-04,-5.000000000000000104e-04,-2.299999999999999799e-04,-1.499999999999999869e-04,4.000000000000000000e+00,6.000000000000000000e+00
1.734500000000000000e+04,-1.300000000000000157e-04,-1.699999999999999851e-04,-2.000000000000000096e-04,-3.799999999999999667e-04,3.200000000000000262e-04,-5.000000000000000104e-04,-2.299999999999999799e-04,-1.499999999999999869e-04,4.000000000000000000e+00,6.000000000000000000e+00
1.734600000000000000e+04,-1.300000000000000157e-04,-1.699999999999999851e-04,-2.000000000000000096e-04,-3.799999999999999667e-04,3.200000000000000262e-04,-5.000000000000000104e-04,-2.299999999999999799e-04,-1.499999999999999869e-04,4.000000000000000000e+00,6.000000000000000000e+00
1.734700000000000000e+04,-1.300000000000000157e-04,-1.699999999999999851e-04,-2.000000000000000096e-04,-3.799999999999999667e-04,3.200000000000000262e-04,-5.000000000000000104e-04,-2.299999999999999799e-04,-1.499999999999999869e-04,4.000000000000000000e+00,6.000000000000000000e+00
1.734800000000000000e+04,-1.300000000000000157e-04,-1.699999999999999851e-04,-2.000000000000000096e-04,-3.799999999999999667e-04,3.200000000000000262e-04,-5.000000000000000104e-04,-2.299999999999999799e-04,-1.499999999999999869e-04,4.000000000000000000e+00,6.000000000000000000e+00
1.734900000000000000e+04,-1.300000000000000157e-04,-1.699999999999999851e-04,-2.000000000000000096e-04,-3.799999999999999667e-04,3.200000000000000262e-04,-5.000000000000000104e-04,-2.299999999999999799e-04,-1.499999999999999869e-04,4.000000000000000000e+00,6.000000000000000000e+00
1.735000000000000000e+04,-1.300000000000000157e-04,-1.699999999999999851e-04,-2.000000000000000096e-04,-3.799999999999999667e-04,3.200000000000000262e-04,-5.000000000000000104e-04,-2.299999999999999799e-04,-1.499999999999999869e-04,4.000000000000000000e+00,6.000000000000000000e+00
1.735100000000000000e+04,-1.300000000000000157e-04,-1.699999999999999851e-04,-2.000000000000000096e-04,-3.799999999999999667e-04,3.200000000000000262e-04,-5.000000000000000104e-04,-2.299999999999999799e-04,-1.499999999999999869e-04,4.000000000000000000e+00,6.000000000000000000e+00
1.735200000000000000e+04,-1.300000000000000157e-04,-1.699999999999999851e-04,-2.000000000000000096e-04,-3.799999999999999667e-04,3.200000000000000262e-04,-5.000000000000000104e-04,-2.299999999999999799e-04,-1.499999999999999869e-04,4.000000000000000000e+00,6.000000000000000000e+00
1.735300000000000000e+04,-1.300000000000000157e-04,-1.699999999999999851e-04,-2.000000000000000096e-04,-3.799999999999999667e-04,3.200000000000000262e-04,-5.000000000000000104e-04,-2.299999999999999799e-04,-1.499999999999999869e-04,4.000000000000000000e+00,6.000000000000000000e+00
1.735400000000000000e+04,-1.300000000000000157e-04,-1.699999999999999851e-04,-2.000000000000000096e-04,-3.799999999999999667e-04,3.200000000000000262e-04,-5.000000000000000104e-04,-2.299999999999999799e-04,-1.499999999999999869e-04,4.000000000000000000e+00,6.000000000000000000e+00
1.735500000000000000e+04,-1.300000000000000157e-04,-1.699999999999999851e-04,-2.000000000000000096e-04,-3.799999999999999667e-04,3.200000000000000262e-04,-5.000000000000000104e-04,-2.299999999999999799e-04,-1.499999999999999869e-04,4.000000000000000000e+00,6.000000000000000000e+00
1.735600000000000000e+04,-1.300000000000000157e-04,-1.699999999999999851e-04,-2.000000000000000096e-04,-3.799999999999999667e-04,3.200000000000000262e-04,-5.000000000000000104e-04,-2.299999999999999799e-04,-1.499999999999999869e-04,4.000000000000000000e+00,6.000000000000000000e+00
1.735700000000000000e+04,-1.300000000000000157e-04,-1.699999999999999851e-04,-2.000000000000000096e-04,-3.799999999999999667e-04,3.200000000000000262e-04,-5.000000000000000104e-04,-2.299999999999999799e-04,-1.499999999999999869e-04,4.000000000000000000e+00,6.000000000000000000e+00
1.735800000000000000e+04,-1.300000000000000157e-04,-1.699999999999999851e-04,-2.000000000000000096e-04,-3.799999999999999667e-04,3.200000000000000262e-04,-5.000000000000000104e-04,-2.299999999999999799e-04,-1.499999999999999869e-04,4.000000000000000000e+00,6.000000000000000000e+00
1.735900000000000000e+04,-1.300000000000000157e-04,-1.699999999999999851e-04,-2.000000000000000096e-04,-3.799999999999999667e-04,3.200000000000000262e-04,-5.000000000000000104e-04,-2.299999999999999799e-04,-1.499999999999999869e-04,4.000000000000000000e+00,6.000000000000000000e+00
1.736000000000000000e+04,-1.300000000000000157e-04,-1.699999999999999851e-04,-2.000000000000000096e-04,-3.799999999999999667e-04,3.200000000000000262e-04,-5.000000000000000104e-04,-2.299999999999999799e-04,-1.499999999999999869e-04,4.000000000000000000e+00,6.000000000000000000e+00
1.736100000000000000e+04,1.000000000000000082e-05,1.000000000000000082e-05,0.000000000000000000e+00,-3.600000000000000227e-04,-6.999999999999999929e-04,-5.999999999999999474e-04,-1.100000000000000039e-04,-1.000000000000000082e-05,4.000000000000000000e+00,6.000000000000000000e+00
1.736200000000000000e+04,1.000000000000000082e-05,1.000000000000000082e-05,0.000000000000000000e+00,-3.600000000000000227e-04,-6.999999999999999929e-04,-5.999999999999999474e-04,-1.100000000000000039e-04,-1.000000000000000082e-05,4.000000000000000000e+00,6.000000000000000000e+00
1.736300000000000000e+04,-5.000000000000000240e-05,-4.000000000000000327e-05,-1.000000000000000082e-05,-3.499999999999999964e-04,-9.300000000000000541e-04,-5.599999999999999509e-04,-2.000000000000000164e-05,0.000000000000000000e+00,4.000000000000000000e+00,6.000000000000000000e+00
1.736400000000000000e+04,-5.000000000000000240e-05,-4.000000000000000327e-05,-1.000000000000000082e-05,-3.499999999999999964e-04,-9.300000000000000541e-04,-5.599999999999999509e-04,-2.000000000000000164e-05,0.000000000000000000e+00,4.000000000000000000e+00,6.000000000000000000e+00
1.736500000000000000e+04,-5.000000000000000240e-05,-4.000000000000000327e-05,-1.000000000000000082e-05,-3.499999999999999964e-04,-9.300000000000000541e-04,-5.599999999999999509e-04,-2.000000000000000164e-05,0.000000000000000000e+00,4.000000000000000000e+00,6.000000000000000000e+00
1.736600000000000000e+04,-5.000000000000000240e-05,-4.000000000000000327e-05,-1.000000000000000082e-05,-3.499999999999999964e-04,-9.300000000000000541e-04,-5.599999999999999509e-04,-2.000000000000000164e-05,0.000000000000000000e+00,4.000000000000000000e+00,6.000000000000000000e+00
1.736700000000000000e+04,-5.000000000000000240e-05,-4.000000000000000327e-05,-1.000000000000000082e-05,-3.499999999999999964e-04,-9.300000000000000541e-04,-5.599999999999999509e-04,-2.000000000000000164e-05,0.000000000000000000e+00,4.000000000000000000e+00,6.000000000000000000e+00
1.736800000000000000e+04,-5.000000000000000240e-05,-4.000000000000000327e-05,-1.000000000000000082e-05,-3.499999999999999964e-04,-9.300000000000000541e-04,-5.599999999999999509e-04,-2.000000000000000164e-05,0.000000000000000000e+00,4.000000000000000000e+00,6.000000000000000000e+00
1.736900000000000000e+04,-5.000000000000000240e-05,-4.000000000000000327e-05,-1.000000000000000082e-05,-3.499999999999999964e-04,-9.300000000000000541e-04,-5.599999999999999509e-04,-2.000000000000000164e-05,0.000000000000000000e+00,4.000000000000000000e+00,6.000000000000000000e+00
1.737000000000000000e+04,-5.000000000000000240e-05,-4.000000000000000327e-05,-1.000000000000000082e-05,-3.499999999999999964e-04,-9.300000000000000541e-04,-5.599999999999999509e-04,-2.000000000000000164e-05,0.000000000000000000e+00,4.000000000000000000e+00,6.000000000000000000e+00
1.737100000000000000e+04,-5.000000000000000240e-05,-4.000000000000000327e-05,-1.000000000000000082e-05,-3.499999999999999964e-04,-9.300000000000000541e-04,-5.599999999999999509e-04,-2.000000000000000164e-05,0.000000000000000000e+00,4.000000000000000000e+00,6.000000000000000000e+00
1.737200000000000000e+04,-5.000000000000000240e-05,-4.000000000000000327e-05,-1.000000000000000082e-05,-3.499999999999999964e-04,-9.300000000000000541e-04,-5.599999999999999509e-04,-2.000000000000000164e-05,0.000000000000000000e+00,4.000000000000000000e+00,6.000000000000000000e+00
1.737300000000000000e+04,-5.000000000000000240e-05,-4.000000000000000327e-05,-1.000000000000000082e-05,-3.499999999999999964e-04,-9.300000000000000541e-04,-5.599999999999999509e-04,-2.000000000000000164e-05,0.000000000000000000e+00,4.000000000000000000e+00,6.000000000000000000e+00
1.737400000000000000e+04,-5.000000000000000240e-05,-4.000000000000000327e-05,-1.000000000000000082e-05,-3.499999999999999964e-04,-9.300000000000000541e-04,-5.599999999999999509e-04,-2.000000000000000164e-05,0.000000000000000000e+00,4.000000000000000000e+00,6.000000000000000000e+00
1.737500000000000000e+04,2.999999999999999737e-05,2.000000000000000164e-05,-1.000000000000000048e-04,-5.800000000000000034e-04,1.699999999999999851e-04,3.099999999999999999e-04,-1.399999999999999877e-04,-4.000000000000000327e-05,4.000000000000000000e+00,6.000000000000000000e+00
