6.056000000000000000e+03,-1.000000000000000082e-05,-1.000000000000000082e-05,-6.999999999999999387e-05,-2.299999999999999799e-04,0.000000000000000000e+00,5.000000000000000240e-05,9.000000000000000567e-05,-4.000000000000000327e-05,2.000000000000000000e+00,3.000000000000000000e+00
6.057000000000000000e+03,-1.000000000000000082e-05,-1.000000000000000082e-05,-6.999999999999999387e-05,-2.299999999999999799e-04,0.000000000000000000e+00,5.000000000000000240e-05,9.000000000000000567e-05,-4.000000000000000327e-05,2.000000000000000000e+00,3.000000000000000000e+00
6.058000000000000000e+03,-1.000000000000000082e-05,-1.000000000000000082e-05,-6.999999999999999387e-05,-2.299999999999999799e-04,0.000000000000000000e+00,5.000000000000000240e-05,9.000000000000000567e-05,-4.000000000000000327e-05,2.000000000000000000e+00,3.000000000000000000e+00
6.059000000000000000e+03,-1.000000000000000082e-05,-1.000000000000000082e-05,-6.999999999999999387e-05,-2.299999999999999799e-04,0.000000000000000000e+00,5.000000000000000240e-05,9.000000000000000567e-05,-4.000000000000000327e-05,2.000000000000000000e+00,3.000000000000000000e+00
6.060000000000000000e+03,-1.000000000000000082e-05,-1.000000000000000082e-05,-6.999999999999999387e-05,-2.299999999999999799e-04,0.000000000000000000e+00,5.000000000000000240e-05,9.000000000000000567e-05,-4.000000000000000327e-05,2.000000000000000000e+00,3.000000000000000000e+00
6.061000000000000000e+03,-1.000000000000000082e-05,-1.000000000000000082e-05,-6.999999999999999387e-05,-2.299999999999999799e-04,0.000000000000000000e+00,5.000000000000000240e-05,9.000000000000000567e-05,-4.000000000000000327e-05,2.000000000000000000e+00,3.000000000000000000e+00
6.062000000000000000e+03,-1.000000000000000082e-05,-1.000000000000000082e-05,-6.999999999999999387e-05,-2.299999999999999799e-04,0.000000000000000000e+00,5.000000000000000240e-05,9.000000000000000567e-05,-4.000000000000000327e-05,2.000000000000000000e+00,3.000000000000000000e+00
6.063000000000000000e+03,-1.000000000000000082e-05,-1.000000000000000082e-05,-6.999999999999999387e-05,-2.299999999999999799e-04,0.000000000000000000e+00,5.000000000000000240e-05,9.000000000000000567e-05,-4.000000000000000327e-05,2.000000000000000000e+00,3.000000000000000000e+00
6.064000000000000000e+03,-1.000000000000000082e-05,-1.000000000000000082e-05,-6.999999999999999387e-05,-2.299999999999999799e-04,0.000000000000000000e+00,5.000000000000000240e-05,9.000000000000000567e-05,-4.000000000000000327e-05,2.000000000000000000e+00,3.000000000000000000e+00
6.065000000000000000e+03,-1.000000000000000082e-05,-1.000000000000000082e-05,-6.999999999999999387e-05,-2.299999999999999799e-04,0.000000000000000000e+00,5.000000000000000240e-05,9.000000000000000567e-05,-4.000000000000000327e-05,2.000000000000000000e+00,3.000000000000000000e+00
6.066000000000000000e+03,-1.000000000000000082e-05,-1.000000000000000082e-05,-6.999999999999999387e-05,-2.299999999999999799e-04,0.000000000000000000e+00,5.000000000000000240e-05,9.000000000000000567e-05,-4.000000000000000327e-05,2.000000000000000000e+00,3.000000000000000000e+00
6.067000000000000000e+03,-1.000000000000000082e-05,-1.000000000000000082e-05,-6.999999999999999387e-05,-2.299999999999999799e-04,0.000000000000000000e+00,5.000000000000000240e-05,9.000000000000000567e-05,-4.000000000000000327e-05,2.000000000000000000e+00,3.000000000000000000e+00
6.068000000000000000e+03,-1.000000000000000082e-05,-1.000000000000000082e-05,-6.999999999999999387e-05,-2.299999999999999799e-04,0.000000000000000000e+00,5.000000000000000240e-05,9.000000000000000567e-05,-4.000000000000000327e-05,2.000000000000000000e+00,3.000000000000000000e+00
6.069000000000000000e+03,-1.000000000000000082e-05,-1.000000000000000082e-05,-6.999999999999999387e-05,-2.299999999999999799e-04,0.000000000000000000e+00,5.000000000000000240e-05,9.000000000000000567e-05,-4.000000000000000327e-05,2.000000000000000000e+00,3.000000000000000000e+00
6.070000000000000000e+03,-2.999999999999999737e-05,1.300000000000000157e-04,1.100000000000000039e-04,3.699999999999999947e-04,0.000000000000000000e+00,-1.000000000000000082e-05,1.000000000000000048e-04,-1.000000000000000082e-05,2.000000000000000000e+00,3.000000000000000000e+00
6.071000000000000000e+03,-2.999999999999999737e-05,1.300000000000000157e-04,1.100000000000000039e-04,3.699999999999999947e-04,0.000000000000000000e+00,-1.000000000000000082e-05,1.000000000000000048e-04,-1.000000000000000082e-05,2.000000000000000000e+00,3.000000000000000000e+00
6.072000000000000000e+03,2.000000000000000164e-05,-5.000000000000000240e-05,5.999999999999999474e-05,2.399999999999999790e-04,6.999999999999999387e-05,6.999999999999999387e-05,5.099999999999999282e-04,6.999999999999999387e-05,2.000000000000000000e+00,3.000000000000000000e+00
6.073000000000000000e+03,2.000000000000000164e-05,-5.000000000000000240e-05,5.999999999999999474e-05,2.399999999999999790e-04,6.999999999999999387e-05,6.999999999999999387e-05,5.099999999999999282e-04,6.999999999999999387e-05,2.000000000000000000e+00,3.000000000000000000e+00
6.074000000000000000e+03,2.000000000000000164e-05,-5.000000000000000240e-05,5.999999999999999474e-05,2.399999999999999790e-04,6.999999999999999387e-05,6.999999999999999387e-05,5.099999999999999282e-04,6.999999999999999387e-05,2.000000000000000000e+00,3.000000000000000000e+00
6.075000000000000000e+03,2.000000000000000164e-05,-5.000000000000000240e-05,5.999999999999999474e-05,2.399999999999999790e-04,6.999999999999999387e-05,6.999999999999999387e-05,5.099999999999999282e-04,6.999999999999999387e-05,2.000000000000000000e+00,3.000000000000000000e+00
6.076000000000000000e+03,2.000000000000000164e-05,-5.000000000000000240e-05,5.999999999999999474e-05,2.399999999999999790e-04,6.999999999999999387e-05,6.999999999999999387e-05,5.099999999999999282e-04,6.999999999999999387e-05,2.000000000000000000e+00,3.000000000000000000e+00
6.077000000000000000e+03,2.000000000000000164e-05,-5.000000000000000240e-05,5.999999999999999474e-05,2.399999999999999790e-04,6.999999999999999387e-05,6.999999999999999387e-05,5.099999999999999282e-04,6.999999999999999387e-05,2.000000000000000000e+00,3.000000000000000000e+00
6.078000000000000000e+03,2.000000000000000164e-05,-5.000000000000000240e-05,5.999999999999999474e-05,2.399999999999999790e-04,6.999999999999999387e-05,6.999999999999999387e-05,5.099999999999999282e-04,6.999999999999999387e-05,2.000000000000000000e+00,3.000000000000000000e+00
6.079000000000000000e+03,2.000000000000000164e-05,-5.000000000000000240e-05,5.999999999999999474e-05,2.399999999999999790e-04,6.999999999999999387e-05,6.999999999999999387e-05,5.099999999999999282e-04,6.999999999999999387e-05,2.000000000000000000e+00,3.000000000000000000e+00
6.080000000000000000e+03,2.000000000000000164e-05,-5.000000000000000240e-05,5.999999999999999474e-05,2.399999999999999790e-04,6.999999999999999387e-05,6.999999999999999387e-05,5.099999999999999282e-04,6.999999999999999387e-05,2.000000000000000000e+00,3.000000000000000000e+00
6.081000000000000000e+03,2.000000000000000164e-05,-5.000000000000000240e-05,5.999999999999999474e-05,2.399999999999999790e-04,6.999999999999999387e-05,6.999999999999999387e-05,5.099999999999999282e-04,6.999999999999999387e-05,2.000000000000000000e+00,3.000000000000000000e+00
6.082000000000000000e+03,2.000000000000000164e-05,-5.000000000000000240e-05,5.999999999999999474e-05,2.399999999999999790e-04,6.999999999999999387e-05,6.999999999999999387e-05,5.099999999999999282e-04,6.999999999999999387e-05,2.000000000000000000e+00,3.000000000000000000e+00
6.083000000000000000e+03,2.000000000000000164e-05,-5.000000000000000240e-05,5.999999999999999474e-05,2.399999999999999790e-04,6.999999999999999387e-05,6.999999999999999387e-05,5.099999999999999282e-04,6.999999999999999387e-05,2.000000000000000000e+00,3.000000000000000000e+00
6.084000000000000000e+03,2.000000000000000164e-05,-5.000000000000000240e-05,5.999999999999999474e-05,2.399999999999999790e-04,6.999999999999999387e-05,6.999999999999999387e-05,5.099999999999999282e-04,6.999999999999999387e-05,2.000000000000000000e+00,3.000000000000000000e+00
6.085000000000000000e+03,2.000000000000000164e-05,-5.000000000000000240e-05,5.999999999999999474e-05,2.399999999999999790e-04,6.999999999999999387e-05,6.999999999999999387e-05,5.099999999999999282e-04,6.999999999999999387e-05,2.000000000000000000e+00,3.000000000000000000e+00
6.086000000000000000e+03,2.000000000000000164e-05,-5.000000000000000240e-05,5.999999999999999474e-05,2.399999999999999790e-04,6.999999999999999387e-05,6.999999999999999387e-05,5.099999999999999282e-04,6.999999999999999387e-05,2.000000000000000000e+00,3.000000000000000000e+00
6.088000000000000000e+03,2.000000000000000164e-05,-5.000000000000000240e-05,5.999999999999999474e-05,2.399999999999999790e-04,6.999999999999999387e-05,6.999999999999999387e-05,5.099999999999999282e-04,6.999999999999999387e-05,2.000000000000000000e+00,3.000000000000000000e+00
6.089000000000000000e+03,2.000000000000000164e-05,-5.000000000000000240e-05,5.999999999999999474e-05,2.399999999999999790e-04,6.999999999999999387e-05,6.999999999999999387e-05,5.099999999999999282e-04,6.999999999999999387e-05,2.000000000000000000e+00,3.000000000000000000e+00
6.090000000000000000e+03,2.000000000000000164e-05,-5.000000000000000240e-05,5.999999999999999474e-05,2.399999999999999790e-04,6.999999999999999387e-05,6.999999999999999387e-05,5.099999999999999282e-04,6.999999999999999387e-05,2.000000000000000000e+00,3.000000000000000000e+00
6.091000000000000000e+03,2.000000000000000164e-05,-5.000000000000000240e-05,5.999999999999999474e-05,2.399999999999999790e-04,6.999999999999999387e-05,6.999999999999999387e-05,5.099999999999999282e-04,6.999999999999999387e-05,2.000000000000000000e+00,3.000000000000000000e+00
6.092000000000000000e+03,4.000000000000000327e-05,1.699999999999999851e-04,0.000000000000000000e+00,-2.100000000000000087e-04,-2.000000000000000164e-05,5.999999999999999474e-05,1.399999999999999877e-04,2.000000000000000164e-05,2.000000000000000000e+00,3.000000000000000000e+00
6.093000000000000000e+03,4.000000000000000327e-05,1.699999999999999851e-04,0.000000000000000000e+00,-2.100000000000000087e-04,-2.000000000000000164e-05,5.999999999999999474e-05,1.399999999999999877e-04,2.000000000000000164e-05,2.000000000000000000e+00,3.000000000000000000e+00
6.094000000000000000e+03,0.000000000000000000e+00,-2.000000000000000164e-05,5.999999999999999474e-05,5.999999999999999474e-05,-4.000000000000000327e-05,0.000000000000000000e+00,-1.800000000000000113e-04,1.000000000000000082e-05,2.000000000000000000e+00,3.000000000000000000e+00
6.095000000000000000e+03,0.000000000000000000e+00,-2.000000000000000164e-05,5.999999999999999474e-05,5.999999999999999474e-05,-4.000000000000000327e-05,0.000000000000000000e+00,-1.800000000000000113e-04,1.000000000000000082e-05,2.000000000000000000e+00,3.000000000000000000e+00
6.096000000000000000e+03,0.000000000000000000e+00,-2.000000000000000164e-05,5.999999999999999474e-05,5.999999999999999474e-05,-4.000000000000000327e-05,0.000000000000000000e+00,-1.800000000000000113e-04,1.000000000000000082e-05,2.000000000000000000e+00,3.000000000000000000e+00
6.097000000000000000e+03,0.000000000000000000e+00,-2.000000000000000164e-05,5.999999999999999474e-05,5.999999999999999474e-05,-4.000000000000000327e-05,0.000000000000000000e+00,-1.800000000000000113e-04,1.000000000000000082e-05,2.000000000000000000e+00,3.000000000000000000e+00
6.098000000000000000e+03,0.000000000000000000e+00,-2.000000000000000164e-05,5.999999999999999474e-05,5.999999999999999474e-05,-4.000000000000000327e-05,0.000000000000000000e+00,-1.800000000000000113e-04,1.000000000000000082e-05,2.000000000000000000e+00,3.000000000000000000e+00
6.099000000000000000e+03,0.000000000000000000e+00,-2.000000000000000164e-05,5.999999999999999474e-05,5.999999999999999474e-05,-4.000000000000000327e-05,0.000000000000000000e+00,-1.800000000000000113e-04,1.000000000000000082e-05,2.000000000000000000e+00,3.000000000000000000e+00
6.100000000000000000e+03,0.000000000000000000e+00,-2.000000000000000164e-05,5.999999999999999474e-05,5.999999999999999474e-05,-4.000000000000000327e-05,0.000000000000000000e+00,-1.800000000000000113e-04,1.000000000000000082e-05,2.000000000000000000e+00,3.000000000000000000e+00
6.101000000000000000e+03,0.000000000000000000e+00,-2.000000000000000164e-05,5.999999999999999474e-05,5.999999999999999474e-05,-4.000000000000000327e-05,0.000000000000000000e+00,-1.800000000000000113e-04,1.000000000000000082e-05,2.000000000000000000e+00,3.000000000000000000e+00
6.102000000000000000e+03,0.000000000000000000e+00,-2.000000000000000164e-05,5.999999999999999474e-05,5.999999999999999474e-05,-4.000000000000000327e-05,0.000000000000000000e+00,-1.800000000000000113e-04,1.000000000000000082e-05,2.000000000000000000e+00,3.000000000000000000e+00
6.103000000000000000e+03,0.000000000000000000e+00,-2.000000000000000164e-05,5.999999999999999474e-05,5.999999999999999474e-05,-4.000000000000000327e-05,0.000000000000000000e+00,-1.800000000000000113e-04,1.000000000000000082e-05,2.000000000000000000e+00,3.000000000000000000e+00
6.104000000000000000e+03,0.000000000000000000e+00,-2.000000000000000164e-05,5.999999999999999474e-05,5.999999999999999474e-05,-4.000000000000000327e-05,0.000000000000000000e+00,-1.800000000000000113e-04,1.000000000000000082e-05,2.000000000000000000e+00,3.000000000000000000e+00
6.105000000000000000e+03,0.000000000000000000e+00,-2.000000000000000164e-05,5.999999999999999474e-05,5.999999999999999474e-05,-4.000000000000000327e-05,0.000000000000000000e+00,-1.800000000000000113e-04,1.000000000000000082e-05,2.000000000000000000e+00,3.000000000000000000e+00
6.106000000000000000e+03,1.000000000000000082e-05,2.000000000000000164e-05,2.000000000000000164e-05,1.000000000000000048e-04,1.000000000000000048e-04,2.000000000000000164e-05,-2.500000000000000052e-04,-5.000000000000000240e-05,2.000000000000000000e+00,3.000000000000000000e+00
6.107000000000000000e+03,1.000000000000000082e-05,2.000000000000000164e-05,2.000000000000000164e-05,1.000000000000000048e-04,1.000000000000000048e-04,2.000000000000000164e-05,-2.500000000000000052e-04,-5.000000000000000240e-05,2.000000000000000000e+00,3.000000000000000000e+00
6.108000000000000000e+03,1.000000000000000082e-05,2.000000000000000164e-05,2.000000000000000164e-05,1.000000000000000048e-04,1.000000000000000048e-04,2.000000000000000164e-05,-2.500000000000000052e-04,-5.000000000000000240e-05,2.000000000000000000e+00,3.000000000000000000e+00
6.109000000000000000e+03,1.000000000000000082e-05,2.000000000000000164e-05,2.000000000000000164e-05,1.000000000000000048e-04,1.000000000000000048e-04,2.000000000000000164e-05,-2.500000000000000052e-04,-5.000000000000000240e-05,2.000000000000000000e+00,3.000000000000000000e+00
6.110000000000000000e+03,1.000000000000000082e-05,2.000000000000000164e-05,2.000000000000000164e-05,1.000000000000000048e-04,1.000000000000000048e-04,2.000000000000000164e-05,-2.500000000000000052e-04,-5.000000000000000240e-05,2.000000000000000000e+00,3.000000000000000000e+00
6.111000000000000000e+03,1.000000000000000082e-05,2.000000000000000164e-05,2.000000000000000164e-05,1.000000000000000048e-04,1.000000000000000048e-04,2.000000000000000164e-05,-2.500000000000000052e-04,-5.000000000000000240e-05,2.000000000000000000e+00,3.000000000000000000e+00
6.112000000000000000e+03,1.000000000000000082e-05,2.000000000000000164e-05,2.000000000000000164e-05,1.000000000000000048e-04,1.000000000000000048e-04,2.000000000000000164e-05,-2.500000000000000052e-04,-5.000000000000000240e-05,2.000000000000000000e+00,3.000000000000000000e+00
6.113000000000000000e+03,1.000000000000000082e-05,2.000000000000000164e-05,2.000000000000000164e-05,1.000000000000000048e-04,1.000000000000000048e-04,2.000000000000000164e-05,-2.500000000000000052e-04,-5.000000000000000240e-05,2.000000000000000000e+00,3.000000000000000000e+00
6.114000000000000000e+03,1.000000000000000082e-05,2.000000000000000164e-05,2.000000000000000164e-05,1.000000000000000048e-04,1.000000000000000048e-04,2.000000000000000164e-05,-2.500000000000000052e-04,-5.000000000000000240e-05,2.000000000000000000e+00,3.000000000000000000e+00
6.115000000000000000e+03,-1.000000000000000082e-05,-2.000000000000000164e-05,-4.000000000000000327e-05,-4.000000000000000327e-05,8.000000000000000654e-05,-4.000000000000000327e-05,-1.000000000000000082e-05,-2.999999999999999737e-05,2.000000000000000000e+00,3.000000000000000000e+00
6.116000000000000000e+03,-1.000000000000000082e-05,-2.000000000000000164e-05,-4.000000000000000327e-05,-4.000000000000000327e-05,8.000000000000000654e-05,-4.000000000000000327e-05,-1.000000000000000082e-05,-2.999999999999999737e-05,2.000000000000000000e+00,3.000000000000000000e+00
6.117000000000000000e+03,-1.000000000000000082e-05,-2.000000000000000164e-05,-4.000000000000000327e-05,-4.000000000000000327e-05,8.000000000000000654e-05,-4.000000000000000327e-05,-1.000000000000000082e-05,-2.999999999999999737e-05,2.000000000000000000e+00,3.000000000000000000e+00
6.118000000000000000e+03,-1.000000000000000082e-05,-2.000000000000000164e-05,-4.000000000000000327e-05,-4.000000000000000327e-05,8.000000000000000654e-05,-4.000000000000000327e-05,-1.000000000000000082e-05,-2.999999999999999737e-05,2.000000000000000000e+00,3.000000000000000000e+00
6.119000000000000000e+03,-1.000000000000000082e-05,-2.000000000000000164e-05,-4.000000000000000327e-05,-4.000000000000000327e-05,8.000000000000000654e-05,-4.000000000000000327e-05,-1.000000000000000082e-05,-2.999999999999999737e-05,2.000000000000000000e+00,3.000000000000000000e+00
6.120000000000000000e+03,-1.000000000000000082e-05,-2.000000000000000164e-05,-4.000000000000000327e-05,-4.000000000000000327e-05,8.000000000000000654e-05,-4.000000000000000327e-05,-1.000000000000000082e-05,-2.999999999999999737e-05,2.000000000000000000e+00,3.000000000000000000e+00
6.121000000000000000e+03,-1.000000000000000082e-05,-2.000000000000000164e-05,-4.000000000000000327e-05,-4.000000000000000327e-05,8.000000000000000654e-05,-4.000000000000000327e-05,-1.000000000000000082e-05,-2.999999999999999737e-05,2.000000000000000000e+00,3.000000000000000000e+00
6.122000000000000000e+03,-1.000000000000000082e-05,-2.000000000000000164e-05,-4.000000000000000327e-05,-4.000000000000000327e-05,8.000000000000000654e-05,-4.000000000000000327e-05,-1.000000000000000082e-05,-2.999999999999999737e-05,2.000000000000000000e+00,3.000000000000000000e+00
6.123000000000000000e+03,-1.000000000000000082e-05,-2.000000000000000164e-05,-4.000000000000000327e-05,-4.000000000000000327e-05,8.000000000000000654e-05,-4.000000000000000327e-05,-1.000000000000000082e-05,-2.999999999999999737e-05,2.000000000000000000e+00,3.000000000000000000e+00
6.124000000000000000e+03,-1.000000000000000082e-05,-2.000000000000000164e-05,-4.000000000000000327e-05,-4.000000000000000327e-05,8.000000000000000654e-05,-4.000000000000000327e-05,-1.000000000000000082e-05,-2.999999999999999737e-05,2.000000000000000000e+00,3.000000000000000000e+00
6.125000000000000000e+03,-1.000000000000000082e-05,-2.000000000000000164e-05,-4.000000000000000327e-05,-4.000000000000000327e-05,8.000000000000000654e-05,-4.000000000000000327e-05,-1.000000000000000082e-05,-2.999999999999999737e-05,2.000000000000000000e+00,3.000000000000000000e+00
6.126000000000000000e+03,-1.000000000000000082e-05,-2.000000000000000164e-05,-4.000000000000000327e-05,-4.000000000000000327e-05,8.000000000000000654e-05,-4.000000000000000327e-05,-1.000000000000000082e-05,-2.999999999999999737e-05,2.000000000000000000e+00,3.000000000000000000e+00
6.127000000000000000e+03,-1.000000000000000082e-05,-2.000000000000000164e-05,-4.000000000000000327e-05,-4.000000000000000327e-05,8.000000000000000654e-05,-4.000000000000000327e-05,-1.000000000000000082e-05,-2.999999999999999737e-05,2.000000000000000000e+00,3.000000000000000000e+00
6.128000000000000000e+03,-1.000000000000000082e-05,-2.000000000000000164e-05,-4.000000000000000327e-05,-4.000000000000000327e-05,8.000000000000000654e-05,-4.000000000000000327e-05,-1.000000000000000082e-05,-2.999999999999999737e-05,2.000000000000000000e+00,3.000000000000000000e+00
6.129000000000000000e+03,-1.000000000000000082e-05,-2.000000000000000164e-05,-4.000000000000000327e-05,-4.000000000000000327e-05,8.000000000000000654e-05,-4.000000000000000327e-05,-1.000000000000000082e-05,-2.999999999999999737e-05,2.000000000000000000e+00,3.000000000000000000e+00
6.130000000000000000e+03,0.000000000000000000e+00,-5.000000000000000240e-05,5.000000000000000240e-05,-4.000000000000000327e-05,-5.999999999999999474e-05,-5.999999999999999474e-05,-1.699999999999999851e-04,-2.000000000000000164e-05,2.000000000000000000e+00,3.000000000000000000e+00
6.131000000000000000e+03,-2.000000000000000164e-05,5.000000000000000240e-05,-5.000000000000000240e-05,-1.899999999999999834e-04,0.000000000000000000e+00,1.000000000000000048e-04,-5.000000000000000240e-05,2.000000000000000164e-05,2.000000000000000000e+00,3.000000000000000000e+00
6.132000000000000000e+03,-4.000000000000000327e-05,-1.300000000000000157e-04,2.999999999999999737e-05,2.999999999999999737e-04,2.999999999999999737e-05,-4.000000000000000327e-05,1.600000000000000131e-04,-2.000000000000000164e-05,2.000000000000000000e+00,3.000000000000000000e+00
6.133000000000000000e+03,-4.000000000000000327e-05,-1.300000000000000157e-04,2.999999999999999737e-05,2.999999999999999737e-04,2.999999999999999737e-05,-4.000000000000000327e-05,1.600000000000000131e-04,-2.000000000000000164e-05,2.000000000000000000e+00,3.000000000000000000e+00
6.134000000000000000e+03,-4.000000000000000327e-05,-1.300000000000000157e-04,2.999999999999999737e-05,2.999999999999999737e-04,2.999999999999999737e-05,-4.000000000000000327e-05,1.600000000000000131e-04,-2.000000000000000164e-05,2.000000000000000000e+00,3.000000000000000000e+00
6.135000000000000000e+03,-4.000000000000000327e-05,-1.300000000000000157e-04,2.999999999999999737e-05,2.999999999999999737e-04,2.999999999999999737e-05,-4.000000000000000327e-05,1.600000000000000131e-04,-2.000000000000000164e-05,2.000000000000000000e+00,3.000000000000000000e+00
6.136000000000000000e+03,-4.000000000000000327e-05,-1.300000000000000157e-04,2.999999999999999737e-05,2.999999999999999737e-04,2.999999999999999737e-05,-4.000000000000000327e-05,1.600000000000000131e-04,-2.000000000000000164e-05,2.000000000000000000e+00,3.000000000000000000e+00
6.138000000000000000e+03,-4.000000000000000327e-05,-1.300000000000000157e-04,2.999999999999999737e-05,2.999999999999999737e-04,2.999999999999999737e-05,-4.000000000000000327e-05,1.600000000000000131e-04,-2.000000000000000164e-05,2.000000000000000000e+00,3.000000000000000000e+00
6.139000000000000000e+03,-4.000000000000000327e-05,-1.300000000000000157e-04,2.999999999999999737e-05,2.999999999999999737e-04,2.999999999999999737e-05,-4.000000000000000327e-05,1.600000000000000131e-04,-2.000000000000000164e-05,2.000000000000000000e+00,3.000000000000000000e+00
6.140000000000000000e+03,-4.000000000000000327e-05,-1.300000000000000157e-04,2.999999999999999737e-05,2.999999999999999737e-04,2.999999999999999737e-05,-4.000000000000000327e-05,1.600000000000000131e-04,-2.000000000000000164e-05,2.000000000000000000e+00,3.000000000000000000e+00
6.141000000000000000e+03,-4.000000000000000327e-05,-1.300000000000000157e-04,2.999999999999999737e-05,2.999999999999999737e-04,2.999999999999999737e-05,-4.000000000000000327e-05,1.600000000000000131e-04,-2.000000000000000164e-05,2.000000000000000000e+00,3.000000000000000000e+00
6.142000000000000000e+03,-4.000000000000000327e-05,-1.300000000000000157e-04,2.999999999999999737e-05,2.999999999999999737e-04,2.999999999999999737e-05,-4.000000000000000327e-05,1.600000000000000131e-04,-2.000000000000000164e-05,2.000000000000000000e+00,3.000000000000000000e+00
6.143000000000000000e+03,-4.000000000000000327e-05,-1.300000000000000157e-04,2.999999999999999737e-05,2.999999999999999737e-04,2.999999999999999737e-05,-4.000000000000000327e-05,1.600000000000000131e-04,-2.000000000000000164e-05,2.000000000000000000e+00,3.000000000000000000e+00
6.144000000000000000e+03,-4.000000000000000327e-05,-1.300000000000000157e-04,2.999999999999999737e-05,2.999999999999999737e-04,2.999999999999999737e-05,-4.000000000000000327e-05,1.600000000000000131e-04,-2.000000000000000164e-05,2.000000000000000000e+00,3.000000000000000000e+00
6.145000000000000000e+03,-4.000000000000000327e-05,-1.300000000000000157e-04,2.999999999999999737e-05,2.999999999999999737e-04,2.999999999999999737e-05,-4.000000000000000327e-05,1.600000000000000131e-04,-2.000000000000000164e-05,2.000000000000000000e+00,3.000000000000000000e+00
6.146000000000000000e+03,-4.000000000000000327e-05,-1.300000000000000157e-04,2.999999999999999737e-05,2.999999999999999737e-04,2.999999999999999737e-05,-4.000000000000000327e-05,1.600000000000000131e-04,-2.000000000000000164e-05,2.000000000000000000e+00,3.000000000000000000e+00
6.147000000000000000e+03,-4.000000000000000327e-05,-1.300000000000000157e-04,2.999999999999999737e-05,2.999999999999999737e-04,2.999999999999999737e-05,-4.000000000000000327e-05,1.600000000000000131e-04,-2.000000000000000164e-05,2.000000000000000000e+00,3.000000000000000000e+00
6.148000000000000000e+03,-4.000000000000000327e-05,-1.300000000000000157e-04,2.999999999999999737e-05,2.999999999999999737e-04,2.999999999999999737e-05,-4.000000000000000327e-05,1.600000000000000131e-04,-2.000000000000000164e-05,2.000000000000000000e+00,3.000000000000000000e+00
6.149000000000000000e+03,-4.000000000000000327e-05,-1.300000000000000157e-04,2.999999999999999737e-05,2.999999999999999737e-04,2.999999999999999737e-05,-4.000000000000000327e-05,1.600000000000000131e-04,-2.000000000000000164e-05,2.000000000000000000e+00,3.000000000000000000e+00
6.150000000000000000e+03,-4.000000000000000327e-05,-1.300000000000000157e-04,2.999999999999999737e-05,2.999999999999999737e-04,2.999999999999999737e-05,-4.000000000000000327e-05,1.600000000000000131e-04,-2.000000000000000164e-05,2.000000000000000000e+00,3.000000000000000000e+00
6.151000000000000000e+03,-4.000000000000000327e-05,-1.300000000000000157e-04,2.999999999999999737e-05,2.999999999999999737e-04,2.999999999999999737e-05,-4.000000000000000327e-05,1.600000000000000131e-04,-2.000000000000000164e-05,2.000000000000000000e+00,3.000000000000000000e+00
6.152000000000000000e+03,-4.000000000000000327e-05,-9.000000000000000567e-05,-1.300000000000000157e-04,-3.200000000000000262e-04,-6.999999999999999387e-05,2.999999999999999737e-05,6.999999999999999387e-05,-1.000000000000000082e-05,2.000000000000000000e+00,3.000000000000000000e+00
6.153000000000000000e+03,-4.000000000000000327e-05,-9.000000000000000567e-05,-1.300000000000000157e-04,-3.200000000000000262e-04,-6.999999999999999387e-05,2.999999999999999737e-05,6.999999999999999387e-05,-1.000000000000000082e-05,2.000000000000000000e+00,3.000000000000000000e+00
6.154000000000000000e+03,-1.000000000000000082e-05,8.000000000000000654e-05,2.999999999999999737e-05,-2.000000000000000164e-05,6.999999999999999387e-05,5.999999999999999474e-05,3.399999999999999702e-04,5.999999999999999474e-05,2.000000000000000000e+00,3.000000000000000000e+00
6.155000000000000000e+03,-1.000000000000000082e-05,8.000000000000000654e-05,2.999999999999999737e-05,-2.000000000000000164e-05,6.999999999999999387e-05,5.999999999999999474e-05,3.399999999999999702e-04,5.999999999999999474e-05,2.000000000000000000e+00,3.000000000000000000e+00
6.156000000000000000e+03,-1.000000000000000082e-05,8.000000000000000654e-05,2.999999999999999737e-05,-2.000000000000000164e-05,6.999999999999999387e-05,5.999999999999999474e-05,3.399999999999999702e-04,5.999999999999999474e-05,2.000000000000000000e+00,3.000000000000000000e+00
6.157000000000000000e+03,-1.000000000000000082e-05,8.000000000000000654e-05,2.999999999999999737e-05,-2.000000000000000164e-05,6.999999999999999387e-05,5.999999999999999474e-05,3.399999999999999702e-04,5.999999999999999474e-05,2.000000000000000000e+00,3.000000000000000000e+00
6.158000000000000000e+03,-1.000000000000000082e-05,8.000000000000000654e-05,2.999999999999999737e-05,-2.000000000000000164e-05,6.999999999999999387e-05,5.999999999999999474e-05,3.399999999999999702e-04,5.999999999999999474e-05,2.000000000000000000e+00,3.000000000000000000e+00
6.159000000000000000e+03,-1.000000000000000082e-05,8.000000000000000654e-05,2.999999999999999737e-05,-2.000000000000000164e-05,6.999999999999999387e-05,5.999999999999999474e-05,3.399999999999999702e-04,5.999999999999999474e-05,2.000000000000000000e+00,3.000000000000000000e+00
6.160000000000000000e+03,-1.000000000000000082e-05,8.000000000000000654e-05,2.999999999999999737e-05,-2.000000000000000164e-05,6.999999999999999387e-05,5.999999999999999474e-05,3.399999999999999702e-04,5.999999999999999474e-05,2.000000000000000000e+00,3.000000000000000000e+00
6.161000000000000000e+03,-1.000000000000000082e-05,8.000000000000000654e-05,2.999999999999999737e-05,-2.000000000000000164e-05,6.999999999999999387e-05,5.999999999999999474e-05,3.399999999999999702e-04,5.999999999999999474e-05,2.000000000000000000e+00,3.000000000000000000e+00
6.162000000000000000e+03,-1.000000000000000082e-05,8.000000000000000654e-05,2.999999999999999737e-05,-2.000000000000000164e-05,6.999999999999999387e-05,5.999999999999999474e-05,3.399999999999999702e-04,5.999999999999999474e-05,2.000000000000000000e+00,3.000000000000000000e+00
6.163000000000000000e+03,-1.000000000000000082e-05,8.000000000000000654e-05,2.999999999999999737e-05,-2.000000000000000164e-05,6.999999999999999387e-05,5.999999999999999474e-05,3.399999999999999702e-04,5.999999999999999474e-05,2.000000000000000000e+00,3.000000000000000000e+00
6.164000000000000000e+03,-1.000000000000000082e-05,8.000000000000000654e-05,2.999999999999999737e-05,-2.000000000000000164e-05,6.999999999999999387e-05,5.999999999999999474e-05,3.399999999999999702e-04,5.999999999999999474e-05,2.000000000000000000e+00,3.000000000000000000e+00
6.165000000000000000e+03,-1.000000000000000082e-05,8.000000000000000654e-05,2.999999999999999737e-05,-2.000000000000000164e-05,6.999999999999999387e-05,5.999999999999999474e-05,3.399999999999999702e-04,5.999999999999999474e-05,2.000000000000000000e+00,3.000000000000000000e+00
6.166000000000000000e+03,1.000000000000000048e-04,0.000000000000000000e+00,1.300000000000000157e-04,3.299999999999999982e-04,1.899999999999999834e-04,0.000000000000000000e+00,-1.699999999999999851e-04,9.000000000000000567e-05,2.000000000000000000e+00,3.000000000000000000e+00
6.167000000000000000e+03,1.000000000000000048e-04,0.000000000000000000e+00,1.300000000000000157e-04,3.299999999999999982e-04,1.899999999999999834e-04,0.000000000000000000e+00,-1.699999999999999851e-04,9.000000000000000567e-05,2.000000000000000000e+00,3.000000000000000000e+00
6.168000000000000000e+03,1.000000000000000048e-04,0.000000000000000000e+00,1.300000000000000157e-04,3.299999999999999982e-04,1.899999999999999834e-04,0.000000000000000000e+00,-1.699999999999999851e-04,9.000000000000000567e-05,2.000000000000000000e+00,3.000000000000000000e+00
6.169000000000000000e+03,1.000000000000000048e-04,0.000000000000000000e+00,1.300000000000000157e-04,3.299999999999999982e-04,1.899999999999999834e-04,0.000000000000000000e+00,-1.699999999999999851e-04,9.000000000000000567e-05,2.000000000000000000e+00,3.000000000000000000e+00
6.170000000000000000e+03,1.000000000000000048e-04,0.000000000000000000e+00,1.300000000000000157e-04,3.299999999999999982e-04,1.899999999999999834e-04,0.000000000000000000e+00,-1.699999999999999851e-04,9.000000000000000567e-05,2.000000000000000000e+00,3.000000000000000000e+00
6.171000000000000000e+03,1.000000000000000048e-04,0.000000000000000000e+00,1.300000000000000157e-04,3.299999999999999982e-04,1.899999999999999834e-04,0.000000000000000000e+00,-1.699999999999999851e-04,9.000000000000000567e-05,2.000000000000000000e+00,3.000000000000000000e+00
6.172000000000000000e+03,1.000000000000000048e-04,0.000000000000000000e+00,1.300000000000000157e-04,3.299999999999999982e-04,1.899999999999999834e-04,0.000000000000000000e+00,-1.699999999999999851e-04,9.000000000000000567e-05,2.000000000000000000e+00,3.000000000000000000e+00
6.173000000000000000e+03,1.000000000000000048e-04,0.000000000000000000e+00,1.300000000000000157e-04,3.299999999999999982e-04,1.899999999999999834e-04,0.000000000000000000e+00,-1.699999999999999851e-04,9.000000000000000567e-05,2.000000000000000000e+00,3.000000000000000000e+00
6.174000000000000000e+03,1.000000000000000048e-04,0.000000000000000000e+00,1.300000000000000157e-04,3.299999999999999982e-04,1.899999999999999834e-04,0.000000000000000000e+00,-1.699999999999999851e-04,9.000000000000000567e-05,2.000000000000000000e+00,3.000000000000000000e+00
6.175000000000000000e+03,-9.000000000000000567e-05,-1.000000000000000082e-05,-9.000000000000000567e-05,-1.300000000000000157e-04,-1.199999999999999895e-04,-2.000000000000000164e-05,2.999999999999999737e-04,2.999999999999999737e-05,2.000000000000000000e+00,3.000000000000000000e+00
6.176000000000000000e+03,-9.000000000000000567e-05,-1.000000000000000082e-05,-9.000000000000000567e-05,-1.300000000000000157e-04,-1.199999999999999895e-04,-2.000000000000000164e-05,2.999999999999999737e-04,2.999999999999999737e-05,2.000000000000000000e+00,3.000000000000000000e+00
6.177000000000000000e+03,-9.000000000000000567e-05,-1.000000000000000082e-05,-9.000000000000000567e-05,-1.300000000000000157e-04,-1.199999999999999895e-04,-2.000000000000000164e-05,2.999999999999999737e-04,2.999999999999999737e-05,2.000000000000000000e+00,3.000000000000000000e+00
6.178000000000000000e+03,-9.000000000000000567e-05,-1.000000000000000082e-05,-9.000000000000000567e-05,-1.300000000000000157e-04,-1.199999999999999895e-04,-2.000000000000000164e-05,2.999999999999999737e-04,2.999999999999999737e-05,2.000000000000000000e+00,3.000000000000000000e+00
6.179000000000000000e+03,-9.000000000000000567e-05,-1.000000000000000082e-05,-9.000000000000000567e-05,-1.300000000000000157e-04,-1.199999999999999895e-04,-2.000000000000000164e-05,2.999999999999999737e-04,2.999999999999999737e-05,2.000000000000000000e+00,3.000000000000000000e+00
6.180000000000000000e+03,-9.000000000000000567e-05,-1.000000000000000082e-05,-9.000000000000000567e-05,-1.300000000000000157e-04,-1.199999999999999895e-04,-2.000000000000000164e-05,2.999999999999999737e-04,2.999999999999999737e-05,2.000000000000000000e+00,3.000000000000000000e+00
6.181000000000000000e+03,-9.000000000000000567e-05,-1.000000000000000082e-05,-9.000000000000000567e-05,-1.300000000000000157e-04,-1.199999999999999895e-04,-2.000000000000000164e-05,2.999999999999999737e-04,2.999999999999999737e-05,2.000000000000000000e+00,3.000000000000000000e+00
6.182000000000000000e+03,-9.000000000000000567e-05,-1.000000000000000082e-05,-9.000000000000000567e-05,-1.300000000000000157e-04,-1.199999999999999895e-04,-2.000000000000000164e-05,2.999999999999999737e-04,2.999999999999999737e-05,2.000000000000000000e+00,3.000000000000000000e+00
6.183000000000000000e+03,-9.000000000000000567e-05,-1.000000000000000082e-05,-9.000000000000000567e-05,-1.300000000000000157e-04,-1.199999999999999895e-04,-2.000000000000000164e-05,2.999999999999999737e-04,2.999999999999999737e-05,2.000000000000000000e+00,3.000000000000000000e+00
6.184000000000000000e+03,-9.000000000000000567e-05,-1.000000000000000082e-05,-9.000000000000000567e-05,-1.300000000000000157e-04,-1.199999999999999895e-04,-2.000000000000000164e-05,2.999999999999999737e-04,2.999999999999999737e-05,2.000000000000000000e+00,3.000000000000000000e+00
6.185000000000000000e+03,-9.000000000000000567e-05,-1.000000000000000082e-05,-9.000000000000000567e-05,-1.300000000000000157e-04,-1.199999999999999895e-04,-2.000000000000000164e-05,2.999999999999999737e-04,2.999999999999999737e-05,2.000000000000000000e+00,3.000000000000000000e+00
6.186000000000000000e+03,-9.000000000000000567e-05,-1.000000000000000082e-05,-9.000000000000000567e-05,-1.300000000000000157e-04,-1.199999999999999895e-04,-2.000000000000000164e-05,2.999999999999999737e-04,2.999999999999999737e-05,2.000000000000000000e+00,3.000000000000000000e+00
6.188000000000000000e+03,-9.000000000000000567e-05,-1.000000000000000082e-05,-9.000000000000000567e-05,-1.300000000000000157e-04,-1.199999999999999895e-04,-2.000000000000000164e-05,2.999999999999999737e-04,2.999999999999999737e-05,2.000000000000000000e+00,3.000000000000000000e+00
6.189000000000000000e+03,-9.000000000000000567e-05,-1.000000000000000082e-05,-9.000000000000000567e-05,-1.300000000000000157e-04,-1.199999999999999895e-04,-2.000000000000000164e-05,2.999999999999999737e-04,2.999999999999999737e-05,2.000000000000000000e+00,3.000000000000000000e+00
6.190000000000000000e+03,-4.000000000000000327e-05,-5.000000000000000240e-05,-2.999999999999999737e-05,-4.000000000000000327e-05,2.999999999999999737e-05,6.999999999999999387e-05,2.500000000000000052e-04,8.000000000000000654e-05,2.000000000000000000e+00,3.000000000000000000e+00
6.191000000000000000e+03,-2.999999999999999737e-05,6.999999999999999387e-05,1.600000000000000131e-04,3.299999999999999982e-04,5.999999999999999474e-05,-5.999999999999999474e-05,-2.100000000000000087e-04,-1.100000000000000039e-04,2.000000000000000000e+00,3.000000000000000000e+00
6.192000000000000000e+03,6.999999999999999387e-05,0.000000000000000000e+00,1.000000000000000082e-05,0.000000000000000000e+00,-2.000000000000000164e-05,-4.000000000000000327e-05,-1.100000000000000039e-04,2.999999999999999737e-05,2.000000000000000000e+00,3.000000000000000000e+00
6.193000000000000000e+03,6.999999999999999387e-05,0.000000000000000000e+00,1.000000000000000082e-05,0.000000000000000000e+00,-2.000000000000000164e-05,-4.000000000000000327e-05,-1.100000000000000039e-04,2.999999999999999737e-05,2.000000000000000000e+00,3.000000000000000000e+00
6.194000000000000000e+03,6.999999999999999387e-05,0.000000000000000000e+00,1.000000000000000082e-05,0.000000000000000000e+00,-2.000000000000000164e-05,-4.000000000000000327e-05,-1.100000000000000039e-04,2.999999999999999737e-05,2.000000000000000000e+00,3.000000000000000000e+00
6.195000000000000000e+03,6.999999999999999387e-05,0.000000000000000000e+00,1.000000000000000082e-05,0.000000000000000000e+00,-2.000000000000000164e-05,-4.000000000000000327e-05,-1.100000000000000039e-04,2.999999999999999737e-05,2.000000000000000000e+00,3.000000000000000000e+00
6.196000000000000000e+03,6.999999999999999387e-05,0.000000000000000000e+00,1.000000000000000082e-05,0.000000000000000000e+00,-2.000000000000000164e-05,-4.000000000000000327e-05,-1.100000000000000039e-04,2.999999999999999737e-05,2.000000000000000000e+00,3.000000000000000000e+00
6.197000000000000000e+03,6.999999999999999387e-05,0.000000000000000000e+00,1.000000000000000082e-05,0.000000000000000000e+00,-2.000000000000000164e-05,-4.000000000000000327e-05,-1.100000000000000039e-04,2.999999999999999737e-05,2.000000000000000000e+00,3.000000000000000000e+00
6.198000000000000000e+03,6.999999999999999387e-05,0.000000000000000000e+00,1.000000000000000082e-05,0.000000000000000000e+00,-2.000000000000000164e-05,-4.000000000000000327e-05,-1.100000000000000039e-04,2.999999999999999737e-05,2.000000000000000000e+00,3.000000000000000000e+00
6.199000000000000000e+03,6.999999999999999387e-05,0.000000000000000000e+00,1.000000000000000082e-05,0.000000000000000000e+00,-2.000000000000000164e-05,-4.000000000000000327e-05,-1.100000000000000039e-04,2.999999999999999737e-05,2.000000000000000000e+00,3.000000000000000000e+00
6.200000000000000000e+03,6.999999999999999387e-05,0.000000000000000000e+00,1.000000000000000082e-05,0.000000000000000000e+00,-2.000000000000000164e-05,-4.000000000000000327e-05,-1.100000000000000039e-04,2.999999999999999737e-05,2.000000000000000000e+00,3.000000000000000000e+00
6.201000000000000000e+03,6.999999999999999387e-05,0.000000000000000000e+00,1.000000000000000082e-05,0.000000000000000000e+00,-2.000000000000000164e-05,-4.000000000000000327e-05,-1.100000000000000039e-04,2.999999999999999737e-05,2.000000000000000000e+00,3.000000000000000000e+00
6.202000000000000000e+03,6.999999999999999387e-05,0.000000000000000000e+00,1.000000000000000082e-05,0.000000000000000000e+00,-2.000000000000000164e-05,-4.000000000000000327e-05,-1.100000000000000039e-04,2.999999999999999737e-05,2.000000000000000000e+00,3.000000000000000000e+00
6.203000000000000000e+03,6.999999999999999387e-05,0.000000000000000000e+00,1.000000000000000082e-05,0.000000000000000000e+00,-2.000000000000000164e-05,-4.000000000000000327e-05,-1.100000000000000039e-04,2.999999999999999737e-05,2.000000000000000000e+00,3.000000000000000000e+00
6.204000000000000000e+03,6.999999999999999387e-05,0.000000000000000000e+00,1.000000000000000082e-05,0.000000000000000000e+00,-2.000000000000000164e-05,-4.000000000000000327e-05,-1.100000000000000039e-04,2.999999999999999737e-05,2.000000000000000000e+00,3.000000000000000000e+00
6.205000000000000000e+03,6.999999999999999387e-05,0.000000000000000000e+00,1.000000000000000082e-05,0.000000000000000000e+00,-2.000000000000000164e-05,-4.000000000000000327e-05,-1.100000000000000039e-04,2.999999999999999737e-05,2.000000000000000000e+00,3.000000000000000000e+00
6.206000000000000000e+03,6.999999999999999387e-05,0.000000000000000000e+00,1.000000000000000082e-05,0.000000000000000000e+00,-2.000000000000000164e-05,-4.000000000000000327e-05,-1.100000000000000039e-04,2.999999999999999737e-05,2.000000000000000000e+00,3.000000000000000000e+00
6.207000000000000000e+03,6.999999999999999387e-05,0.000000000000000000e+00,1.000000000000000082e-05,0.000000000000000000e+00,-2.000000000000000164e-05,-4.000000000000000327e-05,-1.100000000000000039e-04,2.999999999999999737e-05,2.000000000000000000e+00,3.000000000000000000e+00
6.208000000000000000e+03,6.999999999999999387e-05,0.000000000000000000e+00,1.000000000000000082e-05,0.000000000000000000e+00,-2.000000000000000164e-05,-4.000000000000000327e-05,-1.100000000000000039e-04,2.999999999999999737e-05,2.000000000000000000e+00,3.000000000000000000e+00
6.209000000000000000e+03,6.999999999999999387e-05,0.000000000000000000e+00,1.000000000000000082e-05,0.000000000000000000e+00,-2.000000000000000164e-05,-4.000000000000000327e-05,-1.100000000000000039e-04,2.999999999999999737e-05,2.000000000000000000e+00,3.000000000000000000e+00
6.210000000000000000e+03,6.999999999999999387e-05,0.000000000000000000e+00,1.000000000000000082e-05,0.000000000000000000e+00,-2.000000000000000164e-05,-4.000000000000000327e-05,-1.100000000000000039e-04,2.999999999999999737e-05,2.000000000000000000e+00,3.000000000000000000e+00
6.211000000000000000e+03,6.999999999999999387e-05,0.000000000000000000e+00,1.000000000000000082e-05,0.000000000000000000e+00,-2.000000000000000164e-05,-4.000000000000000327e-05,-1.100000000000000039e-04,2.999999999999999737e-05,2.000000000000000000e+00,3.000000000000000000e+00
6.212000000000000000e+03,6.999999999999999387e-05,0.000000000000000000e+00,1.000000000000000082e-05,0.000000000000000000e+00,-2.000000000000000164e-05,-4.000000000000000327e-05,-1.100000000000000039e-04,2.999999999999999737e-05,2.000000000000000000e+00,3.000000000000000000e+00
6.213000000000000000e+03,4.000000000000000327e-05,-4.000000000000000327e-05,-2.999999999999999737e-04,-7.299999999999999632e-04,-1.399999999999999877e-04,-2.999999999999999737e-05,-2.999999999999999737e-05,2.999999999999999737e-05,2.000000000000000000e+00,3.000000000000000000e+00
6.214000000000000000e+03,-5.000000000000000240e-05,-2.999999999999999737e-05,1.300000000000000157e-04,4.099999999999999912e-04,6.999999999999999387e-05,1.000000000000000082e-05,-5.000000000000000240e-05,4.000000000000000327e-05,2.000000000000000000e+00,3.000000000000000000e+00
6.215000000000000000e+03,-5.000000000000000240e-05,-5.999999999999999474e-05,-1.000000000000000048e-04,-1.199999999999999895e-04,-4.000000000000000327e-05,2.999999999999999737e-05,-1.399999999999999877e-04,-2.000000000000000164e-05,2.000000000000000000e+00,3.000000000000000000e+00
6.216000000000000000e+03,-5.000000000000000240e-05,-5.999999999999999474e-05,-1.000000000000000048e-04,-1.199999999999999895e-04,-4.000000000000000327e-05,2.999999999999999737e-05,-1.399999999999999877e-04,-2.000000000000000164e-05,2.000000000000000000e+00,3.000000000000000000e+00
6.217000000000000000e+03,-5.000000000000000240e-05,-5.999999999999999474e-05,-1.000000000000000048e-04,-1.199999999999999895e-04,-4.000000000000000327e-05,2.999999999999999737e-05,-1.399999999999999877e-04,-2.000000000000000164e-05,2.000000000000000000e+00,3.000000000000000000e+00
6.218000000000000000e+03,-5.000000000000000240e-05,-5.999999999999999474e-05,-1.000000000000000048e-04,-1.199999999999999895e-04,-4.000000000000000327e-05,2.999999999999999737e-05,-1.399999999999999877e-04,-2.000000000000000164e-05,2.000000000000000000e+00,3.000000000000000000e+00
6.219000000000000000e+03,-5.000000000000000240e-05,-5.999999999999999474e-05,-1.000000000000000048e-04,-1.199999999999999895e-04,-4.000000000000000327e-05,2.999999999999999737e-05,-1.399999999999999877e-04,-2.000000000000000164e-05,2.000000000000000000e+00,3.000000000000000000e+00
6.220000000000000000e+03,-5.000000000000000240e-05,-5.999999999999999474e-05,-1.000000000000000048e-04,-1.199999999999999895e-04,-4.000000000000000327e-05,2.999999999999999737e-05,-1.399999999999999877e-04,-2.000000000000000164e-05,2.000000000000000000e+00,3.000000000000000000e+00
6.221000000000000000e+03,-5.000000000000000240e-05,-5.999999999999999474e-05,-1.000000000000000048e-04,-1.199999999999999895e-04,-4.000000000000000327e-05,2.999999999999999737e-05,-1.399999999999999877e-04,-2.000000000000000164e-05,2.000000000000000000e+00,3.000000000000000000e+00
6.222000000000000000e+03,-5.000000000000000240e-05,-5.999999999999999474e-05,-1.000000000000000048e-04,-1.199999999999999895e-04,-4.000000000000000327e-05,2.999999999999999737e-05,-1.399999999999999877e-04,-2.000000000000000164e-05,2.000000000000000000e+00,3.000000000000000000e+00
6.223000000000000000e+03,-5.000000000000000240e-05,-5.999999999999999474e-05,-1.000000000000000048e-04,-1.199999999999999895e-04,-4.000000000000000327e-05,2.999999999999999737e-05,-1.399999999999999877e-04,-2.000000000000000164e-05,2.000000000000000000e+00,3.000000000000000000e+00
6.224000000000000000e+03,-5.000000000000000240e-05,-5.999999999999999474e-05,-1.000000000000000048e-04,-1.199999999999999895e-04,-4.000000000000000327e-05,2.999999999999999737e-05,-1.399999999999999877e-04,-2.000000000000000164e-05,2.000000000000000000e+00,3.000000000000000000e+00
6.225000000000000000e+03,-5.000000000000000240e-05,-5.999999999999999474e-05,-1.000000000000000048e-04,-1.199999999999999895e-04,-4.000000000000000327e-05,2.999999999999999737e-05,-1.399999999999999877e-04,-2.000000000000000164e-05,2.000000000000000000e+00,3.000000000000000000e+00
6.226000000000000000e+03,-1.000000000000000082e-05,-8.000000000000000654e-05,0.000000000000000000e+00,1.300000000000000157e-04,1.000000000000000082e-05,-6.999999999999999387e-05,1.899999999999999834e-04,2.999999999999999737e-05,2.000000000000000000e+00,3.000000000000000000e+00
6.227000000000000000e+03,-1.000000000000000082e-05,-8.000000000000000654e-05,0.000000000000000000e+00,1.300000000000000157e-04,1.000000000000000082e-05,-6.999999999999999387e-05,1.899999999999999834e-04,2.999999999999999737e-05,2.000000000000000000e+00,3.000000000000000000e+00
6.228000000000000000e+03,-1.000000000000000082e-05,-8.000000000000000654e-05,0.000000000000000000e+00,1.300000000000000157e-04,1.000000000000000082e-05,-6.999999999999999387e-05,1.899999999999999834e-04,2.999999999999999737e-05,2.000000000000000000e+00,3.000000000000000000e+00
6.229000000000000000e+03,-1.000000000000000082e-05,-8.000000000000000654e-05,0.000000000000000000e+00,1.300000000000000157e-04,1.000000000000000082e-05,-6.999999999999999387e-05,1.899999999999999834e-04,2.999999999999999737e-05,2.000000000000000000e+00,3.000000000000000000e+00
6.230000000000000000e+03,-1.000000000000000082e-05,-8.000000000000000654e-05,0.000000000000000000e+00,1.300000000000000157e-04,1.000000000000000082e-05,-6.999999999999999387e-05,1.899999999999999834e-04,2.999999999999999737e-05,2.000000000000000000e+00,3.000000000000000000e+00
6.231000000000000000e+03,-1.000000000000000082e-05,-8.000000000000000654e-05,0.000000000000000000e+00,1.300000000000000157e-04,1.000000000000000082e-05,-6.999999999999999387e-05,1.899999999999999834e-04,2.999999999999999737e-05,2.000000000000000000e+00,3.000000000000000000e+00
6.232000000000000000e+03,-1.000000000000000082e-05,-8.000000000000000654e-05,0.000000000000000000e+00,1.300000000000000157e-04,1.000000000000000082e-05,-6.999999999999999387e-05,1.899999999999999834e-04,2.999999999999999737e-05,2.000000000000000000e+00,3.000000000000000000e+00
6.233000000000000000e+03,-1.000000000000000082e-05,-8.000000000000000654e-05,0.000000000000000000e+00,1.300000000000000157e-04,1.000000000000000082e-05,-6.999999999999999387e-05,1.899999999999999834e-04,2.999999999999999737e-05,2.000000000000000000e+00,3.000000000000000000e+00
6.234000000000000000e+03,-1.000000000000000082e-05,-8.000000000000000654e-05,0.000000000000000000e+00,1.300000000000000157e-04,1.000000000000000082e-05,-6.999999999999999387e-05,1.899999999999999834e-04,2.999999999999999737e-05,2.000000000000000000e+00,3.000000000000000000e+00
6.235000000000000000e+03,-5.000000000000000240e-05,-5.999999999999999474e-05,0.000000000000000000e+00,1.699999999999999851e-04,-2.000000000000000164e-05,-2.999999999999999737e-05,-2.900000000000000017e-04,-5.000000000000000240e-05,2.000000000000000000e+00,3.000000000000000000e+00
6.236000000000000000e+03,-5.000000000000000240e-05,-5.999999999999999474e-05,0.000000000000000000e+00,1.699999999999999851e-04,-2.000000000000000164e-05,-2.999999999999999737e-05,-2.900000000000000017e-04,-5.000000000000000240e-05,2.000000000000000000e+00,3.000000000000000000e+00
6.238000000000000000e+03,-5.000000000000000240e-05,-5.999999999999999474e-05,0.000000000000000000e+00,1.699999999999999851e-04,-2.000000000000000164e-05,-2.999999999999999737e-05,-2.900000000000000017e-04,-5.000000000000000240e-05,2.000000000000000000e+00,3.000000000000000000e+00
6.239000000000000000e+03,-5.000000000000000240e-05,-5.999999999999999474e-05,0.000000000000000000e+00,1.699999999999999851e-04,-2.000000000000000164e-05,-2.999999999999999737e-05,-2.900000000000000017e-04,-5.000000000000000240e-05,2.000000000000000000e+00,3.000000000000000000e+00
6.240000000000000000e+03,-5.000000000000000240e-05,-5.999999999999999474e-05,0.000000000000000000e+00,1.699999999999999851e-04,-2.000000000000000164e-05,-2.999999999999999737e-05,-2.900000000000000017e-04,-5.000000000000000240e-05,2.000000000000000000e+00,3.000000000000000000e+00
6.241000000000000000e+03,-5.000000000000000240e-05,-5.999999999999999474e-05,0.000000000000000000e+00,1.699999999999999851e-04,-2.000000000000000164e-05,-2.999999999999999737e-05,-2.900000000000000017e-04,-5.000000000000000240e-05,2.000000000000000000e+00,3.000000000000000000e+00
6.242000000000000000e+03,-5.000000000000000240e-05,-5.999999999999999474e-05,0.000000000000000000e+00,1.699999999999999851e-04,-2.000000000000000164e-05,-2.999999999999999737e-05,-2.900000000000000017e-04,-5.000000000000000240e-05,2.000000000000000000e+00,3.000000000000000000e+00
6.243000000000000000e+03,-5.000000000000000240e-05,-5.999999999999999474e-05,0.000000000000000000e+00,1.699999999999999851e-04,-2.000000000000000164e-05,-2.999999999999999737e-05,-2.900000000000000017e-04,-5.000000000000000240e-05,2.000000000000000000e+00,3.000000000000000000e+00
6.244000000000000000e+03,-5.000000000000000240e-05,-5.999999999999999474e-05,0.000000000000000000e+00,1.699999999999999851e-04,-2.000000000000000164e-05,-2.999999999999999737e-05,-2.900000000000000017e-04,-5.000000000000000240e-05,2.000000000000000000e+00,3.000000000000000000e+00
6.245000000000000000e+03,-5.000000000000000240e-05,-5.999999999999999474e-05,0.000000000000000000e+00,1.699999999999999851e-04,-2.000000000000000164e-05,-2.999999999999999737e-05,-2.900000000000000017e-04,-5.000000000000000240e-05,2.000000000000000000e+00,3.000000000000000000e+00
6.246000000000000000e+03,-5.000000000000000240e-05,-5.999999999999999474e-05,0.000000000000000000e+00,1.699999999999999851e-04,-2.000000000000000164e-05,-2.999999999999999737e-05,-2.900000000000000017e-04,-5.000000000000000240e-05,2.000000000000000000e+00,3.000000000000000000e+00
6.247000000000000000e+03,-5.000000000000000240e-05,-5.999999999999999474e-05,0.000000000000000000e+00,1.699999999999999851e-04,-2.000000000000000164e-05,-2.999999999999999737e-05,-2.900000000000000017e-04,-5.000000000000000240e-05,2.000000000000000000e+00,3.000000000000000000e+00
6.248000000000000000e+03,-5.000000000000000240e-05,-5.999999999999999474e-05,0.000000000000000000e+00,1.699999999999999851e-04,-2.000000000000000164e-05,-2.999999999999999737e-05,-2.900000000000000017e-04,-5.000000000000000240e-05,2.000000000000000000e+00,3.000000000000000000e+00
6.249000000000000000e+03,-5.000000000000000240e-05,-5.999999999999999474e-05,0.000000000000000000e+00,1.699999999999999851e-04,-2.000000000000000164e-05,-2.999999999999999737e-05,-2.900000000000000017e-04,-5.000000000000000240e-05,2.000000000000000000e+00,3.000000000000000000e+00
6.250000000000000000e+03,-1.000000000000000082e-05,-4.000000000000000327e-05,4.000000000000000327e-05,2.399999999999999790e-04,-1.000000000000000082e-05,-1.000000000000000082e-05,1.399999999999999877e-04,1.000000000000000082e-05,2.000000000000000000e+00,3.000000000000000000e+00
6.251000000000000000e+03,-1.000000000000000082e-05,-4.000000000000000327e-05,4.000000000000000327e-05,2.399999999999999790e-04,-1.000000000000000082e-05,-1.000000000000000082e-05,1.399999999999999877e-04,1.000000000000000082e-05,2.000000000000000000e+00,3.000000000000000000e+00
6.252000000000000000e+03,-1.100000000000000039e-04,1.100000000000000039e-04,1.300000000000000157e-04,2.900000000000000017e-04,5.000000000000000240e-05,-8.000000000000000654e-05,-2.700000000000000035e-04,-2.299999999999999799e-04,2.000000000000000000e+00,3.000000000000000000e+00
6.253000000000000000e+03,-1.100000000000000039e-04,1.100000000000000039e-04,1.300000000000000157e-04,2.900000000000000017e-04,5.000000000000000240e-05,-8.000000000000000654e-05,-2.700000000000000035e-04,-2.299999999999999799e-04,2.000000000000000000e+00,3.000000000000000000e+00
6.254000000000000000e+03,-1.100000000000000039e-04,1.100000000000000039e-04,1.300000000000000157e-04,2.900000000000000017e-04,5.000000000000000240e-05,-8.000000000000000654e-05,-2.700000000000000035e-04,-2.299999999999999799e-04,2.000000000000000000e+00,3.000000000000000000e+00
6.255000000000000000e+03,-1.100000000000000039e-04,1.100000000000000039e-04,1.300000000000000157e-04,2.900000000000000017e-04,5.000000000000000240e-05,-8.000000000000000654e-05,-2.700000000000000035e-04,-2.299999999999999799e-04,2.000000000000000000e+00,3.000000000000000000e+00
6.256000000000000000e+03,-1.100000000000000039e-04,1.100000000000000039e-04,1.300000000000000157e-04,2.900000000000000017e-04,5.000000000000000240e-05,-8.000000000000000654e-05,-2.700000000000000035e-04,-2.299999999999999799e-04,2.000000000000000000e+00,3.000000000000000000e+00
6.257000000000000000e+03,-1.100000000000000039e-04,1.100000000000000039e-04,1.300000000000000157e-04,2.900000000000000017e-04,5.000000000000000240e-05,-8.000000000000000654e-05,-2.700000000000000035e-04,-2.299999999999999799e-04,2.000000000000000000e+00,3.000000000000000000e+00
6.258000000000000000e+03,-1.100000000000000039e-04,1.100000000000000039e-04,1.300000000000000157e-04,2.900000000000000017e-04,5.000000000000000240e-05,-8.000000000000000654e-05,-2.700000000000000035e-04,-2.299999999999999799e-04,2.000000000000000000e+00,3.000000000000000000e+00
6.259000000000000000e+03,-1.100000000000000039e-04,1.100000000000000039e-04,1.300000000000000157e-04,2.900000000000000017e-04,5.000000000000000240e-05,-8.000000000000000654e-05,-2.700000000000000035e-04,-2.299999999999999799e-04,2.000000000000000000e+00,3.000000000000000000e+00
6.260000000000000000e+03,-1.100000000000000039e-04,1.100000000000000039e-04,1.300000000000000157e-04,2.900000000000000017e-04,5.000000000000000240e-05,-8.000000000000000654e-05,-2.700000000000000035e-04,-2.299999999999999799e-04,2.000000000000000000e+00,3.000000000000000000e+00
6.261000000000000000e+03,-1.100000000000000039e-04,1.100000000000000039e-04,1.300000000000000157e-04,2.900000000000000017e-04,5.000000000000000240e-05,-8.000000000000000654e-05,-2.700000000000000035e-04,-2.299999999999999799e-04,2.000000000000000000e+00,3.000000000000000000e+00
6.262000000000000000e+03,-1.100000000000000039e-04,1.100000000000000039e-04,1.300000000000000157e-04,2.900000000000000017e-04,5.000000000000000240e-05,-8.000000000000000654e-05,-2.700000000000000035e-04,-2.299999999999999799e-04,2.000000000000000000e+00,3.000000000000000000e+00
6.263000000000000000e+03,-1.100000000000000039e-04,1.100000000000000039e-04,1.300000000000000157e-04,2.900000000000000017e-04,5.000000000000000240e-05,-8.000000000000000654e-05,-2.700000000000000035e-04,-2.299999999999999799e-04,2.000000000000000000e+00,3.000000000000000000e+00
6.264000000000000000e+03,-1.100000000000000039e-04,1.100000000000000039e-04,1.300000000000000157e-04,2.900000000000000017e-04,5.000000000000000240e-05,-8.000000000000000654e-05,-2.700000000000000035e-04,-2.299999999999999799e-04,2.000000000000000000e+00,3.000000000000000000e+00
6.265000000000000000e+03,-1.100000000000000039e-04,1.100000000000000039e-04,1.300000000000000157e-04,2.900000000000000017e-04,5.000000000000000240e-05,-8.000000000000000654e-05,-2.700000000000000035e-04,-2.299999999999999799e-04,2.000000000000000000e+00,3.000000000000000000e+00
6.266000000000000000e+03,-1.100000000000000039e-04,1.100000000000000039e-04,1.300000000000000157e-04,2.900000000000000017e-04,5.000000000000000240e-05,-8.000000000000000654e-05,-2.700000000000000035e-04,-2.299999999999999799e-04,2.000000000000000000e+00,3.000000000000000000e+00
6.267000000000000000e+03,-1.100000000000000039e-04,1.100000000000000039e-04,1.300000000000000157e-04,2.900000000000000017e-04,5.000000000000000240e-05,-8.000000000000000654e-05,-2.700000000000000035e-04,-2.299999999999999799e-04,2.000000000000000000e+00,3.000000000000000000e+00
6.268000000000000000e+03,-1.100000000000000039e-04,1.100000000000000039e-04,1.300000000000000157e-04,2.900000000000000017e-04,5.000000000000000240e-05,-8.000000000000000654e-05,-2.700000000000000035e-04,-2.299999999999999799e-04,2.000000000000000000e+00,3.000000000000000000e+00
6.269000000000000000e+03,-1.100000000000000039e-04,1.100000000000000039e-04,1.300000000000000157e-04,2.900000000000000017e-04,5.000000000000000240e-05,-8.000000000000000654e-05,-2.700000000000000035e-04,-2.299999999999999799e-04,2.000000000000000000e+00,3.000000000000000000e+00
6.270000000000000000e+03,-1.100000000000000039e-04,1.100000000000000039e-04,1.300000000000000157e-04,2.900000000000000017e-04,5.000000000000000240e-05,-8.000000000000000654e-05,-2.700000000000000035e-04,-2.299999999999999799e-04,2.000000000000000000e+00,3.000000000000000000e+00
6.271000000000000000e+03,-1.100000000000000039e-04,1.100000000000000039e-04,1.300000000000000157e-04,2.900000000000000017e-04,5.000000000000000240e-05,-8.000000000000000654e-05,-2.700000000000000035e-04,-2.299999999999999799e-04,2.000000000000000000e+00,3.000000000000000000e+00
6.272000000000000000e+03,6.999999999999999387e-05,0.000000000000000000e+00,2.000000000000000164e-05,1.199999999999999895e-04,0.000000000000000000e+00,2.999999999999999737e-05,8.000000000000000654e-05,2.999999999999999737e-05,2.000000000000000000e+00,3.000000000000000000e+00
6.273000000000000000e+03,6.999999999999999387e-05,0.000000000000000000e+00,2.000000000000000164e-05,1.199999999999999895e-04,0.000000000000000000e+00,2.999999999999999737e-05,8.000000000000000654e-05,2.999999999999999737e-05,2.000000000000000000e+00,3.000000000000000000e+00
6.274000000000000000e+03,1.199999999999999895e-04,1.300000000000000157e-04,5.999999999999999474e-05,-2.999999999999999737e-05,5.000000000000000240e-05,1.000000000000000082e-05,0.000000000000000000e+00,0.000000000000000000e+00,2.000000000000000000e+00,3.000000000000000000e+00
6.275000000000000000e+03,1.199999999999999895e-04,1.300000000000000157e-04,5.999999999999999474e-05,-2.999999999999999737e-05,5.000000000000000240e-05,1.000000000000000082e-05,0.000000000000000000e+00,0.000000000000000000e+00,2.000000000000000000e+00,3.000000000000000000e+00
6.276000000000000000e+03,1.199999999999999895e-04,1.300000000000000157e-04,5.999999999999999474e-05,-2.999999999999999737e-05,5.000000000000000240e-05,1.000000000000000082e-05,0.000000000000000000e+00,0.000000000000000000e+00,2.000000000000000000e+00,3.000000000000000000e+00
6.277000000000000000e+03,1.199999999999999895e-04,1.300000000000000157e-04,5.999999999999999474e-05,-2.999999999999999737e-05,5.000000000000000240e-05,1.000000000000000082e-05,0.000000000000000000e+00,0.000000000000000000e+00,2.000000000000000000e+00,3.000000000000000000e+00
6.278000000000000000e+03,1.199999999999999895e-04,1.300000000000000157e-04,5.999999999999999474e-05,-2.999999999999999737e-05,5.000000000000000240e-05,1.000000000000000082e-05,0.000000000000000000e+00,0.000000000000000000e+00,2.000000000000000000e+00,3.000000000000000000e+00
6.279000000000000000e+03,1.199999999999999895e-04,1.300000000000000157e-04,5.999999999999999474e-05,-2.999999999999999737e-05,5.000000000000000240e-05,1.000000000000000082e-05,0.000000000000000000e+00,0.000000000000000000e+00,2.000000000000000000e+00,3.000000000000000000e+00
6.280000000000000000e+03,1.199999999999999895e-04,1.300000000000000157e-04,5.999999999999999474e-05,-2.999999999999999737e-05,5.000000000000000240e-05,1.000000000000000082e-05,0.000000000000000000e+00,0.000000000000000000e+00,2.000000000000000000e+00,3.000000000000000000e+00
6.281000000000000000e+03,1.199999999999999895e-04,1.300000000000000157e-04,5.999999999999999474e-05,-2.999999999999999737e-05,5.000000000000000240e-05,1.000000000000000082e-05,0.000000000000000000e+00,0.000000000000000000e+00,2.000000000000000000e+00,3.000000000000000000e+00
6.282000000000000000e+03,1.199999999999999895e-04,1.300000000000000157e-04,5.999999999999999474e-05,-2.999999999999999737e-05,5.000000000000000240e-05,1.000000000000000082e-05,0.000000000000000000e+00,0.000000000000000000e+00,2.000000000000000000e+00,3.000000000000000000e+00
6.283000000000000000e+03,1.199999999999999895e-04,1.300000000000000157e-04,5.999999999999999474e-05,-2.999999999999999737e-05,5.000000000000000240e-05,1.000000000000000082e-05,0.000000000000000000e+00,0.000000000000000000e+00,2.000000000000000000e+00,3.000000000000000000e+00
6.284000000000000000e+03,1.199999999999999895e-04,1.300000000000000157e-04,5.999999999999999474e-05,-2.999999999999999737e-05,5.000000000000000240e-05,1.000000000000000082e-05,0.000000000000000000e+00,0.000000000000000000e+00,2.000000000000000000e+00,3.000000000000000000e+00
6.285000000000000000e+03,1.199999999999999895e-04,1.300000000000000157e-04,5.999999999999999474e-05,-2.999999999999999737e-05,5.000000000000000240e-05,1.000000000000000082e-05,0.000000000000000000e+00,0.000000000000000000e+00,2.000000000000000000e+00,3.000000000000000000e+00
6.286000000000000000e+03,-8.000000000000000654e-05,-1.100000000000000039e-04,-2.000000000000000164e-05,8.000000000000000654e-05,1.000000000000000082e-05,2.000000000000000164e-05,-9.000000000000000567e-05,-2.999999999999999737e-05,2.000000000000000000e+00,3.000000000000000000e+00
6.288000000000000000e+03,-8.000000000000000654e-05,-1.100000000000000039e-04,-2.000000000000000164e-05,8.000000000000000654e-05,1.000000000000000082e-05,2.000000000000000164e-05,-9.000000000000000567e-05,-2.999999999999999737e-05,2.000000000000000000e+00,3.000000000000000000e+00
6.289000000000000000e+03,-8.000000000000000654e-05,-1.100000000000000039e-04,-2.000000000000000164e-05,8.000000000000000654e-05,1.000000000000000082e-05,2.000000000000000164e-05,-9.000000000000000567e-05,-2.999999999999999737e-05,2.000000000000000000e+00,3.000000000000000000e+00
6.290000000000000000e+03,-8.000000000000000654e-05,-1.100000000000000039e-04,-2.000000000000000164e-05,8.000000000000000654e-05,1.000000000000000082e-05,2.000000000000000164e-05,-9.000000000000000567e-05,-2.999999999999999737e-05,2.000000000000000000e+00,3.000000000000000000e+00
6.291000000000000000e+03,-8.000000000000000654e-05,-1.100000000000000039e-04,-2.000000000000000164e-05,8.000000000000000654e-05,1.000000000000000082e-05,2.000000000000000164e-05,-9.000000000000000567e-05,-2.999999999999999737e-05,2.000000000000000000e+00,3.000000000000000000e+00
6.292000000000000000e+03,-8.000000000000000654e-05,-1.100000000000000039e-04,-2.000000000000000164e-05,8.000000000000000654e-05,1.000000000000000082e-05,2.000000000000000164e-05,-9.000000000000000567e-05,-2.999999999999999737e-05,2.000000000000000000e+00,3.000000000000000000e+00
6.293000000000000000e+03,-8.000000000000000654e-05,-1.100000000000000039e-04,-2.000000000000000164e-05,8.000000000000000654e-05,1.000000000000000082e-05,2.000000000000000164e-05,-9.000000000000000567e-05,-2.999999999999999737e-05,2.000000000000000000e+00,3.000000000000000000e+00
6.294000000000000000e+03,-8.000000000000000654e-05,-1.100000000000000039e-04,-2.000000000000000164e-05,8.000000000000000654e-05,1.000000000000000082e-05,2.000000000000000164e-05,-9.000000000000000567e-05,-2.999999999999999737e-05,2.000000000000000000e+00,3.000000000000000000e+00
6.295000000000000000e+03,1.000000000000000082e-05,2.000000000000000164e-05,-9.000000000000000567e-05,-1.000000000000000082e-05,-1.000000000000000048e-04,-2.999999999999999737e-05,-2.999999999999999737e-05,-2.000000000000000164e-05,2.000000000000000000e+00,3.000000000000000000e+00
6.296000000000000000e+03,1.000000000000000082e-05,2.000000000000000164e-05,-9.000000000000000567e-05,-1.000000000000000082e-05,-1.000000000000000048e-04,-2.999999999999999737e-05,-2.999999999999999737e-05,-2.000000000000000164e-05,2.000000000000000000e+00,3.000000000000000000e+00
6.297000000000000000e+03,1.000000000000000082e-05,2.000000000000000164e-05,-9.000000000000000567e-05,-1.000000000000000082e-05,-1.000000000000000048e-04,-2.999999999999999737e-05,-2.999999999999999737e-05,-2.000000000000000164e-05,2.000000000000000000e+00,3.000000000000000000e+00
6.298000000000000000e+03,1.000000000000000082e-05,2.000000000000000164e-05,-9.000000000000000567e-05,-1.000000000000000082e-05,-1.000000000000000048e-04,-2.999999999999999737e-05,-2.999999999999999737e-05,-2.000000000000000164e-05,2.000000000000000000e+00,3.000000000000000000e+00
6.299000000000000000e+03,1.000000000000000082e-05,2.000000000000000164e-05,-9.000000000000000567e-05,-1.000000000000000082e-05,-1.000000000000000048e-04,-2.999999999999999737e-05,-2.999999999999999737e-05,-2.000000000000000164e-05,2.000000000000000000e+00,3.000000000000000000e+00
6.300000000000000000e+03,1.000000000000000082e-05,2.000000000000000164e-05,-9.000000000000000567e-05,-1.000000000000000082e-05,-1.000000000000000048e-04,-2.999999999999999737e-05,-2.999999999999999737e-05,-2.000000000000000164e-05,2.000000000000000000e+00,3.000000000000000000e+00
6.301000000000000000e+03,1.000000000000000082e-05,2.000000000000000164e-05,-9.000000000000000567e-05,-1.000000000000000082e-05,-1.000000000000000048e-04,-2.999999999999999737e-05,-2.999999999999999737e-05,-2.000000000000000164e-05,2.000000000000000000e+00,3.000000000000000000e+00
6.302000000000000000e+03,1.000000000000000082e-05,2.000000000000000164e-05,-9.000000000000000567e-05,-1.000000000000000082e-05,-1.000000000000000048e-04,-2.999999999999999737e-05,-2.999999999999999737e-05,-2.000000000000000164e-05,2.000000000000000000e+00,3.000000000000000000e+00
6.303000000000000000e+03,1.000000000000000082e-05,2.000000000000000164e-05,-9.000000000000000567e-05,-1.000000000000000082e-05,-1.000000000000000048e-04,-2.999999999999999737e-05,-2.999999999999999737e-05,-2.000000000000000164e-05,2.000000000000000000e+00,3.000000000000000000e+00
6.304000000000000000e+03,1.000000000000000082e-05,2.000000000000000164e-05,-9.000000000000000567e-05,-1.000000000000000082e-05,-1.000000000000000048e-04,-2.999999999999999737e-05,-2.999999999999999737e-05,-2.000000000000000164e-05,2.000000000000000000e+00,3.000000000000000000e+00
6.305000000000000000e+03,1.000000000000000082e-05,2.000000000000000164e-05,-9.000000000000000567e-05,-1.000000000000000082e-05,-1.000000000000000048e-04,-2.999999999999999737e-05,-2.999999999999999737e-05,-2.000000000000000164e-05,2.000000000000000000e+00,3.000000000000000000e+00
6.306000000000000000e+03,1.000000000000000082e-05,2.000000000000000164e-05,-9.000000000000000567e-05,-1.000000000000000082e-05,-1.000000000000000048e-04,-2.999999999999999737e-05,-2.999999999999999737e-05,-2.000000000000000164e-05,2.000000000000000000e+00,3.000000000000000000e+00
6.307000000000000000e+03,1.000000000000000082e-05,2.000000000000000164e-05,-9.000000000000000567e-05,-1.000000000000000082e-05,-1.000000000000000048e-04,-2.999999999999999737e-05,-2.999999999999999737e-05,-2.000000000000000164e-05,2.000000000000000000e+00,3.000000000000000000e+00
6.308000000000000000e+03,1.000000000000000082e-05,2.000000000000000164e-05,-9.000000000000000567e-05,-1.000000000000000082e-05,-1.000000000000000048e-04,-2.999999999999999737e-05,-2.999999999999999737e-05,-2.000000000000000164e-05,2.000000000000000000e+00,3.000000000000000000e+00
6.309000000000000000e+03,1.000000000000000082e-05,2.000000000000000164e-05,-9.000000000000000567e-05,-1.000000000000000082e-05,-1.000000000000000048e-04,-2.999999999999999737e-05,-2.999999999999999737e-05,-2.000000000000000164e-05,2.000000000000000000e+00,3.000000000000000000e+00
6.310000000000000000e+03,9.000000000000000567e-05,9.000000000000000567e-05,1.000000000000000048e-04,2.799999999999999755e-04,5.999999999999999474e-05,1.000000000000000082e-05,-1.000000000000000048e-04,-2.999999999999999737e-05,2.000000000000000000e+00,3.000000000000000000e+00
6.311000000000000000e+03,-1.499999999999999869e-04,-2.999999999999999737e-05,-1.000000000000000082e-05,-5.999999999999999474e-05,-4.000000000000000327e-05,-2.999999999999999737e-05,2.000000000000000164e-05,-1.000000000000000048e-04,2.000000000000000000e+00,3.000000000000000000e+00
6.312000000000000000e+03,2.999999999999999737e-05,1.000000000000000082e-05,5.000000000000000240e-05,2.999999999999999737e-05,0.000000000000000000e+00,-5.000000000000000240e-05,2.999999999999999737e-05,0.000000000000000000e+00,2.000000000000000000e+00,3.000000000000000000e+00
6.313000000000000000e+03,2.999999999999999737e-05,1.000000000000000082e-05,5.000000000000000240e-05,2.999999999999999737e-05,0.000000000000000000e+00,-5.000000000000000240e-05,2.999999999999999737e-05,0.000000000000000000e+00,2.000000000000000000e+00,3.000000000000000000e+00
6.314000000000000000e+03,2.999999999999999737e-05,1.000000000000000082e-05,5.000000000000000240e-05,2.999999999999999737e-05,0.000000000000000000e+00,-5.000000000000000240e-05,2.999999999999999737e-05,0.000000000000000000e+00,2.000000000000000000e+00,3.000000000000000000e+00
6.315000000000000000e+03,2.999999999999999737e-05,1.000000000000000082e-05,5.000000000000000240e-05,2.999999999999999737e-05,0.000000000000000000e+00,-5.000000000000000240e-05,2.999999999999999737e-05,0.000000000000000000e+00,2.000000000000000000e+00,3.000000000000000000e+00
6.316000000000000000e+03,2.999999999999999737e-05,1.000000000000000082e-05,5.000000000000000240e-05,2.999999999999999737e-05,0.000000000000000000e+00,-5.000000000000000240e-05,2.999999999999999737e-05,0.000000000000000000e+00,2.000000000000000000e+00,3.000000000000000000e+00
6.317000000000000000e+03,2.999999999999999737e-05,1.000000000000000082e-05,5.000000000000000240e-05,2.999999999999999737e-05,0.000000000000000000e+00,-5.000000000000000240e-05,2.999999999999999737e-05,0.000000000000000000e+00,2.000000000000000000e+00,3.000000000000000000e+00
6.318000000000000000e+03,2.999999999999999737e-05,1.000000000000000082e-05,5.000000000000000240e-05,2.999999999999999737e-05,0.000000000000000000e+00,-5.000000000000000240e-05,2.999999999999999737e-05,0.000000000000000000e+00,2.000000000000000000e+00,3.000000000000000000e+00
6.319000000000000000e+03,2.999999999999999737e-05,1.000000000000000082e-05,5.000000000000000240e-05,2.999999999999999737e-05,0.000000000000000000e+00,-5.000000000000000240e-05,2.999999999999999737e-05,0.000000000000000000e+00,2.000000000000000000e+00,3.000000000000000000e+00
6.320000000000000000e+03,2.999999999999999737e-05,1.000000000000000082e-05,5.000000000000000240e-05,2.999999999999999737e-05,0.000000000000000000e+00,-5.000000000000000240e-05,2.999999999999999737e-05,0.000000000000000000e+00,2.000000000000000000e+00,3.000000000000000000e+00
6.321000000000000000e+03,2.999999999999999737e-05,1.000000000000000082e-05,5.000000000000000240e-05,2.999999999999999737e-05,0.000000000000000000e+00,-5.000000000000000240e-05,2.999999999999999737e-05,0.000000000000000000e+00,2.000000000000000000e+00,3.000000000000000000e+00
6.322000000000000000e+03,2.999999999999999737e-05,1.000000000000000082e-05,5.000000000000000240e-05,2.999999999999999737e-05,0.000000000000000000e+00,-5.000000000000000240e-05,2.999999999999999737e-05,0.000000000000000000e+00,2.000000000000000000e+00,3.000000000000000000e+00
6.323000000000000000e+03,2.999999999999999737e-05,1.000000000000000082e-05,5.000000000000000240e-05,2.999999999999999737e-05,0.000000000000000000e+00,-5.000000000000000240e-05,2.999999999999999737e-05,0.000000000000000000e+00,2.000000000000000000e+00,3.000000000000000000e+00
6.324000000000000000e+03,2.999999999999999737e-05,1.000000000000000082e-05,5.000000000000000240e-05,2.999999999999999737e-05,0.000000000000000000e+00,-5.000000000000000240e-05,2.999999999999999737e-05,0.000000000000000000e+00,2.000000000000000000e+00,3.000000000000000000e+00
6.325000000000000000e+03,2.999999999999999737e-05,1.000000000000000082e-05,5.000000000000000240e-05,2.999999999999999737e-05,0.000000000000000000e+00,-5.000000000000000240e-05,2.999999999999999737e-05,0.000000000000000000e+00,2.000000000000000000e+00,3.000000000000000000e+00
6.326000000000000000e+03,2.999999999999999737e-05,1.000000000000000082e-05,5.000000000000000240e-05,2.999999999999999737e-05,0.000000000000000000e+00,-5.000000000000000240e-05,2.999999999999999737e-05,0.000000000000000000e+00,2.000000000000000000e+00,3.000000000000000000e+00
6.327000000000000000e+03,2.999999999999999737e-05,1.000000000000000082e-05,5.000000000000000240e-05,2.999999999999999737e-05,0.000000000000000000e+00,-5.000000000000000240e-05,2.999999999999999737e-05,0.000000000000000000e+00,2.000000000000000000e+00,3.000000000000000000e+00
6.328000000000000000e+03,2.999999999999999737e-05,1.000000000000000082e-05,5.000000000000000240e-05,2.999999999999999737e-05,0.000000000000000000e+00,-5.000000000000000240e-05,2.999999999999999737e-05,0.000000000000000000e+00,2.000000000000000000e+00,3.000000000000000000e+00
6.329000000000000000e+03,2.999999999999999737e-05,1.000000000000000082e-05,5.000000000000000240e-05,2.999999999999999737e-05,0.000000000000000000e+00,-5.000000000000000240e-05,2.999999999999999737e-05,0.000000000000000000e+00,2.000000000000000000e+00,3.000000000000000000e+00
6.330000000000000000e+03,2.999999999999999737e-05,1.000000000000000082e-05,5.000000000000000240e-05,2.999999999999999737e-05,0.000000000000000000e+00,-5.000000000000000240e-05,2.999999999999999737e-05,0.000000000000000000e+00,2.000000000000000000e+00,3.000000000000000000e+00
6.331000000000000000e+03,2.999999999999999737e-05,1.000000000000000082e-05,5.000000000000000240e-05,2.999999999999999737e-05,0.000000000000000000e+00,-5.000000000000000240e-05,2.999999999999999737e-05,0.000000000000000000e+00,2.000000000000000000e+00,3.000000000000000000e+00
6.332000000000000000e+03,-4.000000000000000327e-05,4.000000000000000327e-05,-1.000000000000000082e-05,-3.399999999999999702e-04,-1.499999999999999869e-04,-2.999999999999999737e-05,1.000000000000000048e-04,-2.000000000000000164e-05,2.000000000000000000e+00,3.000000000000000000e+00
6.333000000000000000e+03,-4.000000000000000327e-05,4.000000000000000327e-05,-1.000000000000000082e-05,-3.399999999999999702e-04,-1.499999999999999869e-04,-2.999999999999999737e-05,1.000000000000000048e-04,-2.000000000000000164e-05,2.000000000000000000e+00,3.000000000000000000e+00
6.334000000000000000e+03,-5.000000000000000240e-05,-1.399999999999999877e-04,-9.000000000000000567e-05,-1.100000000000000039e-04,1.100000000000000039e-04,1.000000000000000082e-05,-1.600000000000000131e-04,-2.999999999999999737e-05,2.000000000000000000e+00,3.000000000000000000e+00
6.335000000000000000e+03,-5.000000000000000240e-05,-1.399999999999999877e-04,-9.000000000000000567e-05,-1.100000000000000039e-04,1.100000000000000039e-04,1.000000000000000082e-05,-1.600000000000000131e-04,-2.999999999999999737e-05,2.000000000000000000e+00,3.000000000000000000e+00
6.336000000000000000e+03,-5.000000000000000240e-05,-1.399999999999999877e-04,-9.000000000000000567e-05,-1.100000000000000039e-04,1.100000000000000039e-04,1.000000000000000082e-05,-1.600000000000000131e-04,-2.999999999999999737e-05,2.000000000000000000e+00,3.000000000000000000e+00
6.338000000000000000e+03,-5.000000000000000240e-05,-1.399999999999999877e-04,-9.000000000000000567e-05,-1.100000000000000039e-04,1.100000000000000039e-04,1.000000000000000082e-05,-1.600000000000000131e-04,-2.999999999999999737e-05,2.000000000000000000e+00,3.000000000000000000e+00
6.339000000000000000e+03,-5.000000000000000240e-05,-1.399999999999999877e-04,-9.000000000000000567e-05,-1.100000000000000039e-04,1.100000000000000039e-04,1.000000000000000082e-05,-1.600000000000000131e-04,-2.999999999999999737e-05,2.000000000000000000e+00,3.000000000000000000e+00
6.340000000000000000e+03,-5.000000000000000240e-05,-1.399999999999999877e-04,-9.000000000000000567e-05,-1.100000000000000039e-04,1.100000000000000039e-04,1.000000000000000082e-05,-1.600000000000000131e-04,-2.999999999999999737e-05,2.000000000000000000e+00,3.000000000000000000e+00
6.341000000000000000e+03,-5.000000000000000240e-05,-1.399999999999999877e-04,-9.000000000000000567e-05,-1.100000000000000039e-04,1.100000000000000039e-04,1.000000000000000082e-05,-1.600000000000000131e-04,-2.999999999999999737e-05,2.000000000000000000e+00,3.000000000000000000e+00
6.342000000000000000e+03,-5.000000000000000240e-05,-1.399999999999999877e-04,-9.000000000000000567e-05,-1.100000000000000039e-04,1.100000000000000039e-04,1.000000000000000082e-05,-1.600000000000000131e-04,-2.999999999999999737e-05,2.000000000000000000e+00,3.000000000000000000e+00
6.343000000000000000e+03,-5.000000000000000240e-05,-1.399999999999999877e-04,-9.000000000000000567e-05,-1.100000000000000039e-04,1.100000000000000039e-04,1.000000000000000082e-05,-1.600000000000000131e-04,-2.999999999999999737e-05,2.000000000000000000e+00,3.000000000000000000e+00
6.344000000000000000e+03,-5.000000000000000240e-05,-1.399999999999999877e-04,-9.000000000000000567e-05,-1.100000000000000039e-04,1.100000000000000039e-04,1.000000000000000082e-05,-1.600000000000000131e-04,-2.999999999999999737e-05,2.000000000000000000e+00,3.000000000000000000e+00
6.345000000000000000e+03,-5.000000000000000240e-05,-1.399999999999999877e-04,-9.000000000000000567e-05,-1.100000000000000039e-04,1.100000000000000039e-04,1.000000000000000082e-05,-1.600000000000000131e-04,-2.999999999999999737e-05,2.000000000000000000e+00,3.000000000000000000e+00
6.346000000000000000e+03,-1.000000000000000048e-04,-8.000000000000000654e-05,2.000000000000000164e-05,1.199999999999999895e-04,6.999999999999999387e-05,2.999999999999999737e-05,2.999999999999999737e-05,2.000000000000000164e-05,2.000000000000000000e+00,3.000000000000000000e+00
6.347000000000000000e+03,-1.000000000000000048e-04,-8.000000000000000654e-05,2.000000000000000164e-05,1.199999999999999895e-04,6.999999999999999387e-05,2.999999999999999737e-05,2.999999999999999737e-05,2.000000000000000164e-05,2.000000000000000000e+00,3.000000000000000000e+00
6.348000000000000000e+03,-1.000000000000000048e-04,-8.000000000000000654e-05,2.000000000000000164e-05,1.199999999999999895e-04,6.999999999999999387e-05,2.999999999999999737e-05,2.999999999999999737e-05,2.000000000000000164e-05,2.000000000000000000e+00,3.000000000000000000e+00
6.349000000000000000e+03,-1.000000000000000048e-04,-8.000000000000000654e-05,2.000000000000000164e-05,1.199999999999999895e-04,6.999999999999999387e-05,2.999999999999999737e-05,2.999999999999999737e-05,2.000000000000000164e-05,2.000000000000000000e+00,3.000000000000000000e+00
6.350000000000000000e+03,-1.000000000000000048e-04,-8.000000000000000654e-05,2.000000000000000164e-05,1.199999999999999895e-04,6.999999999999999387e-05,2.999999999999999737e-05,2.999999999999999737e-05,2.000000000000000164e-05,2.000000000000000000e+00,3.000000000000000000e+00
6.351000000000000000e+03,-1.000000000000000048e-04,-8.000000000000000654e-05,2.000000000000000164e-05,1.199999999999999895e-04,6.999999999999999387e-05,2.999999999999999737e-05,2.999999999999999737e-05,2.000000000000000164e-05,2.000000000000000000e+00,3.000000000000000000e+00
6.352000000000000000e+03,-1.000000000000000048e-04,-8.000000000000000654e-05,2.000000000000000164e-05,1.199999999999999895e-04,6.999999999999999387e-05,2.999999999999999737e-05,2.999999999999999737e-05,2.000000000000000164e-05,2.000000000000000000e+00,3.000000000000000000e+00
6.353000000000000000e+03,-1.000000000000000048e-04,-8.000000000000000654e-05,2.000000000000000164e-05,1.199999999999999895e-04,6.999999999999999387e-05,2.999999999999999737e-05,2.999999999999999737e-05,2.000000000000000164e-05,2.000000000000000000e+00,3.000000000000000000e+00
6.354000000000000000e+03,-1.000000000000000048e-04,-8.000000000000000654e-05,2.000000000000000164e-05,1.199999999999999895e-04,6.999999999999999387e-05,2.999999999999999737e-05,2.999999999999999737e-05,2.000000000000000164e-05,2.000000000000000000e+00,3.000000000000000000e+00
6.355000000000000000e+03,0.000000000000000000e+00,-1.399999999999999877e-04,-1.300000000000000157e-04,-2.399999999999999790e-04,-5.999999999999999474e-05,2.000000000000000164e-05,2.100000000000000087e-04,1.000000000000000048e-04,2.000000000000000000e+00,3.000000000000000000e+00
6.356000000000000000e+03,0.000000000000000000e+00,-1.399999999999999877e-04,-1.300000000000000157e-04,-2.399999999999999790e-04,-5.999999999999999474e-05,2.000000000000000164e-05,2.100000000000000087e-04,1.000000000000000048e-04,2.000000000000000000e+00,3.000000000000000000e+00
6.357000000000000000e+03,0.000000000000000000e+00,-1.399999999999999877e-04,-1.300000000000000157e-04,-2.399999999999999790e-04,-5.999999999999999474e-05,2.000000000000000164e-05,2.100000000000000087e-04,1.000000000000000048e-04,2.000000000000000000e+00,3.000000000000000000e+00
6.358000000000000000e+03,0.000000000000000000e+00,-1.399999999999999877e-04,-1.300000000000000157e-04,-2.399999999999999790e-04,-5.999999999999999474e-05,2.000000000000000164e-05,2.100000000000000087e-04,1.000000000000000048e-04,2.000000000000000000e+00,3.000000000000000000e+00
6.359000000000000000e+03,0.000000000000000000e+00,-1.399999999999999877e-04,-1.300000000000000157e-04,-2.399999999999999790e-04,-5.999999999999999474e-05,2.000000000000000164e-05,2.100000000000000087e-04,1.000000000000000048e-04,2.000000000000000000e+00,3.000000000000000000e+00
6.360000000000000000e+03,0.000000000000000000e+00,-1.399999999999999877e-04,-1.300000000000000157e-04,-2.399999999999999790e-04,-5.999999999999999474e-05,2.000000000000000164e-05,2.100000000000000087e-04,1.000000000000000048e-04,2.000000000000000000e+00,3.000000000000000000e+00
6.361000000000000000e+03,0.000000000000000000e+00,-1.399999999999999877e-04,-1.300000000000000157e-04,-2.399999999999999790e-04,-5.999999999999999474e-05,2.000000000000000164e-05,2.100000000000000087e-04,1.000000000000000048e-04,2.000000000000000000e+00,3.000000000000000000e+00
6.362000000000000000e+03,0.000000000000000000e+00,-1.399999999999999877e-04,-1.300000000000000157e-04,-2.399999999999999790e-04,-5.999999999999999474e-05,2.000000000000000164e-05,2.100000000000000087e-04,1.000000000000000048e-04,2.000000000000000000e+00,3.000000000000000000e+00
6.363000000000000000e+03,0.000000000000000000e+00,-1.399999999999999877e-04,-1.300000000000000157e-04,-2.399999999999999790e-04,-5.999999999999999474e-05,2.000000000000000164e-05,2.100000000000000087e-04,1.000000000000000048e-04,2.000000000000000000e+00,3.000000000000000000e+00
6.364000000000000000e+03,0.000000000000000000e+00,-1.399999999999999877e-04,-1.300000000000000157e-04,-2.399999999999999790e-04,-5.999999999999999474e-05,2.000000000000000164e-05,2.100000000000000087e-04,1.000000000000000048e-04,2.000000000000000000e+00,3.000000000000000000e+00
6.365000000000000000e+03,0.000000000000000000e+00,-1.399999999999999877e-04,-1.300000000000000157e-04,-2.399999999999999790e-04,-5.999999999999999474e-05,2.000000000000000164e-05,2.100000000000000087e-04,1.000000000000000048e-04,2.000000000000000000e+00,3.000000000000000000e+00
6.366000000000000000e+03,0.000000000000000000e+00,-1.399999999999999877e-04,-1.300000000000000157e-04,-2.399999999999999790e-04,-5.999999999999999474e-05,2.000000000000000164e-05,2.100000000000000087e-04,1.000000000000000048e-04,2.000000000000000000e+00,3.000000000000000000e+00
6.367000000000000000e+03,0.000000000000000000e+00,-1.399999999999999877e-04,-1.300000000000000157e-04,-2.399999999999999790e-04,-5.999999999999999474e-05,2.000000000000000164e-05,2.100000000000000087e-04,1.000000000000000048e-04,2.000000000000000000e+00,3.000000000000000000e+00
6.368000000000000000e+03,0.000000000000000000e+00,-1.399999999999999877e-04,-1.300000000000000157e-04,-2.399999999999999790e-04,-5.999999999999999474e-05,2.000000000000000164e-05,2.100000000000000087e-04,1.000000000000000048e-04,2.000000000000000000e+00,3.000000000000000000e+00
6.369000000000000000e+03,0.000000000000000000e+00,-1.399999999999999877e-04,-1.300000000000000157e-04,-2.399999999999999790e-04,-5.999999999999999474e-05,2.000000000000000164e-05,2.100000000000000087e-04,1.000000000000000048e-04,2.000000000000000000e+00,3.000000000000000000e+00
6.370000000000000000e+03,-2.000000000000000164e-05,-1.199999999999999895e-04,-2.000000000000000164e-05,4.000000000000000327e-05,-4.000000000000000327e-05,2.000000000000000164e-05,-5.999999999999999474e-05,2.000000000000000164e-05,2.000000000000000000e+00,3.000000000000000000e+00
6.371000000000000000e+03,-1.000000000000000082e-05,2.999999999999999737e-05,1.399999999999999877e-04,1.499999999999999869e-04,-1.000000000000000082e-05,-1.000000000000000082e-05,-2.000000000000000096e-04,-1.100000000000000039e-04,2.000000000000000000e+00,3.000000000000000000e+00
6.372000000000000000e+03,2.999999999999999737e-05,4.000000000000000327e-05,-8.000000000000000654e-05,-8.000000000000000654e-05,5.999999999999999474e-05,8.000000000000000654e-05,5.000000000000000240e-05,5.999999999999999474e-05,2.000000000000000000e+00,3.000000000000000000e+00
6.373000000000000000e+03,2.999999999999999737e-05,4.000000000000000327e-05,-8.000000000000000654e-05,-8.000000000000000654e-05,5.999999999999999474e-05,8.000000000000000654e-05,5.000000000000000240e-05,5.999999999999999474e-05,2.000000000000000000e+00,3.000000000000000000e+00
6.374000000000000000e+03,2.999999999999999737e-05,4.000000000000000327e-05,-8.000000000000000654e-05,-8.000000000000000654e-05,5.999999999999999474e-05,8.000000000000000654e-05,5.000000000000000240e-05,5.999999999999999474e-05,2.000000000000000000e+00,3.000000000000000000e+00
6.375000000000000000e+03,2.999999999999999737e-05,4.000000000000000327e-05,-8.000000000000000654e-05,-8.000000000000000654e-05,5.999999999999999474e-05,8.000000000000000654e-05,5.000000000000000240e-05,5.999999999999999474e-05,2.000000000000000000e+00,3.000000000000000000e+00
6.376000000000000000e+03,2.999999999999999737e-05,4.000000000000000327e-05,-8.000000000000000654e-05,-8.000000000000000654e-05,5.999999999999999474e-05,8.000000000000000654e-05,5.000000000000000240e-05,5.999999999999999474e-05,2.000000000000000000e+00,3.000000000000000000e+00
6.377000000000000000e+03,2.999999999999999737e-05,4.000000000000000327e-05,-8.000000000000000654e-05,-8.000000000000000654e-05,5.999999999999999474e-05,8.000000000000000654e-05,5.000000000000000240e-05,5.999999999999999474e-05,2.000000000000000000e+00,3.000000000000000000e+00
6.378000000000000000e+03,2.999999999999999737e-05,4.000000000000000327e-05,-8.000000000000000654e-05,-8.000000000000000654e-05,5.999999999999999474e-05,8.000000000000000654e-05,5.000000000000000240e-05,5.999999999999999474e-05,2.000000000000000000e+00,3.000000000000000000e+00
6.379000000000000000e+03,2.999999999999999737e-05,4.000000000000000327e-05,-8.000000000000000654e-05,-8.000000000000000654e-05,5.999999999999999474e-05,8.000000000000000654e-05,5.000000000000000240e-05,5.999999999999999474e-05,2.000000000000000000e+00,3.000000000000000000e+00
6.380000000000000000e+03,2.999999999999999737e-05,4.000000000000000327e-05,-8.000000000000000654e-05,-8.000000000000000654e-05,5.999999999999999474e-05,8.000000000000000654e-05,5.000000000000000240e-05,5.999999999999999474e-05,2.000000000000000000e+00,3.000000000000000000e+00
6.381000000000000000e+03,2.999999999999999737e-05,4.000000000000000327e-05,-8.000000000000000654e-05,-8.000000000000000654e-05,5.999999999999999474e-05,8.000000000000000654e-05,5.000000000000000240e-05,5.999999999999999474e-05,2.000000000000000000e+00,3.000000000000000000e+00
6.382000000000000000e+03,2.999999999999999737e-05,4.000000000000000327e-05,-8.000000000000000654e-05,-8.000000000000000654e-05,5.999999999999999474e-05,8.000000000000000654e-05,5.000000000000000240e-05,5.999999999999999474e-05,2.000000000000000000e+00,3.000000000000000000e+00
6.383000000000000000e+03,2.999999999999999737e-05,4.000000000000000327e-05,-8.000000000000000654e-05,-8.000000000000000654e-05,5.999999999999999474e-05,8.000000000000000654e-05,5.000000000000000240e-05,5.999999999999999474e-05,2.000000000000000000e+00,3.000000000000000000e+00
6.384000000000000000e+03,2.999999999999999737e-05,4.000000000000000327e-05,-8.000000000000000654e-05,-8.000000000000000654e-05,5.999999999999999474e-05,8.000000000000000654e-05,5.000000000000000240e-05,5.999999999999999474e-05,2.000000000000000000e+00,3.000000000000000000e+00
6.385000000000000000e+03,2.999999999999999737e-05,4.000000000000000327e-05,-8.000000000000000654e-05,-8.000000000000000654e-05,5.999999999999999474e-05,8.000000000000000654e-05,5.000000000000000240e-05,5.999999999999999474e-05,2.000000000000000000e+00,3.000000000000000000e+00
6.386000000000000000e+03,2.999999999999999737e-05,4.000000000000000327e-05,-8.000000000000000654e-05,-8.000000000000000654e-05,5.999999999999999474e-05,8.000000000000000654e-05,5.000000000000000240e-05,5.999999999999999474e-05,2.000000000000000000e+00,3.000000000000000000e+00
6.388000000000000000e+03,2.999999999999999737e-05,4.000000000000000327e-05,-8.000000000000000654e-05,-8.000000000000000654e-05,5.999999999999999474e-05,8.000000000000000654e-05,5.000000000000000240e-05,5.999999999999999474e-05,2.000000000000000000e+00,3.000000000000000000e+00
6.389000000000000000e+03,2.999999999999999737e-05,4.000000000000000327e-05,-8.000000000000000654e-05,-8.000000000000000654e-05,5.999999999999999474e-05,8.000000000000000654e-05,5.000000000000000240e-05,5.999999999999999474e-05,2.000000000000000000e+00,3.000000000000000000e+00
6.390000000000000000e+03,2.999999999999999737e-05,4.000000000000000327e-05,-8.000000000000000654e-05,-8.000000000000000654e-05,5.999999999999999474e-05,8.000000000000000654e-05,5.000000000000000240e-05,5.999999999999999474e-05,2.000000000000000000e+00,3.000000000000000000e+00
6.391000000000000000e+03,2.999999999999999737e-05,4.000000000000000327e-05,-8.000000000000000654e-05,-8.000000000000000654e-05,5.999999999999999474e-05,8.000000000000000654e-05,5.000000000000000240e-05,5.999999999999999474e-05,2.000000000000000000e+00,3.000000000000000000e+00
6.392000000000000000e+03,-5.000000000000000240e-05,-8.000000000000000654e-05,-9.000000000000000567e-05,-1.100000000000000039e-04,2.999999999999999737e-05,-2.000000000000000164e-05,-1.199999999999999895e-04,-6.999999999999999387e-05,2.000000000000000000e+00,3.000000000000000000e+00
6.393000000000000000e+03,-5.000000000000000240e-05,-8.000000000000000654e-05,-9.000000000000000567e-05,-1.100000000000000039e-04,2.999999999999999737e-05,-2.000000000000000164e-05,-1.199999999999999895e-04,-6.999999999999999387e-05,2.000000000000000000e+00,3.000000000000000000e+00
6.394000000000000000e+03,5.999999999999999474e-05,5.999999999999999474e-05,-4.000000000000000327e-05,-2.399999999999999790e-04,-1.300000000000000157e-04,-8.000000000000000654e-05,-4.000000000000000327e-05,-5.000000000000000240e-05,2.000000000000000000e+00,3.000000000000000000e+00
6.395000000000000000e+03,5.999999999999999474e-05,5.999999999999999474e-05,-4.000000000000000327e-05,-2.399999999999999790e-04,-1.300000000000000157e-04,-8.000000000000000654e-05,-4.000000000000000327e-05,-5.000000000000000240e-05,2.000000000000000000e+00,3.000000000000000000e+00
6.396000000000000000e+03,5.999999999999999474e-05,5.999999999999999474e-05,-4.000000000000000327e-05,-2.399999999999999790e-04,-1.300000000000000157e-04,-8.000000000000000654e-05,-4.000000000000000327e-05,-5.000000000000000240e-05,2.000000000000000000e+00,3.000000000000000000e+00
6.397000000000000000e+03,5.999999999999999474e-05,5.999999999999999474e-05,-4.000000000000000327e-05,-2.399999999999999790e-04,-1.300000000000000157e-04,-8.000000000000000654e-05,-4.000000000000000327e-05,-5.000000000000000240e-05,2.000000000000000000e+00,3.000000000000000000e+00
6.398000000000000000e+03,5.999999999999999474e-05,5.999999999999999474e-05,-4.000000000000000327e-05,-2.399999999999999790e-04,-1.300000000000000157e-04,-8.000000000000000654e-05,-4.000000000000000327e-05,-5.000000000000000240e-05,2.000000000000000000e+00,3.000000000000000000e+00
6.399000000000000000e+03,5.999999999999999474e-05,5.999999999999999474e-05,-4.000000000000000327e-05,-2.399999999999999790e-04,-1.300000000000000157e-04,-8.000000000000000654e-05,-4.000000000000000327e-05,-5.000000000000000240e-05,2.000000000000000000e+00,3.000000000000000000e+00
6.400000000000000000e+03,5.999999999999999474e-05,5.999999999999999474e-05,-4.000000000000000327e-05,-2.399999999999999790e-04,-1.300000000000000157e-04,-8.000000000000000654e-05,-4.000000000000000327e-05,-5.000000000000000240e-05,2.000000000000000000e+00,3.000000000000000000e+00
6.401000000000000000e+03,5.999999999999999474e-05,5.999999999999999474e-05,-4.000000000000000327e-05,-2.399999999999999790e-04,-1.300000000000000157e-04,-8.000000000000000654e-05,-4.000000000000000327e-05,-5.000000000000000240e-05,2.000000000000000000e+00,3.000000000000000000e+00
6.402000000000000000e+03,5.999999999999999474e-05,5.999999999999999474e-05,-4.000000000000000327e-05,-2.399999999999999790e-04,-1.300000000000000157e-04,-8.000000000000000654e-05,-4.000000000000000327e-05,-5.000000000000000240e-05,2.000000000000000000e+00,3.000000000000000000e+00
6.403000000000000000e+03,5.999999999999999474e-05,5.999999999999999474e-05,-4.000000000000000327e-05,-2.399999999999999790e-04,-1.300000000000000157e-04,-8.000000000000000654e-05,-4.000000000000000327e-05,-5.000000000000000240e-05,2.000000000000000000e+00,3.000000000000000000e+00
6.404000000000000000e+03,5.999999999999999474e-05,5.999999999999999474e-05,-4.000000000000000327e-05,-2.399999999999999790e-04,-1.300000000000000157e-04,-8.000000000000000654e-05,-4.000000000000000327e-05,-5.000000000000000240e-05,2.000000000000000000e+00,3.000000000000000000e+00
6.405000000000000000e+03,5.999999999999999474e-05,5.999999999999999474e-05,-4.000000000000000327e-05,-2.399999999999999790e-04,-1.300000000000000157e-04,-8.000000000000000654e-05,-4.000000000000000327e-05,-5.000000000000000240e-05,2.000000000000000000e+00,3.000000000000000000e+00
6.406000000000000000e+03,5.999999999999999474e-05,5.999999999999999474e-05,-4.000000000000000327e-05,-2.399999999999999790e-04,-1.300000000000000157e-04,-8.000000000000000654e-05,-4.000000000000000327e-05,-5.000000000000000240e-05,2.000000000000000000e+00,3.000000000000000000e+00
6.407000000000000000e+03,5.999999999999999474e-05,5.999999999999999474e-05,-4.000000000000000327e-05,-2.399999999999999790e-04,-1.300000000000000157e-04,-8.000000000000000654e-05,-4.000000000000000327e-05,-5.000000000000000240e-05,2.000000000000000000e+00,3.000000000000000000e+00
6.408000000000000000e+03,5.999999999999999474e-05,5.999999999999999474e-05,-4.000000000000000327e-05,-2.399999999999999790e-04,-1.300000000000000157e-04,-8.000000000000000654e-05,-4.000000000000000327e-05,-5.000000000000000240e-05,2.000000000000000000e+00,3.000000000000000000e+00
6.409000000000000000e+03,5.999999999999999474e-05,5.999999999999999474e-05,-4.000000000000000327e-05,-2.399999999999999790e-04,-1.300000000000000157e-04,-8.000000000000000654e-05,-4.000000000000000327e-05,-5.000000000000000240e-05,2.000000000000000000e+00,3.000000000000000000e+00
6.410000000000000000e+03,5.999999999999999474e-05,5.999999999999999474e-05,-4.000000000000000327e-05,-2.399999999999999790e-04,-1.300000000000000157e-04,-8.000000000000000654e-05,-4.000000000000000327e-05,-5.000000000000000240e-05,2.000000000000000000e+00,3.000000000000000000e+00
6.411000000000000000e+03,5.999999999999999474e-05,5.999999999999999474e-05,-4.000000000000000327e-05,-2.399999999999999790e-04,-1.300000000000000157e-04,-8.000000000000000654e-05,-4.000000000000000327e-05,-5.000000000000000240e-05,2.000000000000000000e+00,3.000000000000000000e+00
6.412000000000000000e+03,5.999999999999999474e-05,5.999999999999999474e-05,-4.000000000000000327e-05,-2.399999999999999790e-04,-1.300000000000000157e-04,-8.000000000000000654e-05,-4.000000000000000327e-05,-5.000000000000000240e-05,2.000000000000000000e+00,3.000000000000000000e+00
6.413000000000000000e+03,5.999999999999999474e-05,5.999999999999999474e-05,-4.000000000000000327e-05,-2.399999999999999790e-04,-1.300000000000000157e-04,-8.000000000000000654e-05,-4.000000000000000327e-05,-5.000000000000000240e-05,2.000000000000000000e+00,3.000000000000000000e+00
6.414000000000000000e+03,5.999999999999999474e-05,5.999999999999999474e-05,-4.000000000000000327e-05,-2.399999999999999790e-04,-1.300000000000000157e-04,-8.000000000000000654e-05,-4.000000000000000327e-05,-5.000000000000000240e-05,2.000000000000000000e+00,3.000000000000000000e+00
6.415000000000000000e+03,5.999999999999999474e-05,5.999999999999999474e-05,-4.000000000000000327e-05,-2.399999999999999790e-04,-1.300000000000000157e-04,-8.000000000000000654e-05,-4.000000000000000327e-05,-5.000000000000000240e-05,2.000000000000000000e+00,3.000000000000000000e+00
6.416000000000000000e+03,-1.699999999999999851e-04,-2.000000000000000096e-04,-5.000000000000000240e-05,-6.999999999999999387e-05,1.000000000000000082e-05,-1.000000000000000082e-05,-8.000000000000000654e-05,-1.300000000000000157e-04,2.000000000000000000e+00,3.000000000000000000e+00
6.417000000000000000e+03,-1.699999999999999851e-04,-2.000000000000000096e-04,-5.000000000000000240e-05,-6.999999999999999387e-05,1.000000000000000082e-05,-1.000000000000000082e-05,-8.000000000000000654e-05,-1.300000000000000157e-04,2.000000000000000000e+00,3.000000000000000000e+00
6.418000000000000000e+03,-1.699999999999999851e-04,-2.000000000000000096e-04,-5.000000000000000240e-05,-6.999999999999999387e-05,1.000000000000000082e-05,-1.000000000000000082e-05,-8.000000000000000654e-05,-1.300000000000000157e-04,2.000000000000000000e+00,3.000000000000000000e+00
6.419000000000000000e+03,-1.699999999999999851e-04,-2.000000000000000096e-04,-5.000000000000000240e-05,-6.999999999999999387e-05,1.000000000000000082e-05,-1.000000000000000082e-05,-8.000000000000000654e-05,-1.300000000000000157e-04,2.000000000000000000e+00,3.000000000000000000e+00
6.420000000000000000e+03,-1.699999999999999851e-04,-2.000000000000000096e-04,-5.000000000000000240e-05,-6.999999999999999387e-05,1.000000000000000082e-05,-1.000000000000000082e-05,-8.000000000000000654e-05,-1.300000000000000157e-04,2.000000000000000000e+00,3.000000000000000000e+00
6.421000000000000000e+03,-1.699999999999999851e-04,-2.000000000000000096e-04,-5.000000000000000240e-05,-6.999999999999999387e-05,1.000000000000000082e-05,-1.000000000000000082e-05,-8.000000000000000654e-05,-1.300000000000000157e-04,2.000000000000000000e+00,3.000000000000000000e+00
6.422000000000000000e+03,-1.699999999999999851e-04,-2.000000000000000096e-04,-5.000000000000000240e-05,-6.999999999999999387e-05,1.000000000000000082e-05,-1.000000000000000082e-05,-8.000000000000000654e-05,-1.300000000000000157e-04,2.000000000000000000e+00,3.000000000000000000e+00
6.423000000000000000e+03,-1.699999999999999851e-04,-2.000000000000000096e-04,-5.000000000000000240e-05,-6.999999999999999387e-05,1.000000000000000082e-05,-1.000000000000000082e-05,-8.000000000000000654e-05,-1.300000000000000157e-04,2.000000000000000000e+00,3.000000000000000000e+00
6.424000000000000000e+03,-1.699999999999999851e-04,-2.000000000000000096e-04,-5.000000000000000240e-05,-6.999999999999999387e-05,1.000000000000000082e-05,-1.000000000000000082e-05,-8.000000000000000654e-05,-1.300000000000000157e-04,2.000000000000000000e+00,3.000000000000000000e+00
6.425000000000000000e+03,-1.699999999999999851e-04,-2.000000000000000096e-04,-5.000000000000000240e-05,-6.999999999999999387e-05,1.000000000000000082e-05,-1.000000000000000082e-05,-8.000000000000000654e-05,-1.300000000000000157e-04,2.000000000000000000e+00,3.000000000000000000e+00
6.426000000000000000e+03,-1.699999999999999851e-04,-2.000000000000000096e-04,-5.000000000000000240e-05,-6.999999999999999387e-05,1.000000000000000082e-05,-1.000000000000000082e-05,-8.000000000000000654e-05,-1.300000000000000157e-04,2.000000000000000000e+00,3.000000000000000000e+00
6.427000000000000000e+03,-1.699999999999999851e-04,-2.000000000000000096e-04,-5.000000000000000240e-05,-6.999999999999999387e-05,1.000000000000000082e-05,-1.000000000000000082e-05,-8.000000000000000654e-05,-1.300000000000000157e-04,2.000000000000000000e+00,3.000000000000000000e+00
6.428000000000000000e+03,-1.699999999999999851e-04,-2.000000000000000096e-04,-5.000000000000000240e-05,-6.999999999999999387e-05,1.000000000000000082e-05,-1.000000000000000082e-05,-8.000000000000000654e-05,-1.300000000000000157e-04,2.000000000000000000e+00,3.000000000000000000e+00
6.429000000000000000e+03,-1.699999999999999851e-04,-2.000000000000000096e-04,-5.000000000000000240e-05,-6.999999999999999387e-05,1.000000000000000082e-05,-1.000000000000000082e-05,-8.000000000000000654e-05,-1.300000000000000157e-04,2.000000000000000000e+00,3.000000000000000000e+00
6.430000000000000000e+03,1.100000000000000039e-04,5.999999999999999474e-05,-2.999999999999999737e-05,-2.299999999999999799e-04,-9.000000000000000567e-05,0.000000000000000000e+00,4.000000000000000192e-04,1.100000000000000039e-04,2.000000000000000000e+00,3.000000000000000000e+00
6.431000000000000000e+03,-1.499999999999999869e-04,-3.499999999999999964e-04,4.000000000000000327e-05,1.899999999999999834e-04,5.000000000000000240e-05,-2.999999999999999737e-05,-2.000000000000000096e-04,-5.999999999999999474e-05,2.000000000000000000e+00,3.000000000000000000e+00
6.432000000000000000e+03,6.999999999999999387e-05,5.999999999999999474e-05,2.999999999999999737e-05,0.000000000000000000e+00,-6.999999999999999387e-05,-6.999999999999999387e-05,-2.100000000000000087e-04,-1.399999999999999877e-04,2.000000000000000000e+00,3.000000000000000000e+00
6.433000000000000000e+03,6.999999999999999387e-05,5.999999999999999474e-05,2.999999999999999737e-05,0.000000000000000000e+00,-6.999999999999999387e-05,-6.999999999999999387e-05,-2.100000000000000087e-04,-1.399999999999999877e-04,2.000000000000000000e+00,3.000000000000000000e+00
6.434000000000000000e+03,6.999999999999999387e-05,5.999999999999999474e-05,2.999999999999999737e-05,0.000000000000000000e+00,-6.999999999999999387e-05,-6.999999999999999387e-05,-2.100000000000000087e-04,-1.399999999999999877e-04,2.000000000000000000e+00,3.000000000000000000e+00
6.435000000000000000e+03,6.999999999999999387e-05,5.999999999999999474e-05,2.999999999999999737e-05,0.000000000000000000e+00,-6.999999999999999387e-05,-6.999999999999999387e-05,-2.100000000000000087e-04,-1.399999999999999877e-04,2.000000000000000000e+00,3.000000000000000000e+00
6.436000000000000000e+03,6.999999999999999387e-05,5.999999999999999474e-05,2.999999999999999737e-05,0.000000000000000000e+00,-6.999999999999999387e-05,-6.999999999999999387e-05,-2.100000000000000087e-04,-1.399999999999999877e-04,2.000000000000000000e+00,3.000000000000000000e+00
6.438000000000000000e+03,6.999999999999999387e-05,5.999999999999999474e-05,2.999999999999999737e-05,0.000000000000000000e+00,-6.999999999999999387e-05,-6.999999999999999387e-05,-2.100000000000000087e-04,-1.399999999999999877e-04,2.000000000000000000e+00,3.000000000000000000e+00
6.439000000000000000e+03,6.999999999999999387e-05,5.999999999999999474e-05,2.999999999999999737e-05,0.000000000000000000e+00,-6.999999999999999387e-05,-6.999999999999999387e-05,-2.100000000000000087e-04,-1.399999999999999877e-04,2.000000000000000000e+00,3.000000000000000000e+00
6.440000000000000000e+03,6.999999999999999387e-05,5.999999999999999474e-05,2.999999999999999737e-05,0.000000000000000000e+00,-6.999999999999999387e-05,-6.999999999999999387e-05,-2.100000000000000087e-04,-1.399999999999999877e-04,2.000000000000000000e+00,3.000000000000000000e+00
6.441000000000000000e+03,6.999999999999999387e-05,5.999999999999999474e-05,2.999999999999999737e-05,0.000000000000000000e+00,-6.999999999999999387e-05,-6.999999999999999387e-05,-2.100000000000000087e-04,-1.399999999999999877e-04,2.000000000000000000e+00,3.000000000000000000e+00
6.442000000000000000e+03,6.999999999999999387e-05,5.999999999999999474e-05,2.999999999999999737e-05,0.000000000000000000e+00,-6.999999999999999387e-05,-6.999999999999999387e-05,-2.100000000000000087e-04,-1.399999999999999877e-04,2.000000000000000000e+00,3.000000000000000000e+00
6.443000000000000000e+03,6.999999999999999387e-05,5.999999999999999474e-05,2.999999999999999737e-05,0.000000000000000000e+00,-6.999999999999999387e-05,-6.999999999999999387e-05,-2.100000000000000087e-04,-1.399999999999999877e-04,2.000000000000000000e+00,3.000000000000000000e+00
6.444000000000000000e+03,6.999999999999999387e-05,5.999999999999999474e-05,2.999999999999999737e-05,0.000000000000000000e+00,-6.999999999999999387e-05,-6.999999999999999387e-05,-2.100000000000000087e-04,-1.399999999999999877e-04,2.000000000000000000e+00,3.000000000000000000e+00
6.445000000000000000e+03,6.999999999999999387e-05,5.999999999999999474e-05,2.999999999999999737e-05,0.000000000000000000e+00,-6.999999999999999387e-05,-6.999999999999999387e-05,-2.100000000000000087e-04,-1.399999999999999877e-04,2.000000000000000000e+00,3.000000000000000000e+00
6.446000000000000000e+03,6.999999999999999387e-05,5.999999999999999474e-05,2.999999999999999737e-05,0.000000000000000000e+00,-6.999999999999999387e-05,-6.999999999999999387e-05,-2.100000000000000087e-04,-1.399999999999999877e-04,2.000000000000000000e+00,3.000000000000000000e+00
6.447000000000000000e+03,6.999999999999999387e-05,5.999999999999999474e-05,2.999999999999999737e-05,0.000000000000000000e+00,-6.999999999999999387e-05,-6.999999999999999387e-05,-2.100000000000000087e-04,-1.399999999999999877e-04,2.000000000000000000e+00,3.000000000000000000e+00
6.448000000000000000e+03,6.999999999999999387e-05,5.999999999999999474e-05,2.999999999999999737e-05,0.000000000000000000e+00,-6.999999999999999387e-05,-6.999999999999999387e-05,-2.100000000000000087e-04,-1.399999999999999877e-04,2.000000000000000000e+00,3.000000000000000000e+00
6.449000000000000000e+03,6.999999999999999387e-05,5.999999999999999474e-05,2.999999999999999737e-05,0.000000000000000000e+00,-6.999999999999999387e-05,-6.999999999999999387e-05,-2.100000000000000087e-04,-1.399999999999999877e-04,2.000000000000000000e+00,3.000000000000000000e+00
6.450000000000000000e+03,6.999999999999999387e-05,5.999999999999999474e-05,2.999999999999999737e-05,0.000000000000000000e+00,-6.999999999999999387e-05,-6.999999999999999387e-05,-2.100000000000000087e-04,-1.399999999999999877e-04,2.000000000000000000e+00,3.000000000000000000e+00
6.451000000000000000e+03,6.999999999999999387e-05,5.999999999999999474e-05,2.999999999999999737e-05,0.000000000000000000e+00,-6.999999999999999387e-05,-6.999999999999999387e-05,-2.100000000000000087e-04,-1.399999999999999877e-04,2.000000000000000000e+00,3.000000000000000000e+00
6.452000000000000000e+03,2.000000000000000164e-05,9.000000000000000567e-05,2.999999999999999737e-05,-1.100000000000000039e-04,-2.999999999999999737e-05,-1.000000000000000082e-05,-1.000000000000000082e-05,-4.000000000000000327e-05,2.000000000000000000e+00,3.000000000000000000e+00
6.453000000000000000e+03,2.000000000000000164e-05,9.000000000000000567e-05,2.999999999999999737e-05,-1.100000000000000039e-04,-2.999999999999999737e-05,-1.000000000000000082e-05,-1.000000000000000082e-05,-4.000000000000000327e-05,2.000000000000000000e+00,3.000000000000000000e+00
6.454000000000000000e+03,1.000000000000000082e-05,-2.999999999999999737e-05,1.300000000000000157e-04,5.500000000000000331e-04,2.999999999999999737e-05,2.999999999999999737e-05,1.199999999999999895e-04,5.000000000000000240e-05,2.000000000000000000e+00,3.000000000000000000e+00
6.455000000000000000e+03,1.000000000000000082e-05,-2.999999999999999737e-05,1.300000000000000157e-04,5.500000000000000331e-04,2.999999999999999737e-05,2.999999999999999737e-05,1.199999999999999895e-04,5.000000000000000240e-05,2.000000000000000000e+00,3.000000000000000000e+00
6.456000000000000000e+03,1.000000000000000082e-05,-2.999999999999999737e-05,1.300000000000000157e-04,5.500000000000000331e-04,2.999999999999999737e-05,2.999999999999999737e-05,1.199999999999999895e-04,5.000000000000000240e-05,2.000000000000000000e+00,3.000000000000000000e+00
6.457000000000000000e+03,1.000000000000000082e-05,-2.999999999999999737e-05,1.300000000000000157e-04,5.500000000000000331e-04,2.999999999999999737e-05,2.999999999999999737e-05,1.199999999999999895e-04,5.000000000000000240e-05,2.000000000000000000e+00,3.000000000000000000e+00
6.458000000000000000e+03,1.000000000000000082e-05,-2.999999999999999737e-05,1.300000000000000157e-04,5.500000000000000331e-04,2.999999999999999737e-05,2.999999999999999737e-05,1.199999999999999895e-04,5.000000000000000240e-05,2.000000000000000000e+00,3.000000000000000000e+00
6.459000000000000000e+03,1.000000000000000082e-05,-2.999999999999999737e-05,1.300000000000000157e-04,5.500000000000000331e-04,2.999999999999999737e-05,2.999999999999999737e-05,1.199999999999999895e-04,5.000000000000000240e-05,2.000000000000000000e+00,3.000000000000000000e+00
6.460000000000000000e+03,1.000000000000000082e-05,-2.999999999999999737e-05,1.300000000000000157e-04,5.500000000000000331e-04,2.999999999999999737e-05,2.999999999999999737e-05,1.199999999999999895e-04,5.000000000000000240e-05,2.000000000000000000e+00,3.000000000000000000e+00
6.461000000000000000e+03,1.000000000000000082e-05,-2.999999999999999737e-05,1.300000000000000157e-04,5.500000000000000331e-04,2.999999999999999737e-05,2.999999999999999737e-05,1.199999999999999895e-04,5.000000000000000240e-05,2.000000000000000000e+00,3.000000000000000000e+00
6.462000000000000000e+03,1.000000000000000082e-05,-2.999999999999999737e-05,1.300000000000000157e-04,5.500000000000000331e-04,2.999999999999999737e-05,2.999999999999999737e-05,1.199999999999999895e-04,5.000000000000000240e-05,2.000000000000000000e+00,3.000000000000000000e+00
6.463000000000000000e+03,1.000000000000000082e-05,-2.999999999999999737e-05,1.300000000000000157e-04,5.500000000000000331e-04,2.999999999999999737e-05,2.999999999999999737e-05,1.199999999999999895e-04,5.000000000000000240e-05,2.000000000000000000e+00,3.000000000000000000e+00
6.464000000000000000e+03,1.000000000000000082e-05,-2.999999999999999737e-05,1.300000000000000157e-04,5.500000000000000331e-04,2.999999999999999737e-05,2.999999999999999737e-05,1.199999999999999895e-04,5.000000000000000240e-05,2.000000000000000000e+00,3.000000000000000000e+00
6.465000000000000000e+03,1.000000000000000082e-05,-2.999999999999999737e-05,1.300000000000000157e-04,5.500000000000000331e-04,2.999999999999999737e-05,2.999999999999999737e-05,1.199999999999999895e-04,5.000000000000000240e-05,2.000000000000000000e+00,3.000000000000000000e+00
6.466000000000000000e+03,1.000000000000000082e-05,-2.999999999999999737e-05,1.300000000000000157e-04,5.500000000000000331e-04,2.999999999999999737e-05,2.999999999999999737e-05,1.199999999999999895e-04,5.000000000000000240e-05,2.000000000000000000e+00,3.000000000000000000e+00
6.467000000000000000e+03,1.000000000000000082e-05,-2.999999999999999737e-05,1.300000000000000157e-04,5.500000000000000331e-04,2.999999999999999737e-05,2.999999999999999737e-05,1.199999999999999895e-04,5.000000000000000240e-05,2.000000000000000000e+00,3.000000000000000000e+00
6.468000000000000000e+03,1.000000000000000082e-05,-2.999999999999999737e-05,1.300000000000000157e-04,5.500000000000000331e-04,2.999999999999999737e-05,2.999999999999999737e-05,1.199999999999999895e-04,5.000000000000000240e-05,2.000000000000000000e+00,3.000000000000000000e+00
6.469000000000000000e+03,1.000000000000000082e-05,-2.999999999999999737e-05,1.300000000000000157e-04,5.500000000000000331e-04,2.999999999999999737e-05,2.999999999999999737e-05,1.199999999999999895e-04,5.000000000000000240e-05,2.000000000000000000e+00,3.000000000000000000e+00
6.470000000000000000e+03,1.000000000000000082e-05,-2.999999999999999737e-05,1.300000000000000157e-04,5.500000000000000331e-04,2.999999999999999737e-05,2.999999999999999737e-05,1.199999999999999895e-04,5.000000000000000240e-05,2.000000000000000000e+00,3.000000000000000000e+00
6.471000000000000000e+03,1.000000000000000082e-05,-2.999999999999999737e-05,1.300000000000000157e-04,5.500000000000000331e-04,2.999999999999999737e-05,2.999999999999999737e-05,1.199999999999999895e-04,5.000000000000000240e-05,2.000000000000000000e+00,3.000000000000000000e+00
6.472000000000000000e+03,1.000000000000000082e-05,-2.999999999999999737e-05,1.300000000000000157e-04,5.500000000000000331e-04,2.999999999999999737e-05,2.999999999999999737e-05,1.199999999999999895e-04,5.000000000000000240e-05,2.000000000000000000e+00,3.000000000000000000e+00
6.473000000000000000e+03,1.000000000000000082e-05,-2.999999999999999737e-05,1.300000000000000157e-04,5.500000000000000331e-04,2.999999999999999737e-05,2.999999999999999737e-05,1.199999999999999895e-04,5.000000000000000240e-05,2.000000000000000000e+00,3.000000000000000000e+00
6.474000000000000000e+03,1.000000000000000082e-05,-2.999999999999999737e-05,1.300000000000000157e-04,5.500000000000000331e-04,2.999999999999999737e-05,2.999999999999999737e-05,1.199999999999999895e-04,5.000000000000000240e-05,2.000000000000000000e+00,3.000000000000000000e+00
6.475000000000000000e+03,-9.000000000000000567e-05,-9.000000000000000567e-05,-1.199999999999999895e-04,-2.999999999999999737e-04,-6.999999999999999387e-05,-9.000000000000000567e-05,-3.699999999999999947e-04,-9.000000000000000567e-05,2.000000000000000000e+00,3.000000000000000000e+00
6.476000000000000000e+03,1.000000000000000082e-05,2.000000000000000164e-05,2.000000000000000164e-05,-1.000000000000000048e-04,-1.399999999999999877e-04,-1.000000000000000082e-05,5.099999999999999282e-04,1.000000000000000048e-04,2.000000000000000000e+00,3.000000000000000000e+00
6.477000000000000000e+03,-1.100000000000000039e-04,-5.000000000000000240e-05,-9.000000000000000567e-05,1.000000000000000048e-04,2.999999999999999737e-05,-1.000000000000000082e-05,1.000000000000000082e-05,-5.000000000000000240e-05,2.000000000000000000e+00,3.000000000000000000e+00
6.478000000000000000e+03,-1.100000000000000039e-04,-5.000000000000000240e-05,-9.000000000000000567e-05,1.000000000000000048e-04,2.999999999999999737e-05,-1.000000000000000082e-05,1.000000000000000082e-05,-5.000000000000000240e-05,2.000000000000000000e+00,3.000000000000000000e+00
6.479000000000000000e+03,-1.100000000000000039e-04,-5.000000000000000240e-05,-9.000000000000000567e-05,1.000000000000000048e-04,2.999999999999999737e-05,-1.000000000000000082e-05,1.000000000000000082e-05,-5.000000000000000240e-05,2.000000000000000000e+00,3.000000000000000000e+00
6.480000000000000000e+03,-1.100000000000000039e-04,-5.000000000000000240e-05,-9.000000000000000567e-05,1.000000000000000048e-04,2.999999999999999737e-05,-1.000000000000000082e-05,1.000000000000000082e-05,-5.000000000000000240e-05,2.000000000000000000e+00,3.000000000000000000e+00
6.481000000000000000e+03,-1.100000000000000039e-04,-5.000000000000000240e-05,-9.000000000000000567e-05,1.000000000000000048e-04,2.999999999999999737e-05,-1.000000000000000082e-05,1.000000000000000082e-05,-5.000000000000000240e-05,2.000000000000000000e+00,3.000000000000000000e+00
6.482000000000000000e+03,-1.100000000000000039e-04,-5.000000000000000240e-05,-9.000000000000000567e-05,1.000000000000000048e-04,2.999999999999999737e-05,-1.000000000000000082e-05,1.000000000000000082e-05,-5.000000000000000240e-05,2.000000000000000000e+00,3.000000000000000000e+00
6.483000000000000000e+03,-1.100000000000000039e-04,-5.000000000000000240e-05,-9.000000000000000567e-05,1.000000000000000048e-04,2.999999999999999737e-05,-1.000000000000000082e-05,1.000000000000000082e-05,-5.000000000000000240e-05,2.000000000000000000e+00,3.000000000000000000e+00
6.484000000000000000e+03,-1.100000000000000039e-04,-5.000000000000000240e-05,-9.000000000000000567e-05,1.000000000000000048e-04,2.999999999999999737e-05,-1.000000000000000082e-05,1.000000000000000082e-05,-5.000000000000000240e-05,2.000000000000000000e+00,3.000000000000000000e+00
6.485000000000000000e+03,-1.100000000000000039e-04,-5.000000000000000240e-05,-9.000000000000000567e-05,1.000000000000000048e-04,2.999999999999999737e-05,-1.000000000000000082e-05,1.000000000000000082e-05,-5.000000000000000240e-05,2.000000000000000000e+00,3.000000000000000000e+00
6.486000000000000000e+03,-1.100000000000000039e-04,-5.000000000000000240e-05,-9.000000000000000567e-05,1.000000000000000048e-04,2.999999999999999737e-05,-1.000000000000000082e-05,1.000000000000000082e-05,-5.000000000000000240e-05,2.000000000000000000e+00,3.000000000000000000e+00
6.489000000000000000e+03,-1.100000000000000039e-04,-5.000000000000000240e-05,-9.000000000000000567e-05,1.000000000000000048e-04,2.999999999999999737e-05,-1.000000000000000082e-05,1.000000000000000082e-05,-5.000000000000000240e-05,2.000000000000000000e+00,3.000000000000000000e+00
6.490000000000000000e+03,-2.000000000000000164e-05,-1.199999999999999895e-04,1.100000000000000039e-04,3.200000000000000262e-04,-2.999999999999999737e-05,2.000000000000000164e-05,2.999999999999999737e-04,-1.000000000000000082e-05,2.000000000000000000e+00,3.000000000000000000e+00
6.491000000000000000e+03,-1.000000000000000048e-04,2.000000000000000164e-05,-1.899999999999999834e-04,-2.399999999999999790e-04,-1.100000000000000039e-04,-2.999999999999999737e-05,-1.199999999999999895e-04,-1.100000000000000039e-04,2.000000000000000000e+00,3.000000000000000000e+00
6.492000000000000000e+03,1.000000000000000082e-05,1.199999999999999895e-04,5.999999999999999474e-05,2.000000000000000096e-04,1.100000000000000039e-04,-2.000000000000000164e-05,1.800000000000000113e-04,5.000000000000000240e-05,2.000000000000000000e+00,3.000000000000000000e+00
6.493000000000000000e+03,1.000000000000000082e-05,1.199999999999999895e-04,5.999999999999999474e-05,2.000000000000000096e-04,1.100000000000000039e-04,-2.000000000000000164e-05,1.800000000000000113e-04,5.000000000000000240e-05,2.000000000000000000e+00,3.000000000000000000e+00
6.494000000000000000e+03,1.000000000000000082e-05,1.199999999999999895e-04,5.999999999999999474e-05,2.000000000000000096e-04,1.100000000000000039e-04,-2.000000000000000164e-05,1.800000000000000113e-04,5.000000000000000240e-05,2.000000000000000000e+00,3.000000000000000000e+00
6.495000000000000000e+03,1.000000000000000082e-05,1.199999999999999895e-04,5.999999999999999474e-05,2.000000000000000096e-04,1.100000000000000039e-04,-2.000000000000000164e-05,1.800000000000000113e-04,5.000000000000000240e-05,2.000000000000000000e+00,3.000000000000000000e+00
