4.912700000000000000e+04,-1.100000000000000039e-04,-4.000000000000000327e-05,-2.000000000000000164e-05,5.000000000000000240e-05,-2.000000000000000096e-04,5.999999999999999474e-05,9.000000000000000567e-05,-1.399999999999999877e-04,6.000000000000000000e+00,2.300000000000000000e+01
4.912800000000000000e+04,-9.000000000000000567e-05,-1.000000000000000082e-05,-4.000000000000000327e-05,-1.000000000000000048e-04,-3.600000000000000227e-04,1.199999999999999895e-04,-5.000000000000000240e-05,-1.600000000000000131e-04,6.000000000000000000e+00,2.300000000000000000e+01
4.912900000000000000e+04,-9.000000000000000567e-05,-1.000000000000000082e-05,-4.000000000000000327e-05,-1.000000000000000048e-04,-3.600000000000000227e-04,1.199999999999999895e-04,-5.000000000000000240e-05,-1.600000000000000131e-04,6.000000000000000000e+00,2.300000000000000000e+01
4.913000000000000000e+04,-9.000000000000000567e-05,-1.000000000000000082e-05,-4.000000000000000327e-05,-1.000000000000000048e-04,-3.600000000000000227e-04,1.199999999999999895e-04,-5.000000000000000240e-05,-1.600000000000000131e-04,6.000000000000000000e+00,2.300000000000000000e+01
4.913100000000000000e+04,-9.000000000000000567e-05,-1.000000000000000082e-05,-4.000000000000000327e-05,-1.000000000000000048e-04,-3.600000000000000227e-04,1.199999999999999895e-04,-5.000000000000000240e-05,-1.600000000000000131e-04,6.000000000000000000e+00,2.300000000000000000e+01
4.913200000000000000e+04,-9.000000000000000567e-05,-1.000000000000000082e-05,-4.000000000000000327e-05,-1.000000000000000048e-04,-3.600000000000000227e-04,1.199999999999999895e-04,-5.000000000000000240e-05,-1.600000000000000131e-04,6.000000000000000000e+00,2.300000000000000000e+01
4.913300000000000000e+04,-9.000000000000000567e-05,-1.000000000000000082e-05,-4.000000000000000327e-05,-1.000000000000000048e-04,-3.600000000000000227e-04,1.199999999999999895e-04,-5.000000000000000240e-05,-1.600000000000000131e-04,6.000000000000000000e+00,2.300000000000000000e+01
4.913400000000000000e+04,-9.000000000000000567e-05,-1.000000000000000082e-05,-4.000000000000000327e-05,-1.000000000000000048e-04,-3.600000000000000227e-04,1.199999999999999895e-04,-5.000000000000000240e-05,-1.600000000000000131e-04,6.000000000000000000e+00,2.300000000000000000e+01
4.913500000000000000e+04,-9.000000000000000567e-05,-1.000000000000000082e-05,-4.000000000000000327e-05,-1.000000000000000048e-04,-3.600000000000000227e-04,1.199999999999999895e-04,-5.000000000000000240e-05,-1.600000000000000131e-04,6.000000000000000000e+00,2.300000000000000000e+01
4.913600000000000000e+04,-9.000000000000000567e-05,-1.000000000000000082e-05,-4.000000000000000327e-05,-1.000000000000000048e-04,-3.600000000000000227e-04,1.199999999999999895e-04,-5.000000000000000240e-05,-1.600000000000000131e-04,6.000000000000000000e+00,2.300000000000000000e+01
4.913800000000000000e+04,-9.000000000000000567e-05,-1.000000000000000082e-05,-4.000000000000000327e-05,-1.000000000000000048e-04,-3.600000000000000227e-04,1.199999999999999895e-04,-5.000000000000000240e-05,-1.600000000000000131e-04,6.000000000000000000e+00,2.300000000000000000e+01
4.913900000000000000e+04,-9.000000000000000567e-05,-1.000000000000000082e-05,-4.000000000000000327e-05,-1.000000000000000048e-04,-3.600000000000000227e-04,1.199999999999999895e-04,-5.000000000000000240e-05,-1.600000000000000131e-04,6.000000000000000000e+00,2.300000000000000000e+01
4.914000000000000000e+04,-9.000000000000000567e-05,-1.000000000000000082e-05,-4.000000000000000327e-05,-1.000000000000000048e-04,-3.600000000000000227e-04,1.199999999999999895e-04,-5.000000000000000240e-05,-1.600000000000000131e-04,6.000000000000000000e+00,2.300000000000000000e+01
4.914100000000000000e+04,-9.000000000000000567e-05,-1.000000000000000082e-05,-4.000000000000000327e-05,-1.000000000000000048e-04,-3.600000000000000227e-04,1.199999999999999895e-04,-5.000000000000000240e-05,-1.600000000000000131e-04,6.000000000000000000e+00,2.300000000000000000e+01
4.914200000000000000e+04,-9.000000000000000567e-05,-1.000000000000000082e-05,-4.000000000000000327e-05,-1.000000000000000048e-04,-3.600000000000000227e-04,1.199999999999999895e-04,-5.000000000000000240e-05,-1.600000000000000131e-04,6.000000000000000000e+00,2.300000000000000000e+01
4.914300000000000000e+04,-9.000000000000000567e-05,-1.000000000000000082e-05,-4.000000000000000327e-05,-1.000000000000000048e-04,-3.600000000000000227e-04,1.199999999999999895e-04,-5.000000000000000240e-05,-1.600000000000000131e-04,6.000000000000000000e+00,2.300000000000000000e+01
4.914400000000000000e+04,-9.000000000000000567e-05,-1.000000000000000082e-05,-4.000000000000000327e-05,-1.000000000000000048e-04,-3.600000000000000227e-04,1.199999999999999895e-04,-5.000000000000000240e-05,-1.600000000000000131e-04,6.000000000000000000e+00,2.300000000000000000e+01
4.914500000000000000e+04,-9.000000000000000567e-05,-1.000000000000000082e-05,-4.000000000000000327e-05,-1.000000000000000048e-04,-3.600000000000000227e-04,1.199999999999999895e-04,-5.000000000000000240e-05,-1.600000000000000131e-04,6.000000000000000000e+00,2.300000000000000000e+01
4.914600000000000000e+04,-9.000000000000000567e-05,-1.000000000000000082e-05,-4.000000000000000327e-05,-1.000000000000000048e-04,-3.600000000000000227e-04,1.199999999999999895e-04,-5.000000000000000240e-05,-1.600000000000000131e-04,6.000000000000000000e+00,2.300000000000000000e+01
4.914700000000000000e+04,-9.000000000000000567e-05,-1.000000000000000082e-05,-4.000000000000000327e-05,-1.000000000000000048e-04,-3.600000000000000227e-04,1.199999999999999895e-04,-5.000000000000000240e-05,-1.600000000000000131e-04,6.000000000000000000e+00,2.300000000000000000e+01
4.914800000000000000e+04,-9.000000000000000567e-05,-1.000000000000000082e-05,-4.000000000000000327e-05,-1.000000000000000048e-04,-3.600000000000000227e-04,1.199999999999999895e-04,-5.000000000000000240e-05,-1.600000000000000131e-04,6.000000000000000000e+00,2.300000000000000000e+01
4.914900000000000000e+04,6.999999999999999387e-05,2.000000000000000164e-05,-2.999999999999999737e-05,-2.999999999999999737e-05,8.000000000000000654e-05,-3.799999999999999667e-04,-3.299999999999999982e-04,-4.599999999999999597e-04,6.000000000000000000e+00,2.300000000000000000e+01
4.915000000000000000e+04,1.399999999999999877e-04,-2.999999999999999737e-05,1.000000000000000082e-05,-2.999999999999999737e-05,-9.000000000000000567e-05,-1.600000000000000131e-04,1.100000000000000039e-04,5.699999999999999772e-04,6.000000000000000000e+00,2.300000000000000000e+01
4.915100000000000000e+04,1.399999999999999877e-04,-2.999999999999999737e-05,1.000000000000000082e-05,-2.999999999999999737e-05,-9.000000000000000567e-05,-1.600000000000000131e-04,1.100000000000000039e-04,5.699999999999999772e-04,6.000000000000000000e+00,2.300000000000000000e+01
4.915200000000000000e+04,1.399999999999999877e-04,-2.999999999999999737e-05,1.000000000000000082e-05,-2.999999999999999737e-05,-9.000000000000000567e-05,-1.600000000000000131e-04,1.100000000000000039e-04,5.699999999999999772e-04,6.000000000000000000e+00,2.300000000000000000e+01
4.915300000000000000e+04,1.399999999999999877e-04,-2.999999999999999737e-05,1.000000000000000082e-05,-2.999999999999999737e-05,-9.000000000000000567e-05,-1.600000000000000131e-04,1.100000000000000039e-04,5.699999999999999772e-04,6.000000000000000000e+00,2.300000000000000000e+01
4.915400000000000000e+04,1.399999999999999877e-04,-2.999999999999999737e-05,1.000000000000000082e-05,-2.999999999999999737e-05,-9.000000000000000567e-05,-1.600000000000000131e-04,1.100000000000000039e-04,5.699999999999999772e-04,6.000000000000000000e+00,2.300000000000000000e+01
4.915500000000000000e+04,1.399999999999999877e-04,-2.999999999999999737e-05,1.000000000000000082e-05,-2.999999999999999737e-05,-9.000000000000000567e-05,-1.600000000000000131e-04,1.100000000000000039e-04,5.699999999999999772e-04,6.000000000000000000e+00,2.300000000000000000e+01
4.915600000000000000e+04,1.399999999999999877e-04,-2.999999999999999737e-05,1.000000000000000082e-05,-2.999999999999999737e-05,-9.000000000000000567e-05,-1.600000000000000131e-04,1.100000000000000039e-04,5.699999999999999772e-04,6.000000000000000000e+00,2.300000000000000000e+01
4.915700000000000000e+04,1.399999999999999877e-04,-2.999999999999999737e-05,1.000000000000000082e-05,-2.999999999999999737e-05,-9.000000000000000567e-05,-1.600000000000000131e-04,1.100000000000000039e-04,5.699999999999999772e-04,6.000000000000000000e+00,2.300000000000000000e+01
4.915800000000000000e+04,1.399999999999999877e-04,-2.999999999999999737e-05,1.000000000000000082e-05,-2.999999999999999737e-05,-9.000000000000000567e-05,-1.600000000000000131e-04,1.100000000000000039e-04,5.699999999999999772e-04,6.000000000000000000e+00,2.300000000000000000e+01
4.915900000000000000e+04,1.399999999999999877e-04,-2.999999999999999737e-05,1.000000000000000082e-05,-2.999999999999999737e-05,-9.000000000000000567e-05,-1.600000000000000131e-04,1.100000000000000039e-04,5.699999999999999772e-04,6.000000000000000000e+00,2.300000000000000000e+01
4.916000000000000000e+04,1.399999999999999877e-04,-2.999999999999999737e-05,1.000000000000000082e-05,-2.999999999999999737e-05,-9.000000000000000567e-05,-1.600000000000000131e-04,1.100000000000000039e-04,5.699999999999999772e-04,6.000000000000000000e+00,2.300000000000000000e+01
4.916100000000000000e+04,1.399999999999999877e-04,-2.999999999999999737e-05,1.000000000000000082e-05,-2.999999999999999737e-05,-9.000000000000000567e-05,-1.600000000000000131e-04,1.100000000000000039e-04,5.699999999999999772e-04,6.000000000000000000e+00,2.300000000000000000e+01
4.916200000000000000e+04,1.399999999999999877e-04,-2.999999999999999737e-05,1.000000000000000082e-05,-2.999999999999999737e-05,-9.000000000000000567e-05,-1.600000000000000131e-04,1.100000000000000039e-04,5.699999999999999772e-04,6.000000000000000000e+00,2.300000000000000000e+01
4.916300000000000000e+04,2.999999999999999737e-05,5.999999999999999474e-05,5.000000000000000240e-05,-2.999999999999999737e-05,-1.000000000000000048e-04,4.000000000000000327e-05,1.000000000000000048e-04,5.999999999999999474e-05,6.000000000000000000e+00,2.300000000000000000e+01
4.916400000000000000e+04,2.999999999999999737e-05,5.999999999999999474e-05,5.000000000000000240e-05,-2.999999999999999737e-05,-1.000000000000000048e-04,4.000000000000000327e-05,1.000000000000000048e-04,5.999999999999999474e-05,6.000000000000000000e+00,2.300000000000000000e+01
4.916500000000000000e+04,2.999999999999999737e-05,5.999999999999999474e-05,5.000000000000000240e-05,-2.999999999999999737e-05,-1.000000000000000048e-04,4.000000000000000327e-05,1.000000000000000048e-04,5.999999999999999474e-05,6.000000000000000000e+00,2.300000000000000000e+01
4.916600000000000000e+04,2.999999999999999737e-05,5.999999999999999474e-05,5.000000000000000240e-05,-2.999999999999999737e-05,-1.000000000000000048e-04,4.000000000000000327e-05,1.000000000000000048e-04,5.999999999999999474e-05,6.000000000000000000e+00,2.300000000000000000e+01
4.916700000000000000e+04,2.999999999999999737e-05,5.999999999999999474e-05,5.000000000000000240e-05,-2.999999999999999737e-05,-1.000000000000000048e-04,4.000000000000000327e-05,1.000000000000000048e-04,5.999999999999999474e-05,6.000000000000000000e+00,2.300000000000000000e+01
4.916800000000000000e+04,2.999999999999999737e-05,5.999999999999999474e-05,5.000000000000000240e-05,-2.999999999999999737e-05,-1.000000000000000048e-04,4.000000000000000327e-05,1.000000000000000048e-04,5.999999999999999474e-05,6.000000000000000000e+00,2.300000000000000000e+01
4.916900000000000000e+04,2.999999999999999737e-05,5.999999999999999474e-05,5.000000000000000240e-05,-2.999999999999999737e-05,-1.000000000000000048e-04,4.000000000000000327e-05,1.000000000000000048e-04,5.999999999999999474e-05,6.000000000000000000e+00,2.300000000000000000e+01
4.917000000000000000e+04,-2.999999999999999737e-05,2.000000000000000164e-05,-2.000000000000000164e-05,-6.999999999999999387e-05,-3.899999999999999929e-04,1.000000000000000048e-04,-2.000000000000000096e-04,-4.899999999999999842e-04,6.000000000000000000e+00,2.300000000000000000e+01
4.917100000000000000e+04,-2.999999999999999737e-05,2.000000000000000164e-05,-2.000000000000000164e-05,-6.999999999999999387e-05,-3.899999999999999929e-04,1.000000000000000048e-04,-2.000000000000000096e-04,-4.899999999999999842e-04,6.000000000000000000e+00,2.300000000000000000e+01
4.917200000000000000e+04,-2.999999999999999737e-05,2.000000000000000164e-05,-2.000000000000000164e-05,-6.999999999999999387e-05,-3.899999999999999929e-04,1.000000000000000048e-04,-2.000000000000000096e-04,-4.899999999999999842e-04,6.000000000000000000e+00,2.300000000000000000e+01
4.917300000000000000e+04,-2.999999999999999737e-05,2.000000000000000164e-05,-2.000000000000000164e-05,-6.999999999999999387e-05,-3.899999999999999929e-04,1.000000000000000048e-04,-2.000000000000000096e-04,-4.899999999999999842e-04,6.000000000000000000e+00,2.300000000000000000e+01
4.917400000000000000e+04,-2.999999999999999737e-05,2.000000000000000164e-05,-2.000000000000000164e-05,-6.999999999999999387e-05,-3.899999999999999929e-04,1.000000000000000048e-04,-2.000000000000000096e-04,-4.899999999999999842e-04,6.000000000000000000e+00,2.300000000000000000e+01
4.917500000000000000e+04,-2.999999999999999737e-05,2.000000000000000164e-05,-2.000000000000000164e-05,-6.999999999999999387e-05,-3.899999999999999929e-04,1.000000000000000048e-04,-2.000000000000000096e-04,-4.899999999999999842e-04,6.000000000000000000e+00,2.300000000000000000e+01
4.917600000000000000e+04,-2.999999999999999737e-05,2.000000000000000164e-05,-2.000000000000000164e-05,-6.999999999999999387e-05,-3.899999999999999929e-04,1.000000000000000048e-04,-2.000000000000000096e-04,-4.899999999999999842e-04,6.000000000000000000e+00,2.300000000000000000e+01
4.917700000000000000e+04,-2.999999999999999737e-05,2.000000000000000164e-05,-2.000000000000000164e-05,-6.999999999999999387e-05,-3.899999999999999929e-04,1.000000000000000048e-04,-2.000000000000000096e-04,-4.899999999999999842e-04,6.000000000000000000e+00,2.300000000000000000e+01
4.917800000000000000e+04,-2.999999999999999737e-05,2.000000000000000164e-05,-2.000000000000000164e-05,-6.999999999999999387e-05,-3.899999999999999929e-04,1.000000000000000048e-04,-2.000000000000000096e-04,-4.899999999999999842e-04,6.000000000000000000e+00,2.300000000000000000e+01
4.917900000000000000e+04,-2.999999999999999737e-05,2.000000000000000164e-05,-2.000000000000000164e-05,-6.999999999999999387e-05,-3.899999999999999929e-04,1.000000000000000048e-04,-2.000000000000000096e-04,-4.899999999999999842e-04,6.000000000000000000e+00,2.300000000000000000e+01
4.918000000000000000e+04,-2.999999999999999737e-05,2.000000000000000164e-05,-2.000000000000000164e-05,-6.999999999999999387e-05,-3.899999999999999929e-04,1.000000000000000048e-04,-2.000000000000000096e-04,-4.899999999999999842e-04,6.000000000000000000e+00,2.300000000000000000e+01
4.918100000000000000e+04,-2.999999999999999737e-05,2.000000000000000164e-05,-2.000000000000000164e-05,-6.999999999999999387e-05,-3.899999999999999929e-04,1.000000000000000048e-04,-2.000000000000000096e-04,-4.899999999999999842e-04,6.000000000000000000e+00,2.300000000000000000e+01
4.918200000000000000e+04,-2.999999999999999737e-05,2.000000000000000164e-05,-2.000000000000000164e-05,-6.999999999999999387e-05,-3.899999999999999929e-04,1.000000000000000048e-04,-2.000000000000000096e-04,-4.899999999999999842e-04,6.000000000000000000e+00,2.300000000000000000e+01
4.918300000000000000e+04,-2.999999999999999737e-05,2.000000000000000164e-05,-2.000000000000000164e-05,-6.999999999999999387e-05,-3.899999999999999929e-04,1.000000000000000048e-04,-2.000000000000000096e-04,-4.899999999999999842e-04,6.000000000000000000e+00,2.300000000000000000e+01
4.918400000000000000e+04,-2.999999999999999737e-05,2.000000000000000164e-05,-2.000000000000000164e-05,-6.999999999999999387e-05,-3.899999999999999929e-04,1.000000000000000048e-04,-2.000000000000000096e-04,-4.899999999999999842e-04,6.000000000000000000e+00,2.300000000000000000e+01
4.918500000000000000e+04,-2.999999999999999737e-05,2.000000000000000164e-05,-2.000000000000000164e-05,-6.999999999999999387e-05,-3.899999999999999929e-04,1.000000000000000048e-04,-2.000000000000000096e-04,-4.899999999999999842e-04,6.000000000000000000e+00,2.300000000000000000e+01
4.918600000000000000e+04,-2.000000000000000164e-05,-2.000000000000000164e-05,-4.000000000000000327e-05,-5.000000000000000240e-05,1.199999999999999895e-04,7.200000000000000453e-04,1.000000000000000082e-05,-1.600000000000000131e-04,6.000000000000000000e+00,2.300000000000000000e+01
4.918800000000000000e+04,-1.199999999999999895e-04,-1.000000000000000082e-05,0.000000000000000000e+00,1.000000000000000082e-05,3.699999999999999947e-04,-2.200000000000000078e-04,-1.100000000000000039e-04,-8.000000000000000654e-05,6.000000000000000000e+00,2.300000000000000000e+01
4.918900000000000000e+04,-1.199999999999999895e-04,-1.000000000000000082e-05,0.000000000000000000e+00,1.000000000000000082e-05,3.699999999999999947e-04,-2.200000000000000078e-04,-1.100000000000000039e-04,-8.000000000000000654e-05,6.000000000000000000e+00,2.300000000000000000e+01
4.919000000000000000e+04,-1.199999999999999895e-04,-1.000000000000000082e-05,0.000000000000000000e+00,1.000000000000000082e-05,3.699999999999999947e-04,-2.200000000000000078e-04,-1.100000000000000039e-04,-8.000000000000000654e-05,6.000000000000000000e+00,2.300000000000000000e+01
4.919100000000000000e+04,-1.199999999999999895e-04,-1.000000000000000082e-05,0.000000000000000000e+00,1.000000000000000082e-05,3.699999999999999947e-04,-2.200000000000000078e-04,-1.100000000000000039e-04,-8.000000000000000654e-05,6.000000000000000000e+00,2.300000000000000000e+01
4.919200000000000000e+04,-1.199999999999999895e-04,-1.000000000000000082e-05,0.000000000000000000e+00,1.000000000000000082e-05,3.699999999999999947e-04,-2.200000000000000078e-04,-1.100000000000000039e-04,-8.000000000000000654e-05,6.000000000000000000e+00,2.300000000000000000e+01
4.919300000000000000e+04,-1.199999999999999895e-04,-1.000000000000000082e-05,0.000000000000000000e+00,1.000000000000000082e-05,3.699999999999999947e-04,-2.200000000000000078e-04,-1.100000000000000039e-04,-8.000000000000000654e-05,6.000000000000000000e+00,2.300000000000000000e+01
4.919400000000000000e+04,-1.199999999999999895e-04,-1.000000000000000082e-05,0.000000000000000000e+00,1.000000000000000082e-05,3.699999999999999947e-04,-2.200000000000000078e-04,-1.100000000000000039e-04,-8.000000000000000654e-05,6.000000000000000000e+00,2.300000000000000000e+01
4.919500000000000000e+04,-1.199999999999999895e-04,-1.000000000000000082e-05,0.000000000000000000e+00,1.000000000000000082e-05,3.699999999999999947e-04,-2.200000000000000078e-04,-1.100000000000000039e-04,-8.000000000000000654e-05,6.000000000000000000e+00,2.300000000000000000e+01
4.919600000000000000e+04,-1.199999999999999895e-04,-1.000000000000000082e-05,0.000000000000000000e+00,1.000000000000000082e-05,3.699999999999999947e-04,-2.200000000000000078e-04,-1.100000000000000039e-04,-8.000000000000000654e-05,6.000000000000000000e+00,2.300000000000000000e+01
4.919700000000000000e+04,-1.199999999999999895e-04,-1.000000000000000082e-05,0.000000000000000000e+00,1.000000000000000082e-05,3.699999999999999947e-04,-2.200000000000000078e-04,-1.100000000000000039e-04,-8.000000000000000654e-05,6.000000000000000000e+00,2.300000000000000000e+01
4.919800000000000000e+04,-1.199999999999999895e-04,-1.000000000000000082e-05,0.000000000000000000e+00,1.000000000000000082e-05,3.699999999999999947e-04,-2.200000000000000078e-04,-1.100000000000000039e-04,-8.000000000000000654e-05,6.000000000000000000e+00,2.300000000000000000e+01
4.919900000000000000e+04,-1.199999999999999895e-04,-1.000000000000000082e-05,0.000000000000000000e+00,1.000000000000000082e-05,3.699999999999999947e-04,-2.200000000000000078e-04,-1.100000000000000039e-04,-8.000000000000000654e-05,6.000000000000000000e+00,2.300000000000000000e+01
4.920000000000000000e+04,-1.199999999999999895e-04,-1.000000000000000082e-05,0.000000000000000000e+00,1.000000000000000082e-05,3.699999999999999947e-04,-2.200000000000000078e-04,-1.100000000000000039e-04,-8.000000000000000654e-05,6.000000000000000000e+00,2.300000000000000000e+01
4.920100000000000000e+04,-1.199999999999999895e-04,-1.000000000000000082e-05,0.000000000000000000e+00,1.000000000000000082e-05,3.699999999999999947e-04,-2.200000000000000078e-04,-1.100000000000000039e-04,-8.000000000000000654e-05,6.000000000000000000e+00,2.300000000000000000e+01
4.920200000000000000e+04,-1.199999999999999895e-04,-1.000000000000000082e-05,0.000000000000000000e+00,1.000000000000000082e-05,3.699999999999999947e-04,-2.200000000000000078e-04,-1.100000000000000039e-04,-8.000000000000000654e-05,6.000000000000000000e+00,2.300000000000000000e+01
4.920300000000000000e+04,-1.199999999999999895e-04,-1.000000000000000082e-05,0.000000000000000000e+00,1.000000000000000082e-05,3.699999999999999947e-04,-2.200000000000000078e-04,-1.100000000000000039e-04,-8.000000000000000654e-05,6.000000000000000000e+00,2.300000000000000000e+01
4.920400000000000000e+04,-1.199999999999999895e-04,-1.000000000000000082e-05,0.000000000000000000e+00,1.000000000000000082e-05,3.699999999999999947e-04,-2.200000000000000078e-04,-1.100000000000000039e-04,-8.000000000000000654e-05,6.000000000000000000e+00,2.300000000000000000e+01
4.920500000000000000e+04,-1.199999999999999895e-04,-1.000000000000000082e-05,0.000000000000000000e+00,1.000000000000000082e-05,3.699999999999999947e-04,-2.200000000000000078e-04,-1.100000000000000039e-04,-8.000000000000000654e-05,6.000000000000000000e+00,2.300000000000000000e+01
4.920600000000000000e+04,-1.199999999999999895e-04,-1.000000000000000082e-05,0.000000000000000000e+00,1.000000000000000082e-05,3.699999999999999947e-04,-2.200000000000000078e-04,-1.100000000000000039e-04,-8.000000000000000654e-05,6.000000000000000000e+00,2.300000000000000000e+01
4.920700000000000000e+04,-1.199999999999999895e-04,-1.000000000000000082e-05,0.000000000000000000e+00,1.000000000000000082e-05,3.699999999999999947e-04,-2.200000000000000078e-04,-1.100000000000000039e-04,-8.000000000000000654e-05,6.000000000000000000e+00,2.300000000000000000e+01
4.920800000000000000e+04,-1.199999999999999895e-04,-1.000000000000000082e-05,0.000000000000000000e+00,1.000000000000000082e-05,3.699999999999999947e-04,-2.200000000000000078e-04,-1.100000000000000039e-04,-8.000000000000000654e-05,6.000000000000000000e+00,2.300000000000000000e+01
4.920900000000000000e+04,1.699999999999999851e-04,0.000000000000000000e+00,-4.000000000000000327e-05,-2.999999999999999737e-05,1.899999999999999834e-04,1.600000000000000131e-04,-6.199999999999999999e-04,9.400000000000000803e-04,6.000000000000000000e+00,2.300000000000000000e+01
4.921000000000000000e+04,5.999999999999999474e-05,2.999999999999999737e-05,2.000000000000000164e-05,1.000000000000000082e-05,1.000000000000000082e-05,4.499999999999999877e-04,2.000000000000000096e-04,6.099999999999999737e-04,6.000000000000000000e+00,2.300000000000000000e+01
4.921100000000000000e+04,5.999999999999999474e-05,2.999999999999999737e-05,2.000000000000000164e-05,1.000000000000000082e-05,1.000000000000000082e-05,4.499999999999999877e-04,2.000000000000000096e-04,6.099999999999999737e-04,6.000000000000000000e+00,2.300000000000000000e+01
4.921200000000000000e+04,5.999999999999999474e-05,2.999999999999999737e-05,2.000000000000000164e-05,1.000000000000000082e-05,1.000000000000000082e-05,4.499999999999999877e-04,2.000000000000000096e-04,6.099999999999999737e-04,6.000000000000000000e+00,2.300000000000000000e+01
4.921300000000000000e+04,5.999999999999999474e-05,2.999999999999999737e-05,2.000000000000000164e-05,1.000000000000000082e-05,1.000000000000000082e-05,4.499999999999999877e-04,2.000000000000000096e-04,6.099999999999999737e-04,6.000000000000000000e+00,2.300000000000000000e+01
4.921400000000000000e+04,5.999999999999999474e-05,2.999999999999999737e-05,2.000000000000000164e-05,1.000000000000000082e-05,1.000000000000000082e-05,4.499999999999999877e-04,2.000000000000000096e-04,6.099999999999999737e-04,6.000000000000000000e+00,2.300000000000000000e+01
4.921500000000000000e+04,5.999999999999999474e-05,2.999999999999999737e-05,2.000000000000000164e-05,1.000000000000000082e-05,1.000000000000000082e-05,4.499999999999999877e-04,2.000000000000000096e-04,6.099999999999999737e-04,6.000000000000000000e+00,2.300000000000000000e+01
4.921600000000000000e+04,5.999999999999999474e-05,2.999999999999999737e-05,2.000000000000000164e-05,1.000000000000000082e-05,1.000000000000000082e-05,4.499999999999999877e-04,2.000000000000000096e-04,6.099999999999999737e-04,6.000000000000000000e+00,2.300000000000000000e+01
4.921700000000000000e+04,5.999999999999999474e-05,2.999999999999999737e-05,2.000000000000000164e-05,1.000000000000000082e-05,1.000000000000000082e-05,4.499999999999999877e-04,2.000000000000000096e-04,6.099999999999999737e-04,6.000000000000000000e+00,2.300000000000000000e+01
4.921800000000000000e+04,5.999999999999999474e-05,2.999999999999999737e-05,2.000000000000000164e-05,1.000000000000000082e-05,1.000000000000000082e-05,4.499999999999999877e-04,2.000000000000000096e-04,6.099999999999999737e-04,6.000000000000000000e+00,2.300000000000000000e+01
4.921900000000000000e+04,5.999999999999999474e-05,2.999999999999999737e-05,2.000000000000000164e-05,1.000000000000000082e-05,1.000000000000000082e-05,4.499999999999999877e-04,2.000000000000000096e-04,6.099999999999999737e-04,6.000000000000000000e+00,2.300000000000000000e+01
4.922000000000000000e+04,5.999999999999999474e-05,2.999999999999999737e-05,2.000000000000000164e-05,1.000000000000000082e-05,1.000000000000000082e-05,4.499999999999999877e-04,2.000000000000000096e-04,6.099999999999999737e-04,6.000000000000000000e+00,2.300000000000000000e+01
4.922100000000000000e+04,5.999999999999999474e-05,2.999999999999999737e-05,2.000000000000000164e-05,1.000000000000000082e-05,1.000000000000000082e-05,4.499999999999999877e-04,2.000000000000000096e-04,6.099999999999999737e-04,6.000000000000000000e+00,2.300000000000000000e+01
4.922200000000000000e+04,5.999999999999999474e-05,2.999999999999999737e-05,2.000000000000000164e-05,1.000000000000000082e-05,1.000000000000000082e-05,4.499999999999999877e-04,2.000000000000000096e-04,6.099999999999999737e-04,6.000000000000000000e+00,2.300000000000000000e+01
4.922300000000000000e+04,5.999999999999999474e-05,2.999999999999999737e-05,2.000000000000000164e-05,1.000000000000000082e-05,1.000000000000000082e-05,4.499999999999999877e-04,2.000000000000000096e-04,6.099999999999999737e-04,6.000000000000000000e+00,2.300000000000000000e+01
4.922400000000000000e+04,-2.299999999999999799e-04,-1.000000000000000082e-05,1.000000000000000082e-05,1.100000000000000039e-04,3.200000000000000262e-04,1.899999999999999834e-04,-5.000000000000000240e-05,-2.700000000000000035e-04,6.000000000000000000e+00,2.300000000000000000e+01
4.922500000000000000e+04,1.000000000000000048e-04,-1.000000000000000082e-05,-2.000000000000000164e-05,2.999999999999999737e-05,-1.199999999999999895e-04,-5.000000000000000240e-05,0.000000000000000000e+00,-4.000000000000000327e-05,6.000000000000000000e+00,2.300000000000000000e+01
4.922600000000000000e+04,1.000000000000000048e-04,-1.000000000000000082e-05,-2.000000000000000164e-05,2.999999999999999737e-05,-1.199999999999999895e-04,-5.000000000000000240e-05,0.000000000000000000e+00,-4.000000000000000327e-05,6.000000000000000000e+00,2.300000000000000000e+01
4.922700000000000000e+04,1.000000000000000048e-04,-1.000000000000000082e-05,-2.000000000000000164e-05,2.999999999999999737e-05,-1.199999999999999895e-04,-5.000000000000000240e-05,0.000000000000000000e+00,-4.000000000000000327e-05,6.000000000000000000e+00,2.300000000000000000e+01
4.922800000000000000e+04,1.000000000000000048e-04,-1.000000000000000082e-05,-2.000000000000000164e-05,2.999999999999999737e-05,-1.199999999999999895e-04,-5.000000000000000240e-05,0.000000000000000000e+00,-4.000000000000000327e-05,6.000000000000000000e+00,2.300000000000000000e+01
4.922900000000000000e+04,1.000000000000000048e-04,-1.000000000000000082e-05,-2.000000000000000164e-05,2.999999999999999737e-05,-1.199999999999999895e-04,-5.000000000000000240e-05,0.000000000000000000e+00,-4.000000000000000327e-05,6.000000000000000000e+00,2.300000000000000000e+01
4.923000000000000000e+04,1.000000000000000048e-04,-1.000000000000000082e-05,-2.000000000000000164e-05,2.999999999999999737e-05,-1.199999999999999895e-04,-5.000000000000000240e-05,0.000000000000000000e+00,-4.000000000000000327e-05,6.000000000000000000e+00,2.300000000000000000e+01
4.923100000000000000e+04,1.000000000000000048e-04,-1.000000000000000082e-05,-2.000000000000000164e-05,2.999999999999999737e-05,-1.199999999999999895e-04,-5.000000000000000240e-05,0.000000000000000000e+00,-4.000000000000000327e-05,6.000000000000000000e+00,2.300000000000000000e+01
4.923200000000000000e+04,1.000000000000000048e-04,-1.000000000000000082e-05,-2.000000000000000164e-05,2.999999999999999737e-05,-1.199999999999999895e-04,-5.000000000000000240e-05,0.000000000000000000e+00,-4.000000000000000327e-05,6.000000000000000000e+00,2.300000000000000000e+01
4.923300000000000000e+04,1.000000000000000048e-04,-1.000000000000000082e-05,-2.000000000000000164e-05,2.999999999999999737e-05,-1.199999999999999895e-04,-5.000000000000000240e-05,0.000000000000000000e+00,-4.000000000000000327e-05,6.000000000000000000e+00,2.300000000000000000e+01
4.923400000000000000e+04,1.000000000000000048e-04,-1.000000000000000082e-05,-2.000000000000000164e-05,2.999999999999999737e-05,-1.199999999999999895e-04,-5.000000000000000240e-05,0.000000000000000000e+00,-4.000000000000000327e-05,6.000000000000000000e+00,2.300000000000000000e+01
4.923500000000000000e+04,1.000000000000000048e-04,-1.000000000000000082e-05,-2.000000000000000164e-05,2.999999999999999737e-05,-1.199999999999999895e-04,-5.000000000000000240e-05,0.000000000000000000e+00,-4.000000000000000327e-05,6.000000000000000000e+00,2.300000000000000000e+01
4.923600000000000000e+04,1.000000000000000048e-04,-1.000000000000000082e-05,-2.000000000000000164e-05,2.999999999999999737e-05,-1.199999999999999895e-04,-5.000000000000000240e-05,0.000000000000000000e+00,-4.000000000000000327e-05,6.000000000000000000e+00,2.300000000000000000e+01
4.923800000000000000e+04,1.000000000000000048e-04,-1.000000000000000082e-05,-2.000000000000000164e-05,2.999999999999999737e-05,-1.199999999999999895e-04,-5.000000000000000240e-05,0.000000000000000000e+00,-4.000000000000000327e-05,6.000000000000000000e+00,2.300000000000000000e+01
4.923900000000000000e+04,1.000000000000000048e-04,-1.000000000000000082e-05,-2.000000000000000164e-05,2.999999999999999737e-05,-1.199999999999999895e-04,-5.000000000000000240e-05,0.000000000000000000e+00,-4.000000000000000327e-05,6.000000000000000000e+00,2.300000000000000000e+01
4.924000000000000000e+04,1.000000000000000048e-04,-1.000000000000000082e-05,-2.000000000000000164e-05,2.999999999999999737e-05,-1.199999999999999895e-04,-5.000000000000000240e-05,0.000000000000000000e+00,-4.000000000000000327e-05,6.000000000000000000e+00,2.300000000000000000e+01
4.924100000000000000e+04,1.000000000000000048e-04,-1.000000000000000082e-05,-2.000000000000000164e-05,2.999999999999999737e-05,-1.199999999999999895e-04,-5.000000000000000240e-05,0.000000000000000000e+00,-4.000000000000000327e-05,6.000000000000000000e+00,2.300000000000000000e+01
4.924200000000000000e+04,1.000000000000000048e-04,-1.000000000000000082e-05,-2.000000000000000164e-05,2.999999999999999737e-05,-1.199999999999999895e-04,-5.000000000000000240e-05,0.000000000000000000e+00,-4.000000000000000327e-05,6.000000000000000000e+00,2.300000000000000000e+01
4.924300000000000000e+04,1.000000000000000048e-04,-1.000000000000000082e-05,-2.000000000000000164e-05,2.999999999999999737e-05,-1.199999999999999895e-04,-5.000000000000000240e-05,0.000000000000000000e+00,-4.000000000000000327e-05,6.000000000000000000e+00,2.300000000000000000e+01
4.924400000000000000e+04,1.000000000000000048e-04,-1.000000000000000082e-05,-2.000000000000000164e-05,2.999999999999999737e-05,-1.199999999999999895e-04,-5.000000000000000240e-05,0.000000000000000000e+00,-4.000000000000000327e-05,6.000000000000000000e+00,2.300000000000000000e+01
4.924500000000000000e+04,1.000000000000000048e-04,-1.000000000000000082e-05,-2.000000000000000164e-05,2.999999999999999737e-05,-1.199999999999999895e-04,-5.000000000000000240e-05,0.000000000000000000e+00,-4.000000000000000327e-05,6.000000000000000000e+00,2.300000000000000000e+01
4.924600000000000000e+04,5.999999999999999474e-05,1.000000000000000082e-05,-1.000000000000000082e-05,-1.000000000000000082e-05,-2.200000000000000078e-04,8.300000000000001170e-04,1.100000000000000039e-04,-2.299999999999999799e-04,6.000000000000000000e+00,2.300000000000000000e+01
4.924700000000000000e+04,5.999999999999999474e-05,1.000000000000000082e-05,-1.000000000000000082e-05,-1.000000000000000082e-05,-2.200000000000000078e-04,8.300000000000001170e-04,1.100000000000000039e-04,-2.299999999999999799e-04,6.000000000000000000e+00,2.300000000000000000e+01
4.924800000000000000e+04,2.999999999999999737e-05,-2.000000000000000164e-05,6.999999999999999387e-05,-1.000000000000000082e-05,-1.699999999999999851e-04,3.600000000000000227e-04,-2.100000000000000087e-04,6.300000000000000261e-04,6.000000000000000000e+00,2.300000000000000000e+01
4.924900000000000000e+04,2.999999999999999737e-05,-2.000000000000000164e-05,6.999999999999999387e-05,-1.000000000000000082e-05,-1.699999999999999851e-04,3.600000000000000227e-04,-2.100000000000000087e-04,6.300000000000000261e-04,6.000000000000000000e+00,2.300000000000000000e+01
4.925000000000000000e+04,2.999999999999999737e-05,-2.000000000000000164e-05,6.999999999999999387e-05,-1.000000000000000082e-05,-1.699999999999999851e-04,3.600000000000000227e-04,-2.100000000000000087e-04,6.300000000000000261e-04,6.000000000000000000e+00,2.300000000000000000e+01
4.925100000000000000e+04,2.999999999999999737e-05,-2.000000000000000164e-05,6.999999999999999387e-05,-1.000000000000000082e-05,-1.699999999999999851e-04,3.600000000000000227e-04,-2.100000000000000087e-04,6.300000000000000261e-04,6.000000000000000000e+00,2.300000000000000000e+01
4.925200000000000000e+04,2.999999999999999737e-05,-2.000000000000000164e-05,6.999999999999999387e-05,-1.000000000000000082e-05,-1.699999999999999851e-04,3.600000000000000227e-04,-2.100000000000000087e-04,6.300000000000000261e-04,6.000000000000000000e+00,2.300000000000000000e+01
4.925300000000000000e+04,2.999999999999999737e-05,-2.000000000000000164e-05,6.999999999999999387e-05,-1.000000000000000082e-05,-1.699999999999999851e-04,3.600000000000000227e-04,-2.100000000000000087e-04,6.300000000000000261e-04,6.000000000000000000e+00,2.300000000000000000e+01
4.925400000000000000e+04,2.999999999999999737e-05,-2.000000000000000164e-05,6.999999999999999387e-05,-1.000000000000000082e-05,-1.699999999999999851e-04,3.600000000000000227e-04,-2.100000000000000087e-04,6.300000000000000261e-04,6.000000000000000000e+00,2.300000000000000000e+01
4.925500000000000000e+04,2.999999999999999737e-05,-2.000000000000000164e-05,6.999999999999999387e-05,-1.000000000000000082e-05,-1.699999999999999851e-04,3.600000000000000227e-04,-2.100000000000000087e-04,6.300000000000000261e-04,6.000000000000000000e+00,2.300000000000000000e+01
4.925600000000000000e+04,2.999999999999999737e-05,-2.000000000000000164e-05,6.999999999999999387e-05,-1.000000000000000082e-05,-1.699999999999999851e-04,3.600000000000000227e-04,-2.100000000000000087e-04,6.300000000000000261e-04,6.000000000000000000e+00,2.300000000000000000e+01
4.925700000000000000e+04,2.999999999999999737e-05,-2.000000000000000164e-05,6.999999999999999387e-05,-1.000000000000000082e-05,-1.699999999999999851e-04,3.600000000000000227e-04,-2.100000000000000087e-04,6.300000000000000261e-04,6.000000000000000000e+00,2.300000000000000000e+01
4.925800000000000000e+04,2.999999999999999737e-05,-2.000000000000000164e-05,6.999999999999999387e-05,-1.000000000000000082e-05,-1.699999999999999851e-04,3.600000000000000227e-04,-2.100000000000000087e-04,6.300000000000000261e-04,6.000000000000000000e+00,2.300000000000000000e+01
4.925900000000000000e+04,2.999999999999999737e-05,-2.000000000000000164e-05,6.999999999999999387e-05,-1.000000000000000082e-05,-1.699999999999999851e-04,3.600000000000000227e-04,-2.100000000000000087e-04,6.300000000000000261e-04,6.000000000000000000e+00,2.300000000000000000e+01
4.926000000000000000e+04,2.999999999999999737e-05,-2.000000000000000164e-05,6.999999999999999387e-05,-1.000000000000000082e-05,-1.699999999999999851e-04,3.600000000000000227e-04,-2.100000000000000087e-04,6.300000000000000261e-04,6.000000000000000000e+00,2.300000000000000000e+01
4.926100000000000000e+04,2.999999999999999737e-05,-2.000000000000000164e-05,6.999999999999999387e-05,-1.000000000000000082e-05,-1.699999999999999851e-04,3.600000000000000227e-04,-2.100000000000000087e-04,6.300000000000000261e-04,6.000000000000000000e+00,2.300000000000000000e+01
4.926300000000000000e+04,2.999999999999999737e-05,-2.000000000000000164e-05,6.999999999999999387e-05,-1.000000000000000082e-05,-1.699999999999999851e-04,3.600000000000000227e-04,-2.100000000000000087e-04,6.300000000000000261e-04,6.000000000000000000e+00,2.300000000000000000e+01
4.926400000000000000e+04,2.999999999999999737e-05,-2.000000000000000164e-05,6.999999999999999387e-05,-1.000000000000000082e-05,-1.699999999999999851e-04,3.600000000000000227e-04,-2.100000000000000087e-04,6.300000000000000261e-04,6.000000000000000000e+00,2.300000000000000000e+01
4.926500000000000000e+04,2.999999999999999737e-05,-2.000000000000000164e-05,6.999999999999999387e-05,-1.000000000000000082e-05,-1.699999999999999851e-04,3.600000000000000227e-04,-2.100000000000000087e-04,6.300000000000000261e-04,6.000000000000000000e+00,2.300000000000000000e+01
4.926600000000000000e+04,2.999999999999999737e-05,-2.000000000000000164e-05,6.999999999999999387e-05,-1.000000000000000082e-05,-1.699999999999999851e-04,3.600000000000000227e-04,-2.100000000000000087e-04,6.300000000000000261e-04,6.000000000000000000e+00,2.300000000000000000e+01
4.926700000000000000e+04,2.999999999999999737e-05,-2.000000000000000164e-05,6.999999999999999387e-05,-1.000000000000000082e-05,-1.699999999999999851e-04,3.600000000000000227e-04,-2.100000000000000087e-04,6.300000000000000261e-04,6.000000000000000000e+00,2.300000000000000000e+01
4.926800000000000000e+04,2.999999999999999737e-05,-2.000000000000000164e-05,6.999999999999999387e-05,-1.000000000000000082e-05,-1.699999999999999851e-04,3.600000000000000227e-04,-2.100000000000000087e-04,6.300000000000000261e-04,6.000000000000000000e+00,2.300000000000000000e+01
4.926900000000000000e+04,0.000000000000000000e+00,1.000000000000000048e-04,-1.000000000000000082e-05,-2.000000000000000164e-05,1.899999999999999834e-04,1.000000000000000048e-04,1.600000000000000131e-04,9.000000000000000567e-05,6.000000000000000000e+00,2.300000000000000000e+01
4.927000000000000000e+04,-8.000000000000000654e-05,-4.000000000000000327e-05,-1.399999999999999877e-04,-2.000000000000000164e-05,1.000000000000000048e-04,-5.000000000000000240e-05,1.100000000000000039e-04,-2.500000000000000052e-04,6.000000000000000000e+00,2.300000000000000000e+01
4.927100000000000000e+04,-8.000000000000000654e-05,-4.000000000000000327e-05,-1.399999999999999877e-04,-2.000000000000000164e-05,1.000000000000000048e-04,-5.000000000000000240e-05,1.100000000000000039e-04,-2.500000000000000052e-04,6.000000000000000000e+00,2.300000000000000000e+01
4.927200000000000000e+04,-8.000000000000000654e-05,-4.000000000000000327e-05,-1.399999999999999877e-04,-2.000000000000000164e-05,1.000000000000000048e-04,-5.000000000000000240e-05,1.100000000000000039e-04,-2.500000000000000052e-04,6.000000000000000000e+00,2.300000000000000000e+01
4.927300000000000000e+04,-8.000000000000000654e-05,-4.000000000000000327e-05,-1.399999999999999877e-04,-2.000000000000000164e-05,1.000000000000000048e-04,-5.000000000000000240e-05,1.100000000000000039e-04,-2.500000000000000052e-04,6.000000000000000000e+00,2.300000000000000000e+01
4.927400000000000000e+04,-8.000000000000000654e-05,-4.000000000000000327e-05,-1.399999999999999877e-04,-2.000000000000000164e-05,1.000000000000000048e-04,-5.000000000000000240e-05,1.100000000000000039e-04,-2.500000000000000052e-04,6.000000000000000000e+00,2.300000000000000000e+01
4.927500000000000000e+04,-8.000000000000000654e-05,-4.000000000000000327e-05,-1.399999999999999877e-04,-2.000000000000000164e-05,1.000000000000000048e-04,-5.000000000000000240e-05,1.100000000000000039e-04,-2.500000000000000052e-04,6.000000000000000000e+00,2.300000000000000000e+01
4.927600000000000000e+04,-8.000000000000000654e-05,-4.000000000000000327e-05,-1.399999999999999877e-04,-2.000000000000000164e-05,1.000000000000000048e-04,-5.000000000000000240e-05,1.100000000000000039e-04,-2.500000000000000052e-04,6.000000000000000000e+00,2.300000000000000000e+01
4.927700000000000000e+04,-8.000000000000000654e-05,-4.000000000000000327e-05,-1.399999999999999877e-04,-2.000000000000000164e-05,1.000000000000000048e-04,-5.000000000000000240e-05,1.100000000000000039e-04,-2.500000000000000052e-04,6.000000000000000000e+00,2.300000000000000000e+01
4.927800000000000000e+04,-8.000000000000000654e-05,-4.000000000000000327e-05,-1.399999999999999877e-04,-2.000000000000000164e-05,1.000000000000000048e-04,-5.000000000000000240e-05,1.100000000000000039e-04,-2.500000000000000052e-04,6.000000000000000000e+00,2.300000000000000000e+01
4.927900000000000000e+04,-8.000000000000000654e-05,-4.000000000000000327e-05,-1.399999999999999877e-04,-2.000000000000000164e-05,1.000000000000000048e-04,-5.000000000000000240e-05,1.100000000000000039e-04,-2.500000000000000052e-04,6.000000000000000000e+00,2.300000000000000000e+01
4.928000000000000000e+04,-8.000000000000000654e-05,-4.000000000000000327e-05,-1.399999999999999877e-04,-2.000000000000000164e-05,1.000000000000000048e-04,-5.000000000000000240e-05,1.100000000000000039e-04,-2.500000000000000052e-04,6.000000000000000000e+00,2.300000000000000000e+01
4.928100000000000000e+04,-8.000000000000000654e-05,-4.000000000000000327e-05,-1.399999999999999877e-04,-2.000000000000000164e-05,1.000000000000000048e-04,-5.000000000000000240e-05,1.100000000000000039e-04,-2.500000000000000052e-04,6.000000000000000000e+00,2.300000000000000000e+01
4.928200000000000000e+04,-8.000000000000000654e-05,-4.000000000000000327e-05,-1.399999999999999877e-04,-2.000000000000000164e-05,1.000000000000000048e-04,-5.000000000000000240e-05,1.100000000000000039e-04,-2.500000000000000052e-04,6.000000000000000000e+00,2.300000000000000000e+01
4.928300000000000000e+04,-8.000000000000000654e-05,-4.000000000000000327e-05,-1.399999999999999877e-04,-2.000000000000000164e-05,1.000000000000000048e-04,-5.000000000000000240e-05,1.100000000000000039e-04,-2.500000000000000052e-04,6.000000000000000000e+00,2.300000000000000000e+01
4.928400000000000000e+04,-5.999999999999999474e-05,-1.000000000000000082e-05,5.999999999999999474e-05,1.300000000000000157e-04,4.000000000000000192e-04,-5.000000000000000240e-05,1.000000000000000082e-05,-3.899999999999999929e-04,6.000000000000000000e+00,2.300000000000000000e+01
4.928500000000000000e+04,-5.999999999999999474e-05,-1.000000000000000082e-05,5.999999999999999474e-05,1.300000000000000157e-04,4.000000000000000192e-04,-5.000000000000000240e-05,1.000000000000000082e-05,-3.899999999999999929e-04,6.000000000000000000e+00,2.300000000000000000e+01
4.928600000000000000e+04,-5.999999999999999474e-05,-1.000000000000000082e-05,5.999999999999999474e-05,1.300000000000000157e-04,4.000000000000000192e-04,-5.000000000000000240e-05,1.000000000000000082e-05,-3.899999999999999929e-04,6.000000000000000000e+00,2.300000000000000000e+01
4.928800000000000000e+04,-5.999999999999999474e-05,-1.000000000000000082e-05,5.999999999999999474e-05,1.300000000000000157e-04,4.000000000000000192e-04,-5.000000000000000240e-05,1.000000000000000082e-05,-3.899999999999999929e-04,6.000000000000000000e+00,2.300000000000000000e+01
4.928900000000000000e+04,-5.999999999999999474e-05,-1.000000000000000082e-05,5.999999999999999474e-05,1.300000000000000157e-04,4.000000000000000192e-04,-5.000000000000000240e-05,1.000000000000000082e-05,-3.899999999999999929e-04,6.000000000000000000e+00,2.300000000000000000e+01
4.929000000000000000e+04,-2.799999999999999755e-04,2.000000000000000164e-05,4.000000000000000327e-05,4.000000000000000327e-05,-4.000000000000000327e-05,-1.899999999999999834e-04,-1.000000000000000048e-04,-4.299999999999999894e-04,6.000000000000000000e+00,2.300000000000000000e+01
4.929100000000000000e+04,-2.799999999999999755e-04,2.000000000000000164e-05,4.000000000000000327e-05,4.000000000000000327e-05,-4.000000000000000327e-05,-1.899999999999999834e-04,-1.000000000000000048e-04,-4.299999999999999894e-04,6.000000000000000000e+00,2.300000000000000000e+01
4.929200000000000000e+04,-2.799999999999999755e-04,2.000000000000000164e-05,4.000000000000000327e-05,4.000000000000000327e-05,-4.000000000000000327e-05,-1.899999999999999834e-04,-1.000000000000000048e-04,-4.299999999999999894e-04,6.000000000000000000e+00,2.300000000000000000e+01
4.929300000000000000e+04,-2.799999999999999755e-04,2.000000000000000164e-05,4.000000000000000327e-05,4.000000000000000327e-05,-4.000000000000000327e-05,-1.899999999999999834e-04,-1.000000000000000048e-04,-4.299999999999999894e-04,6.000000000000000000e+00,2.300000000000000000e+01
4.929400000000000000e+04,-2.799999999999999755e-04,2.000000000000000164e-05,4.000000000000000327e-05,4.000000000000000327e-05,-4.000000000000000327e-05,-1.899999999999999834e-04,-1.000000000000000048e-04,-4.299999999999999894e-04,6.000000000000000000e+00,2.300000000000000000e+01
4.929500000000000000e+04,-2.799999999999999755e-04,2.000000000000000164e-05,4.000000000000000327e-05,4.000000000000000327e-05,-4.000000000000000327e-05,-1.899999999999999834e-04,-1.000000000000000048e-04,-4.299999999999999894e-04,6.000000000000000000e+00,2.300000000000000000e+01
4.929600000000000000e+04,-2.799999999999999755e-04,2.000000000000000164e-05,4.000000000000000327e-05,4.000000000000000327e-05,-4.000000000000000327e-05,-1.899999999999999834e-04,-1.000000000000000048e-04,-4.299999999999999894e-04,6.000000000000000000e+00,2.300000000000000000e+01
4.929700000000000000e+04,-2.799999999999999755e-04,2.000000000000000164e-05,4.000000000000000327e-05,4.000000000000000327e-05,-4.000000000000000327e-05,-1.899999999999999834e-04,-1.000000000000000048e-04,-4.299999999999999894e-04,6.000000000000000000e+00,2.300000000000000000e+01
4.929800000000000000e+04,-2.799999999999999755e-04,2.000000000000000164e-05,4.000000000000000327e-05,4.000000000000000327e-05,-4.000000000000000327e-05,-1.899999999999999834e-04,-1.000000000000000048e-04,-4.299999999999999894e-04,6.000000000000000000e+00,2.300000000000000000e+01
4.929900000000000000e+04,-2.799999999999999755e-04,2.000000000000000164e-05,4.000000000000000327e-05,4.000000000000000327e-05,-4.000000000000000327e-05,-1.899999999999999834e-04,-1.000000000000000048e-04,-4.299999999999999894e-04,6.000000000000000000e+00,2.300000000000000000e+01
4.930000000000000000e+04,-2.799999999999999755e-04,2.000000000000000164e-05,4.000000000000000327e-05,4.000000000000000327e-05,-4.000000000000000327e-05,-1.899999999999999834e-04,-1.000000000000000048e-04,-4.299999999999999894e-04,6.000000000000000000e+00,2.300000000000000000e+01
4.930100000000000000e+04,-2.799999999999999755e-04,2.000000000000000164e-05,4.000000000000000327e-05,4.000000000000000327e-05,-4.000000000000000327e-05,-1.899999999999999834e-04,-1.000000000000000048e-04,-4.299999999999999894e-04,6.000000000000000000e+00,2.300000000000000000e+01
4.930200000000000000e+04,-2.799999999999999755e-04,2.000000000000000164e-05,4.000000000000000327e-05,4.000000000000000327e-05,-4.000000000000000327e-05,-1.899999999999999834e-04,-1.000000000000000048e-04,-4.299999999999999894e-04,6.000000000000000000e+00,2.300000000000000000e+01
4.930300000000000000e+04,-2.799999999999999755e-04,2.000000000000000164e-05,4.000000000000000327e-05,4.000000000000000327e-05,-4.000000000000000327e-05,-1.899999999999999834e-04,-1.000000000000000048e-04,-4.299999999999999894e-04,6.000000000000000000e+00,2.300000000000000000e+01
4.930400000000000000e+04,-2.799999999999999755e-04,2.000000000000000164e-05,4.000000000000000327e-05,4.000000000000000327e-05,-4.000000000000000327e-05,-1.899999999999999834e-04,-1.000000000000000048e-04,-4.299999999999999894e-04,6.000000000000000000e+00,2.300000000000000000e+01
4.930500000000000000e+04,-2.799999999999999755e-04,2.000000000000000164e-05,4.000000000000000327e-05,4.000000000000000327e-05,-4.000000000000000327e-05,-1.899999999999999834e-04,-1.000000000000000048e-04,-4.299999999999999894e-04,6.000000000000000000e+00,2.300000000000000000e+01
4.930600000000000000e+04,2.700000000000000035e-04,2.000000000000000164e-05,-2.999999999999999737e-05,-4.000000000000000327e-05,-1.600000000000000131e-04,4.200000000000000174e-04,2.999999999999999737e-04,4.799999999999999580e-04,6.000000000000000000e+00,2.300000000000000000e+01
4.930700000000000000e+04,2.700000000000000035e-04,2.000000000000000164e-05,-2.999999999999999737e-05,-4.000000000000000327e-05,-1.600000000000000131e-04,4.200000000000000174e-04,2.999999999999999737e-04,4.799999999999999580e-04,6.000000000000000000e+00,2.300000000000000000e+01
4.930800000000000000e+04,-4.000000000000000327e-05,-4.000000000000000327e-05,-2.999999999999999737e-05,-2.999999999999999737e-05,2.799999999999999755e-04,-2.100000000000000087e-04,3.699999999999999947e-04,-4.000000000000000327e-05,6.000000000000000000e+00,2.300000000000000000e+01
4.930900000000000000e+04,-4.000000000000000327e-05,-4.000000000000000327e-05,-2.999999999999999737e-05,-2.999999999999999737e-05,2.799999999999999755e-04,-2.100000000000000087e-04,3.699999999999999947e-04,-4.000000000000000327e-05,6.000000000000000000e+00,2.300000000000000000e+01
4.931000000000000000e+04,-4.000000000000000327e-05,-4.000000000000000327e-05,-2.999999999999999737e-05,-2.999999999999999737e-05,2.799999999999999755e-04,-2.100000000000000087e-04,3.699999999999999947e-04,-4.000000000000000327e-05,6.000000000000000000e+00,2.300000000000000000e+01
4.931100000000000000e+04,-4.000000000000000327e-05,-4.000000000000000327e-05,-2.999999999999999737e-05,-2.999999999999999737e-05,2.799999999999999755e-04,-2.100000000000000087e-04,3.699999999999999947e-04,-4.000000000000000327e-05,6.000000000000000000e+00,2.300000000000000000e+01
4.931200000000000000e+04,-4.000000000000000327e-05,-4.000000000000000327e-05,-2.999999999999999737e-05,-2.999999999999999737e-05,2.799999999999999755e-04,-2.100000000000000087e-04,3.699999999999999947e-04,-4.000000000000000327e-05,6.000000000000000000e+00,2.300000000000000000e+01
4.931300000000000000e+04,-4.000000000000000327e-05,-4.000000000000000327e-05,-2.999999999999999737e-05,-2.999999999999999737e-05,2.799999999999999755e-04,-2.100000000000000087e-04,3.699999999999999947e-04,-4.000000000000000327e-05,6.000000000000000000e+00,2.300000000000000000e+01
4.931400000000000000e+04,-4.000000000000000327e-05,-4.000000000000000327e-05,-2.999999999999999737e-05,-2.999999999999999737e-05,2.799999999999999755e-04,-2.100000000000000087e-04,3.699999999999999947e-04,-4.000000000000000327e-05,6.000000000000000000e+00,2.300000000000000000e+01
4.931500000000000000e+04,-4.000000000000000327e-05,-4.000000000000000327e-05,-2.999999999999999737e-05,-2.999999999999999737e-05,2.799999999999999755e-04,-2.100000000000000087e-04,3.699999999999999947e-04,-4.000000000000000327e-05,6.000000000000000000e+00,2.300000000000000000e+01
4.931600000000000000e+04,-4.000000000000000327e-05,-4.000000000000000327e-05,-2.999999999999999737e-05,-2.999999999999999737e-05,2.799999999999999755e-04,-2.100000000000000087e-04,3.699999999999999947e-04,-4.000000000000000327e-05,6.000000000000000000e+00,2.300000000000000000e+01
4.931700000000000000e+04,-4.000000000000000327e-05,-4.000000000000000327e-05,-2.999999999999999737e-05,-2.999999999999999737e-05,2.799999999999999755e-04,-2.100000000000000087e-04,3.699999999999999947e-04,-4.000000000000000327e-05,6.000000000000000000e+00,2.300000000000000000e+01
4.931800000000000000e+04,-4.000000000000000327e-05,-4.000000000000000327e-05,-2.999999999999999737e-05,-2.999999999999999737e-05,2.799999999999999755e-04,-2.100000000000000087e-04,3.699999999999999947e-04,-4.000000000000000327e-05,6.000000000000000000e+00,2.300000000000000000e+01
4.931900000000000000e+04,-4.000000000000000327e-05,-4.000000000000000327e-05,-2.999999999999999737e-05,-2.999999999999999737e-05,2.799999999999999755e-04,-2.100000000000000087e-04,3.699999999999999947e-04,-4.000000000000000327e-05,6.000000000000000000e+00,2.300000000000000000e+01
4.932000000000000000e+04,-4.000000000000000327e-05,-4.000000000000000327e-05,-2.999999999999999737e-05,-2.999999999999999737e-05,2.799999999999999755e-04,-2.100000000000000087e-04,3.699999999999999947e-04,-4.000000000000000327e-05,6.000000000000000000e+00,2.300000000000000000e+01
4.932100000000000000e+04,-4.000000000000000327e-05,-4.000000000000000327e-05,-2.999999999999999737e-05,-2.999999999999999737e-05,2.799999999999999755e-04,-2.100000000000000087e-04,3.699999999999999947e-04,-4.000000000000000327e-05,6.000000000000000000e+00,2.300000000000000000e+01
4.932200000000000000e+04,-4.000000000000000327e-05,-4.000000000000000327e-05,-2.999999999999999737e-05,-2.999999999999999737e-05,2.799999999999999755e-04,-2.100000000000000087e-04,3.699999999999999947e-04,-4.000000000000000327e-05,6.000000000000000000e+00,2.300000000000000000e+01
4.932300000000000000e+04,-4.000000000000000327e-05,-4.000000000000000327e-05,-2.999999999999999737e-05,-2.999999999999999737e-05,2.799999999999999755e-04,-2.100000000000000087e-04,3.699999999999999947e-04,-4.000000000000000327e-05,6.000000000000000000e+00,2.300000000000000000e+01
4.932400000000000000e+04,-4.000000000000000327e-05,-4.000000000000000327e-05,-2.999999999999999737e-05,-2.999999999999999737e-05,2.799999999999999755e-04,-2.100000000000000087e-04,3.699999999999999947e-04,-4.000000000000000327e-05,6.000000000000000000e+00,2.300000000000000000e+01
4.932500000000000000e+04,-4.000000000000000327e-05,-4.000000000000000327e-05,-2.999999999999999737e-05,-2.999999999999999737e-05,2.799999999999999755e-04,-2.100000000000000087e-04,3.699999999999999947e-04,-4.000000000000000327e-05,6.000000000000000000e+00,2.300000000000000000e+01
4.932600000000000000e+04,-4.000000000000000327e-05,-4.000000000000000327e-05,-2.999999999999999737e-05,-2.999999999999999737e-05,2.799999999999999755e-04,-2.100000000000000087e-04,3.699999999999999947e-04,-4.000000000000000327e-05,6.000000000000000000e+00,2.300000000000000000e+01
4.932700000000000000e+04,-4.000000000000000327e-05,-4.000000000000000327e-05,-2.999999999999999737e-05,-2.999999999999999737e-05,2.799999999999999755e-04,-2.100000000000000087e-04,3.699999999999999947e-04,-4.000000000000000327e-05,6.000000000000000000e+00,2.300000000000000000e+01
4.932800000000000000e+04,-4.000000000000000327e-05,-4.000000000000000327e-05,-2.999999999999999737e-05,-2.999999999999999737e-05,2.799999999999999755e-04,-2.100000000000000087e-04,3.699999999999999947e-04,-4.000000000000000327e-05,6.000000000000000000e+00,2.300000000000000000e+01
4.932900000000000000e+04,-1.100000000000000039e-04,-8.000000000000000654e-05,0.000000000000000000e+00,-4.000000000000000327e-05,-3.799999999999999667e-04,-3.299999999999999982e-04,1.000000000000000082e-05,-2.600000000000000314e-04,6.000000000000000000e+00,2.300000000000000000e+01
4.933000000000000000e+04,1.000000000000000048e-04,-2.000000000000000164e-05,-2.000000000000000164e-05,-6.999999999999999387e-05,-3.499999999999999964e-04,0.000000000000000000e+00,-2.999999999999999737e-05,-2.999999999999999737e-05,6.000000000000000000e+00,2.300000000000000000e+01
4.933100000000000000e+04,1.000000000000000048e-04,-2.000000000000000164e-05,-2.000000000000000164e-05,-6.999999999999999387e-05,-3.499999999999999964e-04,0.000000000000000000e+00,-2.999999999999999737e-05,-2.999999999999999737e-05,6.000000000000000000e+00,2.300000000000000000e+01
4.933200000000000000e+04,1.000000000000000048e-04,-2.000000000000000164e-05,-2.000000000000000164e-05,-6.999999999999999387e-05,-3.499999999999999964e-04,0.000000000000000000e+00,-2.999999999999999737e-05,-2.999999999999999737e-05,6.000000000000000000e+00,2.300000000000000000e+01
4.933300000000000000e+04,1.000000000000000048e-04,-2.000000000000000164e-05,-2.000000000000000164e-05,-6.999999999999999387e-05,-3.499999999999999964e-04,0.000000000000000000e+00,-2.999999999999999737e-05,-2.999999999999999737e-05,6.000000000000000000e+00,2.300000000000000000e+01
4.933400000000000000e+04,1.000000000000000048e-04,-2.000000000000000164e-05,-2.000000000000000164e-05,-6.999999999999999387e-05,-3.499999999999999964e-04,0.000000000000000000e+00,-2.999999999999999737e-05,-2.999999999999999737e-05,6.000000000000000000e+00,2.300000000000000000e+01
4.933500000000000000e+04,1.000000000000000048e-04,-2.000000000000000164e-05,-2.000000000000000164e-05,-6.999999999999999387e-05,-3.499999999999999964e-04,0.000000000000000000e+00,-2.999999999999999737e-05,-2.999999999999999737e-05,6.000000000000000000e+00,2.300000000000000000e+01
4.933600000000000000e+04,1.000000000000000048e-04,-2.000000000000000164e-05,-2.000000000000000164e-05,-6.999999999999999387e-05,-3.499999999999999964e-04,0.000000000000000000e+00,-2.999999999999999737e-05,-2.999999999999999737e-05,6.000000000000000000e+00,2.300000000000000000e+01
4.933800000000000000e+04,1.000000000000000048e-04,-2.000000000000000164e-05,-2.000000000000000164e-05,-6.999999999999999387e-05,-3.499999999999999964e-04,0.000000000000000000e+00,-2.999999999999999737e-05,-2.999999999999999737e-05,6.000000000000000000e+00,2.300000000000000000e+01
4.933900000000000000e+04,1.000000000000000048e-04,-2.000000000000000164e-05,-2.000000000000000164e-05,-6.999999999999999387e-05,-3.499999999999999964e-04,0.000000000000000000e+00,-2.999999999999999737e-05,-2.999999999999999737e-05,6.000000000000000000e+00,2.300000000000000000e+01
4.934000000000000000e+04,1.000000000000000048e-04,-2.000000000000000164e-05,-2.000000000000000164e-05,-6.999999999999999387e-05,-3.499999999999999964e-04,0.000000000000000000e+00,-2.999999999999999737e-05,-2.999999999999999737e-05,6.000000000000000000e+00,2.300000000000000000e+01
4.934100000000000000e+04,1.000000000000000048e-04,-2.000000000000000164e-05,-2.000000000000000164e-05,-6.999999999999999387e-05,-3.499999999999999964e-04,0.000000000000000000e+00,-2.999999999999999737e-05,-2.999999999999999737e-05,6.000000000000000000e+00,2.300000000000000000e+01
4.934200000000000000e+04,1.000000000000000048e-04,-2.000000000000000164e-05,-2.000000000000000164e-05,-6.999999999999999387e-05,-3.499999999999999964e-04,0.000000000000000000e+00,-2.999999999999999737e-05,-2.999999999999999737e-05,6.000000000000000000e+00,2.300000000000000000e+01
4.934300000000000000e+04,-1.000000000000000048e-04,-1.000000000000000082e-05,-2.000000000000000164e-05,-5.000000000000000240e-05,1.100000000000000039e-04,-1.800000000000000113e-04,1.800000000000000113e-04,1.100000000000000039e-04,6.000000000000000000e+00,2.300000000000000000e+01
4.934400000000000000e+04,-1.000000000000000048e-04,-1.000000000000000082e-05,-2.000000000000000164e-05,-5.000000000000000240e-05,1.100000000000000039e-04,-1.800000000000000113e-04,1.800000000000000113e-04,1.100000000000000039e-04,6.000000000000000000e+00,2.300000000000000000e+01
4.934500000000000000e+04,-1.000000000000000048e-04,-1.000000000000000082e-05,-2.000000000000000164e-05,-5.000000000000000240e-05,1.100000000000000039e-04,-1.800000000000000113e-04,1.800000000000000113e-04,1.100000000000000039e-04,6.000000000000000000e+00,2.300000000000000000e+01
4.934600000000000000e+04,-1.000000000000000048e-04,-1.000000000000000082e-05,-2.000000000000000164e-05,-5.000000000000000240e-05,1.100000000000000039e-04,-1.800000000000000113e-04,1.800000000000000113e-04,1.100000000000000039e-04,6.000000000000000000e+00,2.300000000000000000e+01
4.934700000000000000e+04,-1.000000000000000048e-04,-1.000000000000000082e-05,-2.000000000000000164e-05,-5.000000000000000240e-05,1.100000000000000039e-04,-1.800000000000000113e-04,1.800000000000000113e-04,1.100000000000000039e-04,6.000000000000000000e+00,2.300000000000000000e+01
4.934800000000000000e+04,-1.000000000000000048e-04,-1.000000000000000082e-05,-2.000000000000000164e-05,-5.000000000000000240e-05,1.100000000000000039e-04,-1.800000000000000113e-04,1.800000000000000113e-04,1.100000000000000039e-04,6.000000000000000000e+00,2.300000000000000000e+01
4.934900000000000000e+04,-1.000000000000000048e-04,-1.000000000000000082e-05,-2.000000000000000164e-05,-5.000000000000000240e-05,1.100000000000000039e-04,-1.800000000000000113e-04,1.800000000000000113e-04,1.100000000000000039e-04,6.000000000000000000e+00,2.300000000000000000e+01
4.935000000000000000e+04,5.999999999999999474e-05,1.000000000000000082e-05,-5.000000000000000240e-05,2.000000000000000164e-05,-1.000000000000000082e-05,-2.999999999999999737e-04,2.000000000000000164e-05,-1.000000000000000082e-05,6.000000000000000000e+00,2.300000000000000000e+01
4.935100000000000000e+04,5.999999999999999474e-05,1.000000000000000082e-05,-5.000000000000000240e-05,2.000000000000000164e-05,-1.000000000000000082e-05,-2.999999999999999737e-04,2.000000000000000164e-05,-1.000000000000000082e-05,6.000000000000000000e+00,2.300000000000000000e+01
4.935200000000000000e+04,5.999999999999999474e-05,1.000000000000000082e-05,-5.000000000000000240e-05,2.000000000000000164e-05,-1.000000000000000082e-05,-2.999999999999999737e-04,2.000000000000000164e-05,-1.000000000000000082e-05,6.000000000000000000e+00,2.300000000000000000e+01
4.935300000000000000e+04,5.999999999999999474e-05,1.000000000000000082e-05,-5.000000000000000240e-05,2.000000000000000164e-05,-1.000000000000000082e-05,-2.999999999999999737e-04,2.000000000000000164e-05,-1.000000000000000082e-05,6.000000000000000000e+00,2.300000000000000000e+01
4.935400000000000000e+04,5.999999999999999474e-05,1.000000000000000082e-05,-5.000000000000000240e-05,2.000000000000000164e-05,-1.000000000000000082e-05,-2.999999999999999737e-04,2.000000000000000164e-05,-1.000000000000000082e-05,6.000000000000000000e+00,2.300000000000000000e+01
4.935500000000000000e+04,5.999999999999999474e-05,1.000000000000000082e-05,-5.000000000000000240e-05,2.000000000000000164e-05,-1.000000000000000082e-05,-2.999999999999999737e-04,2.000000000000000164e-05,-1.000000000000000082e-05,6.000000000000000000e+00,2.300000000000000000e+01
4.935600000000000000e+04,5.999999999999999474e-05,1.000000000000000082e-05,-5.000000000000000240e-05,2.000000000000000164e-05,-1.000000000000000082e-05,-2.999999999999999737e-04,2.000000000000000164e-05,-1.000000000000000082e-05,6.000000000000000000e+00,2.300000000000000000e+01
4.935700000000000000e+04,5.999999999999999474e-05,1.000000000000000082e-05,-5.000000000000000240e-05,2.000000000000000164e-05,-1.000000000000000082e-05,-2.999999999999999737e-04,2.000000000000000164e-05,-1.000000000000000082e-05,6.000000000000000000e+00,2.300000000000000000e+01
4.935800000000000000e+04,5.999999999999999474e-05,1.000000000000000082e-05,-5.000000000000000240e-05,2.000000000000000164e-05,-1.000000000000000082e-05,-2.999999999999999737e-04,2.000000000000000164e-05,-1.000000000000000082e-05,6.000000000000000000e+00,2.300000000000000000e+01
4.935900000000000000e+04,5.999999999999999474e-05,1.000000000000000082e-05,-5.000000000000000240e-05,2.000000000000000164e-05,-1.000000000000000082e-05,-2.999999999999999737e-04,2.000000000000000164e-05,-1.000000000000000082e-05,6.000000000000000000e+00,2.300000000000000000e+01
4.936000000000000000e+04,5.999999999999999474e-05,1.000000000000000082e-05,-5.000000000000000240e-05,2.000000000000000164e-05,-1.000000000000000082e-05,-2.999999999999999737e-04,2.000000000000000164e-05,-1.000000000000000082e-05,6.000000000000000000e+00,2.300000000000000000e+01
4.936100000000000000e+04,5.999999999999999474e-05,1.000000000000000082e-05,-5.000000000000000240e-05,2.000000000000000164e-05,-1.000000000000000082e-05,-2.999999999999999737e-04,2.000000000000000164e-05,-1.000000000000000082e-05,6.000000000000000000e+00,2.300000000000000000e+01
4.936200000000000000e+04,5.999999999999999474e-05,1.000000000000000082e-05,-5.000000000000000240e-05,2.000000000000000164e-05,-1.000000000000000082e-05,-2.999999999999999737e-04,2.000000000000000164e-05,-1.000000000000000082e-05,6.000000000000000000e+00,2.300000000000000000e+01
4.936300000000000000e+04,5.999999999999999474e-05,1.000000000000000082e-05,-5.000000000000000240e-05,2.000000000000000164e-05,-1.000000000000000082e-05,-2.999999999999999737e-04,2.000000000000000164e-05,-1.000000000000000082e-05,6.000000000000000000e+00,2.300000000000000000e+01
4.936400000000000000e+04,5.999999999999999474e-05,1.000000000000000082e-05,-5.000000000000000240e-05,2.000000000000000164e-05,-1.000000000000000082e-05,-2.999999999999999737e-04,2.000000000000000164e-05,-1.000000000000000082e-05,6.000000000000000000e+00,2.300000000000000000e+01
4.936500000000000000e+04,5.999999999999999474e-05,1.000000000000000082e-05,-5.000000000000000240e-05,2.000000000000000164e-05,-1.000000000000000082e-05,-2.999999999999999737e-04,2.000000000000000164e-05,-1.000000000000000082e-05,6.000000000000000000e+00,2.300000000000000000e+01
4.936600000000000000e+04,5.999999999999999474e-05,1.000000000000000082e-05,-5.000000000000000240e-05,2.000000000000000164e-05,-1.000000000000000082e-05,-2.999999999999999737e-04,2.000000000000000164e-05,-1.000000000000000082e-05,6.000000000000000000e+00,2.300000000000000000e+01
4.936700000000000000e+04,-1.300000000000000157e-04,-5.999999999999999474e-05,-5.999999999999999474e-05,-2.000000000000000164e-05,-2.600000000000000314e-04,-7.900000000000000121e-04,-1.300000000000000157e-04,-5.200000000000000629e-04,6.000000000000000000e+00,2.300000000000000000e+01
4.936800000000000000e+04,-1.300000000000000157e-04,-1.000000000000000082e-05,-2.000000000000000164e-05,1.000000000000000082e-05,6.199999999999999999e-04,4.700000000000000401e-04,-1.000000000000000082e-05,-4.499999999999999877e-04,6.000000000000000000e+00,2.300000000000000000e+01
4.936900000000000000e+04,-1.300000000000000157e-04,-1.000000000000000082e-05,-2.000000000000000164e-05,1.000000000000000082e-05,6.199999999999999999e-04,4.700000000000000401e-04,-1.000000000000000082e-05,-4.499999999999999877e-04,6.000000000000000000e+00,2.300000000000000000e+01
4.937000000000000000e+04,-1.300000000000000157e-04,-1.000000000000000082e-05,-2.000000000000000164e-05,1.000000000000000082e-05,6.199999999999999999e-04,4.700000000000000401e-04,-1.000000000000000082e-05,-4.499999999999999877e-04,6.000000000000000000e+00,2.300000000000000000e+01
4.937100000000000000e+04,-1.300000000000000157e-04,-1.000000000000000082e-05,-2.000000000000000164e-05,1.000000000000000082e-05,6.199999999999999999e-04,4.700000000000000401e-04,-1.000000000000000082e-05,-4.499999999999999877e-04,6.000000000000000000e+00,2.300000000000000000e+01
4.937200000000000000e+04,-1.300000000000000157e-04,-1.000000000000000082e-05,-2.000000000000000164e-05,1.000000000000000082e-05,6.199999999999999999e-04,4.700000000000000401e-04,-1.000000000000000082e-05,-4.499999999999999877e-04,6.000000000000000000e+00,2.300000000000000000e+01
4.937300000000000000e+04,-1.300000000000000157e-04,-1.000000000000000082e-05,-2.000000000000000164e-05,1.000000000000000082e-05,6.199999999999999999e-04,4.700000000000000401e-04,-1.000000000000000082e-05,-4.499999999999999877e-04,6.000000000000000000e+00,2.300000000000000000e+01
4.937400000000000000e+04,-1.300000000000000157e-04,-1.000000000000000082e-05,-2.000000000000000164e-05,1.000000000000000082e-05,6.199999999999999999e-04,4.700000000000000401e-04,-1.000000000000000082e-05,-4.499999999999999877e-04,6.000000000000000000e+00,2.300000000000000000e+01
4.937500000000000000e+04,-1.300000000000000157e-04,-1.000000000000000082e-05,-2.000000000000000164e-05,1.000000000000000082e-05,6.199999999999999999e-04,4.700000000000000401e-04,-1.000000000000000082e-05,-4.499999999999999877e-04,6.000000000000000000e+00,2.300000000000000000e+01
4.937600000000000000e+04,-1.300000000000000157e-04,-1.000000000000000082e-05,-2.000000000000000164e-05,1.000000000000000082e-05,6.199999999999999999e-04,4.700000000000000401e-04,-1.000000000000000082e-05,-4.499999999999999877e-04,6.000000000000000000e+00,2.300000000000000000e+01
4.937700000000000000e+04,-1.300000000000000157e-04,-1.000000000000000082e-05,-2.000000000000000164e-05,1.000000000000000082e-05,6.199999999999999999e-04,4.700000000000000401e-04,-1.000000000000000082e-05,-4.499999999999999877e-04,6.000000000000000000e+00,2.300000000000000000e+01
4.937800000000000000e+04,-1.300000000000000157e-04,-1.000000000000000082e-05,-2.000000000000000164e-05,1.000000000000000082e-05,6.199999999999999999e-04,4.700000000000000401e-04,-1.000000000000000082e-05,-4.499999999999999877e-04,6.000000000000000000e+00,2.300000000000000000e+01
4.937900000000000000e+04,-1.300000000000000157e-04,-1.000000000000000082e-05,-2.000000000000000164e-05,1.000000000000000082e-05,6.199999999999999999e-04,4.700000000000000401e-04,-1.000000000000000082e-05,-4.499999999999999877e-04,6.000000000000000000e+00,2.300000000000000000e+01
4.938000000000000000e+04,-1.300000000000000157e-04,-1.000000000000000082e-05,-2.000000000000000164e-05,1.000000000000000082e-05,6.199999999999999999e-04,4.700000000000000401e-04,-1.000000000000000082e-05,-4.499999999999999877e-04,6.000000000000000000e+00,2.300000000000000000e+01
4.938100000000000000e+04,-1.300000000000000157e-04,-1.000000000000000082e-05,-2.000000000000000164e-05,1.000000000000000082e-05,6.199999999999999999e-04,4.700000000000000401e-04,-1.000000000000000082e-05,-4.499999999999999877e-04,6.000000000000000000e+00,2.300000000000000000e+01
4.938200000000000000e+04,-1.300000000000000157e-04,-1.000000000000000082e-05,-2.000000000000000164e-05,1.000000000000000082e-05,6.199999999999999999e-04,4.700000000000000401e-04,-1.000000000000000082e-05,-4.499999999999999877e-04,6.000000000000000000e+00,2.300000000000000000e+01
4.938300000000000000e+04,-1.300000000000000157e-04,-1.000000000000000082e-05,-2.000000000000000164e-05,1.000000000000000082e-05,6.199999999999999999e-04,4.700000000000000401e-04,-1.000000000000000082e-05,-4.499999999999999877e-04,6.000000000000000000e+00,2.300000000000000000e+01
4.938400000000000000e+04,-1.300000000000000157e-04,-1.000000000000000082e-05,-2.000000000000000164e-05,1.000000000000000082e-05,6.199999999999999999e-04,4.700000000000000401e-04,-1.000000000000000082e-05,-4.499999999999999877e-04,6.000000000000000000e+00,2.300000000000000000e+01
4.938500000000000000e+04,-1.300000000000000157e-04,-1.000000000000000082e-05,-2.000000000000000164e-05,1.000000000000000082e-05,6.199999999999999999e-04,4.700000000000000401e-04,-1.000000000000000082e-05,-4.499999999999999877e-04,6.000000000000000000e+00,2.300000000000000000e+01
4.938600000000000000e+04,-1.300000000000000157e-04,-1.000000000000000082e-05,-2.000000000000000164e-05,1.000000000000000082e-05,6.199999999999999999e-04,4.700000000000000401e-04,-1.000000000000000082e-05,-4.499999999999999877e-04,6.000000000000000000e+00,2.300000000000000000e+01
4.938800000000000000e+04,-1.300000000000000157e-04,-1.000000000000000082e-05,-2.000000000000000164e-05,1.000000000000000082e-05,6.199999999999999999e-04,4.700000000000000401e-04,-1.000000000000000082e-05,-4.499999999999999877e-04,6.000000000000000000e+00,2.300000000000000000e+01
4.938900000000000000e+04,-5.000000000000000240e-05,2.000000000000000164e-05,-2.000000000000000164e-05,-8.000000000000000654e-05,-3.600000000000000227e-04,-4.700000000000000401e-04,1.399999999999999877e-04,-8.300000000000001170e-04,6.000000000000000000e+00,2.300000000000000000e+01
4.939000000000000000e+04,-2.999999999999999737e-05,2.999999999999999737e-05,5.999999999999999474e-05,1.699999999999999851e-04,5.200000000000000629e-04,2.000000000000000096e-04,2.399999999999999790e-04,-1.800000000000000113e-04,6.000000000000000000e+00,2.300000000000000000e+01
4.939100000000000000e+04,-2.999999999999999737e-05,2.999999999999999737e-05,5.999999999999999474e-05,1.699999999999999851e-04,5.200000000000000629e-04,2.000000000000000096e-04,2.399999999999999790e-04,-1.800000000000000113e-04,6.000000000000000000e+00,2.300000000000000000e+01
4.939200000000000000e+04,-2.999999999999999737e-05,2.999999999999999737e-05,5.999999999999999474e-05,1.699999999999999851e-04,5.200000000000000629e-04,2.000000000000000096e-04,2.399999999999999790e-04,-1.800000000000000113e-04,6.000000000000000000e+00,2.300000000000000000e+01
4.939300000000000000e+04,-2.999999999999999737e-05,2.999999999999999737e-05,5.999999999999999474e-05,1.699999999999999851e-04,5.200000000000000629e-04,2.000000000000000096e-04,2.399999999999999790e-04,-1.800000000000000113e-04,6.000000000000000000e+00,2.300000000000000000e+01
4.939400000000000000e+04,-2.999999999999999737e-05,2.999999999999999737e-05,5.999999999999999474e-05,1.699999999999999851e-04,5.200000000000000629e-04,2.000000000000000096e-04,2.399999999999999790e-04,-1.800000000000000113e-04,6.000000000000000000e+00,2.300000000000000000e+01
4.939500000000000000e+04,-2.999999999999999737e-05,2.999999999999999737e-05,5.999999999999999474e-05,1.699999999999999851e-04,5.200000000000000629e-04,2.000000000000000096e-04,2.399999999999999790e-04,-1.800000000000000113e-04,6.000000000000000000e+00,2.300000000000000000e+01
4.939600000000000000e+04,-2.999999999999999737e-05,2.999999999999999737e-05,5.999999999999999474e-05,1.699999999999999851e-04,5.200000000000000629e-04,2.000000000000000096e-04,2.399999999999999790e-04,-1.800000000000000113e-04,6.000000000000000000e+00,2.300000000000000000e+01
4.939700000000000000e+04,-2.999999999999999737e-05,2.999999999999999737e-05,5.999999999999999474e-05,1.699999999999999851e-04,5.200000000000000629e-04,2.000000000000000096e-04,2.399999999999999790e-04,-1.800000000000000113e-04,6.000000000000000000e+00,2.300000000000000000e+01
4.939800000000000000e+04,-2.999999999999999737e-05,2.999999999999999737e-05,5.999999999999999474e-05,1.699999999999999851e-04,5.200000000000000629e-04,2.000000000000000096e-04,2.399999999999999790e-04,-1.800000000000000113e-04,6.000000000000000000e+00,2.300000000000000000e+01
4.939900000000000000e+04,-2.999999999999999737e-05,2.999999999999999737e-05,5.999999999999999474e-05,1.699999999999999851e-04,5.200000000000000629e-04,2.000000000000000096e-04,2.399999999999999790e-04,-1.800000000000000113e-04,6.000000000000000000e+00,2.300000000000000000e+01
4.940000000000000000e+04,-2.999999999999999737e-05,2.999999999999999737e-05,5.999999999999999474e-05,1.699999999999999851e-04,5.200000000000000629e-04,2.000000000000000096e-04,2.399999999999999790e-04,-1.800000000000000113e-04,6.000000000000000000e+00,2.300000000000000000e+01
4.940100000000000000e+04,-2.999999999999999737e-05,2.999999999999999737e-05,5.999999999999999474e-05,1.699999999999999851e-04,5.200000000000000629e-04,2.000000000000000096e-04,2.399999999999999790e-04,-1.800000000000000113e-04,6.000000000000000000e+00,2.300000000000000000e+01
4.940200000000000000e+04,-2.999999999999999737e-05,2.999999999999999737e-05,5.999999999999999474e-05,1.699999999999999851e-04,5.200000000000000629e-04,2.000000000000000096e-04,2.399999999999999790e-04,-1.800000000000000113e-04,6.000000000000000000e+00,2.300000000000000000e+01
4.940300000000000000e+04,-8.000000000000000654e-05,-4.000000000000000327e-05,0.000000000000000000e+00,-1.000000000000000082e-05,1.199999999999999895e-04,4.000000000000000192e-04,-4.000000000000000327e-05,-2.000000000000000096e-04,6.000000000000000000e+00,2.300000000000000000e+01
4.940400000000000000e+04,-8.000000000000000654e-05,-4.000000000000000327e-05,0.000000000000000000e+00,-1.000000000000000082e-05,1.199999999999999895e-04,4.000000000000000192e-04,-4.000000000000000327e-05,-2.000000000000000096e-04,6.000000000000000000e+00,2.300000000000000000e+01
4.940500000000000000e+04,-8.000000000000000654e-05,-4.000000000000000327e-05,0.000000000000000000e+00,-1.000000000000000082e-05,1.199999999999999895e-04,4.000000000000000192e-04,-4.000000000000000327e-05,-2.000000000000000096e-04,6.000000000000000000e+00,2.300000000000000000e+01
4.940600000000000000e+04,-8.000000000000000654e-05,-4.000000000000000327e-05,0.000000000000000000e+00,-1.000000000000000082e-05,1.199999999999999895e-04,4.000000000000000192e-04,-4.000000000000000327e-05,-2.000000000000000096e-04,6.000000000000000000e+00,2.300000000000000000e+01
4.940700000000000000e+04,-8.000000000000000654e-05,-4.000000000000000327e-05,0.000000000000000000e+00,-1.000000000000000082e-05,1.199999999999999895e-04,4.000000000000000192e-04,-4.000000000000000327e-05,-2.000000000000000096e-04,6.000000000000000000e+00,2.300000000000000000e+01
4.940800000000000000e+04,-8.000000000000000654e-05,-4.000000000000000327e-05,0.000000000000000000e+00,-1.000000000000000082e-05,1.199999999999999895e-04,4.000000000000000192e-04,-4.000000000000000327e-05,-2.000000000000000096e-04,6.000000000000000000e+00,2.300000000000000000e+01
4.940900000000000000e+04,-8.000000000000000654e-05,-4.000000000000000327e-05,0.000000000000000000e+00,-1.000000000000000082e-05,1.199999999999999895e-04,4.000000000000000192e-04,-4.000000000000000327e-05,-2.000000000000000096e-04,6.000000000000000000e+00,2.300000000000000000e+01
4.941000000000000000e+04,4.000000000000000327e-05,-5.999999999999999474e-05,-2.000000000000000164e-05,-9.000000000000000567e-05,-4.000000000000000192e-04,0.000000000000000000e+00,4.000000000000000327e-05,1.100000000000000039e-04,6.000000000000000000e+00,2.300000000000000000e+01
4.941100000000000000e+04,4.000000000000000327e-05,-5.999999999999999474e-05,-2.000000000000000164e-05,-9.000000000000000567e-05,-4.000000000000000192e-04,0.000000000000000000e+00,4.000000000000000327e-05,1.100000000000000039e-04,6.000000000000000000e+00,2.300000000000000000e+01
4.941200000000000000e+04,4.000000000000000327e-05,-5.999999999999999474e-05,-2.000000000000000164e-05,-9.000000000000000567e-05,-4.000000000000000192e-04,0.000000000000000000e+00,4.000000000000000327e-05,1.100000000000000039e-04,6.000000000000000000e+00,2.300000000000000000e+01
4.941300000000000000e+04,4.000000000000000327e-05,-5.999999999999999474e-05,-2.000000000000000164e-05,-9.000000000000000567e-05,-4.000000000000000192e-04,0.000000000000000000e+00,4.000000000000000327e-05,1.100000000000000039e-04,6.000000000000000000e+00,2.300000000000000000e+01
4.941400000000000000e+04,4.000000000000000327e-05,-5.999999999999999474e-05,-2.000000000000000164e-05,-9.000000000000000567e-05,-4.000000000000000192e-04,0.000000000000000000e+00,4.000000000000000327e-05,1.100000000000000039e-04,6.000000000000000000e+00,2.300000000000000000e+01
4.941500000000000000e+04,4.000000000000000327e-05,-5.999999999999999474e-05,-2.000000000000000164e-05,-9.000000000000000567e-05,-4.000000000000000192e-04,0.000000000000000000e+00,4.000000000000000327e-05,1.100000000000000039e-04,6.000000000000000000e+00,2.300000000000000000e+01
4.941600000000000000e+04,4.000000000000000327e-05,-5.999999999999999474e-05,-2.000000000000000164e-05,-9.000000000000000567e-05,-4.000000000000000192e-04,0.000000000000000000e+00,4.000000000000000327e-05,1.100000000000000039e-04,6.000000000000000000e+00,2.300000000000000000e+01
4.941700000000000000e+04,4.000000000000000327e-05,-5.999999999999999474e-05,-2.000000000000000164e-05,-9.000000000000000567e-05,-4.000000000000000192e-04,0.000000000000000000e+00,4.000000000000000327e-05,1.100000000000000039e-04,6.000000000000000000e+00,2.300000000000000000e+01
4.941800000000000000e+04,4.000000000000000327e-05,-5.999999999999999474e-05,-2.000000000000000164e-05,-9.000000000000000567e-05,-4.000000000000000192e-04,0.000000000000000000e+00,4.000000000000000327e-05,1.100000000000000039e-04,6.000000000000000000e+00,2.300000000000000000e+01
4.941900000000000000e+04,4.000000000000000327e-05,-5.999999999999999474e-05,-2.000000000000000164e-05,-9.000000000000000567e-05,-4.000000000000000192e-04,0.000000000000000000e+00,4.000000000000000327e-05,1.100000000000000039e-04,6.000000000000000000e+00,2.300000000000000000e+01
4.942000000000000000e+04,4.000000000000000327e-05,-5.999999999999999474e-05,-2.000000000000000164e-05,-9.000000000000000567e-05,-4.000000000000000192e-04,0.000000000000000000e+00,4.000000000000000327e-05,1.100000000000000039e-04,6.000000000000000000e+00,2.300000000000000000e+01
4.942100000000000000e+04,4.000000000000000327e-05,-5.999999999999999474e-05,-2.000000000000000164e-05,-9.000000000000000567e-05,-4.000000000000000192e-04,0.000000000000000000e+00,4.000000000000000327e-05,1.100000000000000039e-04,6.000000000000000000e+00,2.300000000000000000e+01
4.942200000000000000e+04,4.000000000000000327e-05,-5.999999999999999474e-05,-2.000000000000000164e-05,-9.000000000000000567e-05,-4.000000000000000192e-04,0.000000000000000000e+00,4.000000000000000327e-05,1.100000000000000039e-04,6.000000000000000000e+00,2.300000000000000000e+01
4.942300000000000000e+04,4.000000000000000327e-05,-5.999999999999999474e-05,-2.000000000000000164e-05,-9.000000000000000567e-05,-4.000000000000000192e-04,0.000000000000000000e+00,4.000000000000000327e-05,1.100000000000000039e-04,6.000000000000000000e+00,2.300000000000000000e+01
4.942400000000000000e+04,4.000000000000000327e-05,-5.999999999999999474e-05,-2.000000000000000164e-05,-9.000000000000000567e-05,-4.000000000000000192e-04,0.000000000000000000e+00,4.000000000000000327e-05,1.100000000000000039e-04,6.000000000000000000e+00,2.300000000000000000e+01
4.942500000000000000e+04,4.000000000000000327e-05,-5.999999999999999474e-05,-2.000000000000000164e-05,-9.000000000000000567e-05,-4.000000000000000192e-04,0.000000000000000000e+00,4.000000000000000327e-05,1.100000000000000039e-04,6.000000000000000000e+00,2.300000000000000000e+01
4.942600000000000000e+04,0.000000000000000000e+00,-2.000000000000000164e-05,2.999999999999999737e-05,1.000000000000000048e-04,2.900000000000000017e-04,4.000000000000000327e-05,5.000000000000000240e-05,-5.999999999999999474e-05,6.000000000000000000e+00,2.300000000000000000e+01
4.942700000000000000e+04,0.000000000000000000e+00,-2.000000000000000164e-05,2.999999999999999737e-05,1.000000000000000048e-04,2.900000000000000017e-04,4.000000000000000327e-05,5.000000000000000240e-05,-5.999999999999999474e-05,6.000000000000000000e+00,2.300000000000000000e+01
4.942800000000000000e+04,-4.000000000000000327e-05,-1.000000000000000082e-05,-1.000000000000000082e-05,-4.000000000000000327e-05,-6.999999999999999387e-05,-8.000000000000000654e-05,-5.000000000000000240e-05,6.999999999999999387e-05,6.000000000000000000e+00,2.300000000000000000e+01
4.942900000000000000e+04,-4.000000000000000327e-05,-1.000000000000000082e-05,-1.000000000000000082e-05,-4.000000000000000327e-05,-6.999999999999999387e-05,-8.000000000000000654e-05,-5.000000000000000240e-05,6.999999999999999387e-05,6.000000000000000000e+00,2.300000000000000000e+01
4.943000000000000000e+04,-4.000000000000000327e-05,-1.000000000000000082e-05,-1.000000000000000082e-05,-4.000000000000000327e-05,-6.999999999999999387e-05,-8.000000000000000654e-05,-5.000000000000000240e-05,6.999999999999999387e-05,6.000000000000000000e+00,2.300000000000000000e+01
4.943100000000000000e+04,-4.000000000000000327e-05,-1.000000000000000082e-05,-1.000000000000000082e-05,-4.000000000000000327e-05,-6.999999999999999387e-05,-8.000000000000000654e-05,-5.000000000000000240e-05,6.999999999999999387e-05,6.000000000000000000e+00,2.300000000000000000e+01
4.943200000000000000e+04,-4.000000000000000327e-05,-1.000000000000000082e-05,-1.000000000000000082e-05,-4.000000000000000327e-05,-6.999999999999999387e-05,-8.000000000000000654e-05,-5.000000000000000240e-05,6.999999999999999387e-05,6.000000000000000000e+00,2.300000000000000000e+01
4.943300000000000000e+04,-4.000000000000000327e-05,-1.000000000000000082e-05,-1.000000000000000082e-05,-4.000000000000000327e-05,-6.999999999999999387e-05,-8.000000000000000654e-05,-5.000000000000000240e-05,6.999999999999999387e-05,6.000000000000000000e+00,2.300000000000000000e+01
4.943400000000000000e+04,-4.000000000000000327e-05,-1.000000000000000082e-05,-1.000000000000000082e-05,-4.000000000000000327e-05,-6.999999999999999387e-05,-8.000000000000000654e-05,-5.000000000000000240e-05,6.999999999999999387e-05,6.000000000000000000e+00,2.300000000000000000e+01
4.943500000000000000e+04,-4.000000000000000327e-05,-1.000000000000000082e-05,-1.000000000000000082e-05,-4.000000000000000327e-05,-6.999999999999999387e-05,-8.000000000000000654e-05,-5.000000000000000240e-05,6.999999999999999387e-05,6.000000000000000000e+00,2.300000000000000000e+01
4.943600000000000000e+04,-4.000000000000000327e-05,-1.000000000000000082e-05,-1.000000000000000082e-05,-4.000000000000000327e-05,-6.999999999999999387e-05,-8.000000000000000654e-05,-5.000000000000000240e-05,6.999999999999999387e-05,6.000000000000000000e+00,2.300000000000000000e+01
4.943800000000000000e+04,-4.000000000000000327e-05,-1.000000000000000082e-05,-1.000000000000000082e-05,-4.000000000000000327e-05,-6.999999999999999387e-05,-8.000000000000000654e-05,-5.000000000000000240e-05,6.999999999999999387e-05,6.000000000000000000e+00,2.300000000000000000e+01
4.943900000000000000e+04,-4.000000000000000327e-05,-1.000000000000000082e-05,-1.000000000000000082e-05,-4.000000000000000327e-05,-6.999999999999999387e-05,-8.000000000000000654e-05,-5.000000000000000240e-05,6.999999999999999387e-05,6.000000000000000000e+00,2.300000000000000000e+01
4.944000000000000000e+04,-4.000000000000000327e-05,-1.000000000000000082e-05,-1.000000000000000082e-05,-4.000000000000000327e-05,-6.999999999999999387e-05,-8.000000000000000654e-05,-5.000000000000000240e-05,6.999999999999999387e-05,6.000000000000000000e+00,2.300000000000000000e+01
4.944100000000000000e+04,-4.000000000000000327e-05,-1.000000000000000082e-05,-1.000000000000000082e-05,-4.000000000000000327e-05,-6.999999999999999387e-05,-8.000000000000000654e-05,-5.000000000000000240e-05,6.999999999999999387e-05,6.000000000000000000e+00,2.300000000000000000e+01
4.944200000000000000e+04,-4.000000000000000327e-05,-1.000000000000000082e-05,-1.000000000000000082e-05,-4.000000000000000327e-05,-6.999999999999999387e-05,-8.000000000000000654e-05,-5.000000000000000240e-05,6.999999999999999387e-05,6.000000000000000000e+00,2.300000000000000000e+01
4.944300000000000000e+04,-4.000000000000000327e-05,-1.000000000000000082e-05,-1.000000000000000082e-05,-4.000000000000000327e-05,-6.999999999999999387e-05,-8.000000000000000654e-05,-5.000000000000000240e-05,6.999999999999999387e-05,6.000000000000000000e+00,2.300000000000000000e+01
4.944400000000000000e+04,-4.000000000000000327e-05,-1.000000000000000082e-05,-1.000000000000000082e-05,-4.000000000000000327e-05,-6.999999999999999387e-05,-8.000000000000000654e-05,-5.000000000000000240e-05,6.999999999999999387e-05,6.000000000000000000e+00,2.300000000000000000e+01
4.944500000000000000e+04,-4.000000000000000327e-05,-1.000000000000000082e-05,-1.000000000000000082e-05,-4.000000000000000327e-05,-6.999999999999999387e-05,-8.000000000000000654e-05,-5.000000000000000240e-05,6.999999999999999387e-05,6.000000000000000000e+00,2.300000000000000000e+01
4.944600000000000000e+04,-4.000000000000000327e-05,-1.000000000000000082e-05,-1.000000000000000082e-05,-4.000000000000000327e-05,-6.999999999999999387e-05,-8.000000000000000654e-05,-5.000000000000000240e-05,6.999999999999999387e-05,6.000000000000000000e+00,2.300000000000000000e+01
4.944700000000000000e+04,-4.000000000000000327e-05,-1.000000000000000082e-05,-1.000000000000000082e-05,-4.000000000000000327e-05,-6.999999999999999387e-05,-8.000000000000000654e-05,-5.000000000000000240e-05,6.999999999999999387e-05,6.000000000000000000e+00,2.300000000000000000e+01
4.944800000000000000e+04,0.000000000000000000e+00,-4.000000000000000327e-05,2.999999999999999737e-05,-5.999999999999999474e-05,-1.499999999999999869e-04,-4.799999999999999580e-04,4.000000000000000327e-05,3.099999999999999999e-04,6.000000000000000000e+00,2.300000000000000000e+01
4.944900000000000000e+04,0.000000000000000000e+00,-4.000000000000000327e-05,2.999999999999999737e-05,-5.999999999999999474e-05,-1.499999999999999869e-04,-4.799999999999999580e-04,4.000000000000000327e-05,3.099999999999999999e-04,6.000000000000000000e+00,2.300000000000000000e+01
4.945000000000000000e+04,-2.000000000000000096e-04,4.000000000000000327e-05,-1.100000000000000039e-04,-1.000000000000000048e-04,-1.899999999999999834e-04,-1.199999999999999895e-04,2.000000000000000164e-05,-4.899999999999999842e-04,6.000000000000000000e+00,2.300000000000000000e+01
4.945100000000000000e+04,5.000000000000000240e-05,-1.100000000000000039e-04,0.000000000000000000e+00,-4.000000000000000327e-05,-1.399999999999999877e-04,2.700000000000000035e-04,-1.300000000000000157e-04,-5.999999999999999474e-05,6.000000000000000000e+00,2.300000000000000000e+01
4.945200000000000000e+04,5.000000000000000240e-05,-1.100000000000000039e-04,0.000000000000000000e+00,-4.000000000000000327e-05,-1.399999999999999877e-04,2.700000000000000035e-04,-1.300000000000000157e-04,-5.999999999999999474e-05,6.000000000000000000e+00,2.300000000000000000e+01
4.945300000000000000e+04,5.000000000000000240e-05,-1.100000000000000039e-04,0.000000000000000000e+00,-4.000000000000000327e-05,-1.399999999999999877e-04,2.700000000000000035e-04,-1.300000000000000157e-04,-5.999999999999999474e-05,6.000000000000000000e+00,2.300000000000000000e+01
4.945400000000000000e+04,5.000000000000000240e-05,-1.100000000000000039e-04,0.000000000000000000e+00,-4.000000000000000327e-05,-1.399999999999999877e-04,2.700000000000000035e-04,-1.300000000000000157e-04,-5.999999999999999474e-05,6.000000000000000000e+00,2.300000000000000000e+01
4.945500000000000000e+04,5.000000000000000240e-05,-1.100000000000000039e-04,0.000000000000000000e+00,-4.000000000000000327e-05,-1.399999999999999877e-04,2.700000000000000035e-04,-1.300000000000000157e-04,-5.999999999999999474e-05,6.000000000000000000e+00,2.300000000000000000e+01
4.945600000000000000e+04,5.000000000000000240e-05,-1.100000000000000039e-04,0.000000000000000000e+00,-4.000000000000000327e-05,-1.399999999999999877e-04,2.700000000000000035e-04,-1.300000000000000157e-04,-5.999999999999999474e-05,6.000000000000000000e+00,2.300000000000000000e+01
4.945700000000000000e+04,5.000000000000000240e-05,-1.100000000000000039e-04,0.000000000000000000e+00,-4.000000000000000327e-05,-1.399999999999999877e-04,2.700000000000000035e-04,-1.300000000000000157e-04,-5.999999999999999474e-05,6.000000000000000000e+00,2.300000000000000000e+01
4.945800000000000000e+04,5.000000000000000240e-05,-1.100000000000000039e-04,0.000000000000000000e+00,-4.000000000000000327e-05,-1.399999999999999877e-04,2.700000000000000035e-04,-1.300000000000000157e-04,-5.999999999999999474e-05,6.000000000000000000e+00,2.300000000000000000e+01
4.945900000000000000e+04,5.000000000000000240e-05,-1.100000000000000039e-04,0.000000000000000000e+00,-4.000000000000000327e-05,-1.399999999999999877e-04,2.700000000000000035e-04,-1.300000000000000157e-04,-5.999999999999999474e-05,6.000000000000000000e+00,2.300000000000000000e+01
4.946000000000000000e+04,5.000000000000000240e-05,-1.100000000000000039e-04,0.000000000000000000e+00,-4.000000000000000327e-05,-1.399999999999999877e-04,2.700000000000000035e-04,-1.300000000000000157e-04,-5.999999999999999474e-05,6.000000000000000000e+00,2.300000000000000000e+01
4.946100000000000000e+04,5.000000000000000240e-05,-1.100000000000000039e-04,0.000000000000000000e+00,-4.000000000000000327e-05,-1.399999999999999877e-04,2.700000000000000035e-04,-1.300000000000000157e-04,-5.999999999999999474e-05,6.000000000000000000e+00,2.300000000000000000e+01
4.946200000000000000e+04,5.000000000000000240e-05,-1.100000000000000039e-04,0.000000000000000000e+00,-4.000000000000000327e-05,-1.399999999999999877e-04,2.700000000000000035e-04,-1.300000000000000157e-04,-5.999999999999999474e-05,6.000000000000000000e+00,2.300000000000000000e+01
4.946300000000000000e+04,2.999999999999999737e-05,2.000000000000000164e-05,5.999999999999999474e-05,5.999999999999999474e-05,5.900000000000000296e-04,1.600000000000000131e-04,-9.000000000000000567e-05,-5.000000000000000240e-05,6.000000000000000000e+00,2.300000000000000000e+01
4.946400000000000000e+04,2.999999999999999737e-05,2.000000000000000164e-05,5.999999999999999474e-05,5.999999999999999474e-05,5.900000000000000296e-04,1.600000000000000131e-04,-9.000000000000000567e-05,-5.000000000000000240e-05,6.000000000000000000e+00,2.300000000000000000e+01
4.946500000000000000e+04,2.999999999999999737e-05,2.000000000000000164e-05,5.999999999999999474e-05,5.999999999999999474e-05,5.900000000000000296e-04,1.600000000000000131e-04,-9.000000000000000567e-05,-5.000000000000000240e-05,6.000000000000000000e+00,2.300000000000000000e+01
4.946600000000000000e+04,2.999999999999999737e-05,2.000000000000000164e-05,5.999999999999999474e-05,5.999999999999999474e-05,5.900000000000000296e-04,1.600000000000000131e-04,-9.000000000000000567e-05,-5.000000000000000240e-05,6.000000000000000000e+00,2.300000000000000000e+01
4.946700000000000000e+04,2.999999999999999737e-05,2.000000000000000164e-05,5.999999999999999474e-05,5.999999999999999474e-05,5.900000000000000296e-04,1.600000000000000131e-04,-9.000000000000000567e-05,-5.000000000000000240e-05,6.000000000000000000e+00,2.300000000000000000e+01
4.946800000000000000e+04,2.999999999999999737e-05,2.000000000000000164e-05,5.999999999999999474e-05,5.999999999999999474e-05,5.900000000000000296e-04,1.600000000000000131e-04,-9.000000000000000567e-05,-5.000000000000000240e-05,6.000000000000000000e+00,2.300000000000000000e+01
4.946900000000000000e+04,2.999999999999999737e-05,2.000000000000000164e-05,5.999999999999999474e-05,5.999999999999999474e-05,5.900000000000000296e-04,1.600000000000000131e-04,-9.000000000000000567e-05,-5.000000000000000240e-05,6.000000000000000000e+00,2.300000000000000000e+01
4.947000000000000000e+04,5.999999999999999474e-05,-1.000000000000000082e-05,-6.999999999999999387e-05,-1.100000000000000039e-04,-3.499999999999999964e-04,-5.999999999999999474e-05,-2.999999999999999737e-05,6.999999999999999387e-05,6.000000000000000000e+00,2.300000000000000000e+01
4.947100000000000000e+04,5.999999999999999474e-05,-1.000000000000000082e-05,-6.999999999999999387e-05,-1.100000000000000039e-04,-3.499999999999999964e-04,-5.999999999999999474e-05,-2.999999999999999737e-05,6.999999999999999387e-05,6.000000000000000000e+00,2.300000000000000000e+01
4.947200000000000000e+04,5.999999999999999474e-05,-1.000000000000000082e-05,-6.999999999999999387e-05,-1.100000000000000039e-04,-3.499999999999999964e-04,-5.999999999999999474e-05,-2.999999999999999737e-05,6.999999999999999387e-05,6.000000000000000000e+00,2.300000000000000000e+01
4.947300000000000000e+04,5.999999999999999474e-05,-1.000000000000000082e-05,-6.999999999999999387e-05,-1.100000000000000039e-04,-3.499999999999999964e-04,-5.999999999999999474e-05,-2.999999999999999737e-05,6.999999999999999387e-05,6.000000000000000000e+00,2.300000000000000000e+01
4.947400000000000000e+04,5.999999999999999474e-05,-1.000000000000000082e-05,-6.999999999999999387e-05,-1.100000000000000039e-04,-3.499999999999999964e-04,-5.999999999999999474e-05,-2.999999999999999737e-05,6.999999999999999387e-05,6.000000000000000000e+00,2.300000000000000000e+01
4.947500000000000000e+04,5.999999999999999474e-05,-1.000000000000000082e-05,-6.999999999999999387e-05,-1.100000000000000039e-04,-3.499999999999999964e-04,-5.999999999999999474e-05,-2.999999999999999737e-05,6.999999999999999387e-05,6.000000000000000000e+00,2.300000000000000000e+01
4.947600000000000000e+04,5.999999999999999474e-05,-1.000000000000000082e-05,-6.999999999999999387e-05,-1.100000000000000039e-04,-3.499999999999999964e-04,-5.999999999999999474e-05,-2.999999999999999737e-05,6.999999999999999387e-05,6.000000000000000000e+00,2.300000000000000000e+01
4.947700000000000000e+04,5.999999999999999474e-05,-1.000000000000000082e-05,-6.999999999999999387e-05,-1.100000000000000039e-04,-3.499999999999999964e-04,-5.999999999999999474e-05,-2.999999999999999737e-05,6.999999999999999387e-05,6.000000000000000000e+00,2.300000000000000000e+01
4.947800000000000000e+04,5.999999999999999474e-05,-1.000000000000000082e-05,-6.999999999999999387e-05,-1.100000000000000039e-04,-3.499999999999999964e-04,-5.999999999999999474e-05,-2.999999999999999737e-05,6.999999999999999387e-05,6.000000000000000000e+00,2.300000000000000000e+01
4.947900000000000000e+04,5.999999999999999474e-05,-1.000000000000000082e-05,-6.999999999999999387e-05,-1.100000000000000039e-04,-3.499999999999999964e-04,-5.999999999999999474e-05,-2.999999999999999737e-05,6.999999999999999387e-05,6.000000000000000000e+00,2.300000000000000000e+01
4.948000000000000000e+04,5.999999999999999474e-05,-1.000000000000000082e-05,-6.999999999999999387e-05,-1.100000000000000039e-04,-3.499999999999999964e-04,-5.999999999999999474e-05,-2.999999999999999737e-05,6.999999999999999387e-05,6.000000000000000000e+00,2.300000000000000000e+01
4.948100000000000000e+04,5.999999999999999474e-05,-1.000000000000000082e-05,-6.999999999999999387e-05,-1.100000000000000039e-04,-3.499999999999999964e-04,-5.999999999999999474e-05,-2.999999999999999737e-05,6.999999999999999387e-05,6.000000000000000000e+00,2.300000000000000000e+01
4.948200000000000000e+04,5.999999999999999474e-05,-1.000000000000000082e-05,-6.999999999999999387e-05,-1.100000000000000039e-04,-3.499999999999999964e-04,-5.999999999999999474e-05,-2.999999999999999737e-05,6.999999999999999387e-05,6.000000000000000000e+00,2.300000000000000000e+01
4.948300000000000000e+04,5.999999999999999474e-05,-1.000000000000000082e-05,-6.999999999999999387e-05,-1.100000000000000039e-04,-3.499999999999999964e-04,-5.999999999999999474e-05,-2.999999999999999737e-05,6.999999999999999387e-05,6.000000000000000000e+00,2.300000000000000000e+01
4.948400000000000000e+04,5.999999999999999474e-05,-1.000000000000000082e-05,-6.999999999999999387e-05,-1.100000000000000039e-04,-3.499999999999999964e-04,-5.999999999999999474e-05,-2.999999999999999737e-05,6.999999999999999387e-05,6.000000000000000000e+00,2.300000000000000000e+01
4.948500000000000000e+04,5.999999999999999474e-05,-1.000000000000000082e-05,-6.999999999999999387e-05,-1.100000000000000039e-04,-3.499999999999999964e-04,-5.999999999999999474e-05,-2.999999999999999737e-05,6.999999999999999387e-05,6.000000000000000000e+00,2.300000000000000000e+01
4.948600000000000000e+04,4.000000000000000327e-05,-2.999999999999999737e-05,1.000000000000000082e-05,2.999999999999999737e-05,1.800000000000000113e-04,9.000000000000000567e-05,1.399999999999999877e-04,-2.399999999999999790e-04,6.000000000000000000e+00,2.300000000000000000e+01
4.948800000000000000e+04,-6.999999999999999387e-05,5.000000000000000240e-05,1.000000000000000082e-05,1.300000000000000157e-04,3.899999999999999929e-04,-4.799999999999999580e-04,-2.999999999999999737e-05,-6.999999999999999387e-05,6.000000000000000000e+00,2.300000000000000000e+01
4.949000000000000000e+04,-6.999999999999999387e-05,5.000000000000000240e-05,1.000000000000000082e-05,1.300000000000000157e-04,3.899999999999999929e-04,-4.799999999999999580e-04,-2.999999999999999737e-05,-6.999999999999999387e-05,6.000000000000000000e+00,2.300000000000000000e+01
4.949100000000000000e+04,-6.999999999999999387e-05,5.000000000000000240e-05,1.000000000000000082e-05,1.300000000000000157e-04,3.899999999999999929e-04,-4.799999999999999580e-04,-2.999999999999999737e-05,-6.999999999999999387e-05,6.000000000000000000e+00,2.300000000000000000e+01
4.949200000000000000e+04,-6.999999999999999387e-05,5.000000000000000240e-05,1.000000000000000082e-05,1.300000000000000157e-04,3.899999999999999929e-04,-4.799999999999999580e-04,-2.999999999999999737e-05,-6.999999999999999387e-05,6.000000000000000000e+00,2.300000000000000000e+01
4.949300000000000000e+04,-6.999999999999999387e-05,5.000000000000000240e-05,1.000000000000000082e-05,1.300000000000000157e-04,3.899999999999999929e-04,-4.799999999999999580e-04,-2.999999999999999737e-05,-6.999999999999999387e-05,6.000000000000000000e+00,2.300000000000000000e+01
4.949400000000000000e+04,-6.999999999999999387e-05,5.000000000000000240e-05,1.000000000000000082e-05,1.300000000000000157e-04,3.899999999999999929e-04,-4.799999999999999580e-04,-2.999999999999999737e-05,-6.999999999999999387e-05,6.000000000000000000e+00,2.300000000000000000e+01
4.949600000000000000e+04,-6.999999999999999387e-05,5.000000000000000240e-05,1.000000000000000082e-05,1.300000000000000157e-04,3.899999999999999929e-04,-4.799999999999999580e-04,-2.999999999999999737e-05,-6.999999999999999387e-05,6.000000000000000000e+00,2.300000000000000000e+01
4.949700000000000000e+04,-6.999999999999999387e-05,5.000000000000000240e-05,1.000000000000000082e-05,1.300000000000000157e-04,3.899999999999999929e-04,-4.799999999999999580e-04,-2.999999999999999737e-05,-6.999999999999999387e-05,6.000000000000000000e+00,2.300000000000000000e+01
4.949800000000000000e+04,-6.999999999999999387e-05,5.000000000000000240e-05,1.000000000000000082e-05,1.300000000000000157e-04,3.899999999999999929e-04,-4.799999999999999580e-04,-2.999999999999999737e-05,-6.999999999999999387e-05,6.000000000000000000e+00,2.300000000000000000e+01
4.949900000000000000e+04,-6.999999999999999387e-05,5.000000000000000240e-05,1.000000000000000082e-05,1.300000000000000157e-04,3.899999999999999929e-04,-4.799999999999999580e-04,-2.999999999999999737e-05,-6.999999999999999387e-05,6.000000000000000000e+00,2.300000000000000000e+01
4.950000000000000000e+04,-6.999999999999999387e-05,5.000000000000000240e-05,1.000000000000000082e-05,1.300000000000000157e-04,3.899999999999999929e-04,-4.799999999999999580e-04,-2.999999999999999737e-05,-6.999999999999999387e-05,6.000000000000000000e+00,2.300000000000000000e+01
4.950100000000000000e+04,-6.999999999999999387e-05,5.000000000000000240e-05,1.000000000000000082e-05,1.300000000000000157e-04,3.899999999999999929e-04,-4.799999999999999580e-04,-2.999999999999999737e-05,-6.999999999999999387e-05,6.000000000000000000e+00,2.300000000000000000e+01
4.950200000000000000e+04,-6.999999999999999387e-05,5.000000000000000240e-05,1.000000000000000082e-05,1.300000000000000157e-04,3.899999999999999929e-04,-4.799999999999999580e-04,-2.999999999999999737e-05,-6.999999999999999387e-05,6.000000000000000000e+00,2.300000000000000000e+01
4.950300000000000000e+04,-6.999999999999999387e-05,5.000000000000000240e-05,1.000000000000000082e-05,1.300000000000000157e-04,3.899999999999999929e-04,-4.799999999999999580e-04,-2.999999999999999737e-05,-6.999999999999999387e-05,6.000000000000000000e+00,2.300000000000000000e+01
4.950400000000000000e+04,-6.999999999999999387e-05,5.000000000000000240e-05,1.000000000000000082e-05,1.300000000000000157e-04,3.899999999999999929e-04,-4.799999999999999580e-04,-2.999999999999999737e-05,-6.999999999999999387e-05,6.000000000000000000e+00,2.300000000000000000e+01
4.950500000000000000e+04,-6.999999999999999387e-05,5.000000000000000240e-05,1.000000000000000082e-05,1.300000000000000157e-04,3.899999999999999929e-04,-4.799999999999999580e-04,-2.999999999999999737e-05,-6.999999999999999387e-05,6.000000000000000000e+00,2.300000000000000000e+01
4.950600000000000000e+04,-6.999999999999999387e-05,5.000000000000000240e-05,1.000000000000000082e-05,1.300000000000000157e-04,3.899999999999999929e-04,-4.799999999999999580e-04,-2.999999999999999737e-05,-6.999999999999999387e-05,6.000000000000000000e+00,2.300000000000000000e+01
4.950700000000000000e+04,-6.999999999999999387e-05,5.000000000000000240e-05,1.000000000000000082e-05,1.300000000000000157e-04,3.899999999999999929e-04,-4.799999999999999580e-04,-2.999999999999999737e-05,-6.999999999999999387e-05,6.000000000000000000e+00,2.300000000000000000e+01
4.950800000000000000e+04,-6.999999999999999387e-05,5.000000000000000240e-05,1.000000000000000082e-05,1.300000000000000157e-04,3.899999999999999929e-04,-4.799999999999999580e-04,-2.999999999999999737e-05,-6.999999999999999387e-05,6.000000000000000000e+00,2.300000000000000000e+01
4.950900000000000000e+04,-2.999999999999999737e-05,-1.000000000000000082e-05,-6.999999999999999387e-05,-2.999999999999999737e-05,-3.099999999999999999e-04,-3.600000000000000227e-04,9.000000000000000567e-05,-2.299999999999999799e-04,6.000000000000000000e+00,2.300000000000000000e+01
4.951000000000000000e+04,-5.999999999999999474e-05,0.000000000000000000e+00,-2.000000000000000164e-05,-1.000000000000000082e-05,6.999999999999999387e-05,-1.000000000000000082e-05,1.100000000000000039e-04,6.999999999999999387e-05,6.000000000000000000e+00,2.300000000000000000e+01
4.951100000000000000e+04,-5.999999999999999474e-05,0.000000000000000000e+00,-2.000000000000000164e-05,-1.000000000000000082e-05,6.999999999999999387e-05,-1.000000000000000082e-05,1.100000000000000039e-04,6.999999999999999387e-05,6.000000000000000000e+00,2.300000000000000000e+01
4.951200000000000000e+04,-5.999999999999999474e-05,0.000000000000000000e+00,-2.000000000000000164e-05,-1.000000000000000082e-05,6.999999999999999387e-05,-1.000000000000000082e-05,1.100000000000000039e-04,6.999999999999999387e-05,6.000000000000000000e+00,2.300000000000000000e+01
4.951300000000000000e+04,-5.999999999999999474e-05,0.000000000000000000e+00,-2.000000000000000164e-05,-1.000000000000000082e-05,6.999999999999999387e-05,-1.000000000000000082e-05,1.100000000000000039e-04,6.999999999999999387e-05,6.000000000000000000e+00,2.300000000000000000e+01
4.951400000000000000e+04,-5.999999999999999474e-05,0.000000000000000000e+00,-2.000000000000000164e-05,-1.000000000000000082e-05,6.999999999999999387e-05,-1.000000000000000082e-05,1.100000000000000039e-04,6.999999999999999387e-05,6.000000000000000000e+00,2.300000000000000000e+01
4.951500000000000000e+04,-5.999999999999999474e-05,0.000000000000000000e+00,-2.000000000000000164e-05,-1.000000000000000082e-05,6.999999999999999387e-05,-1.000000000000000082e-05,1.100000000000000039e-04,6.999999999999999387e-05,6.000000000000000000e+00,2.300000000000000000e+01
4.951600000000000000e+04,-5.999999999999999474e-05,0.000000000000000000e+00,-2.000000000000000164e-05,-1.000000000000000082e-05,6.999999999999999387e-05,-1.000000000000000082e-05,1.100000000000000039e-04,6.999999999999999387e-05,6.000000000000000000e+00,2.300000000000000000e+01
4.951700000000000000e+04,-5.999999999999999474e-05,0.000000000000000000e+00,-2.000000000000000164e-05,-1.000000000000000082e-05,6.999999999999999387e-05,-1.000000000000000082e-05,1.100000000000000039e-04,6.999999999999999387e-05,6.000000000000000000e+00,2.300000000000000000e+01
4.951800000000000000e+04,-5.999999999999999474e-05,0.000000000000000000e+00,-2.000000000000000164e-05,-1.000000000000000082e-05,6.999999999999999387e-05,-1.000000000000000082e-05,1.100000000000000039e-04,6.999999999999999387e-05,6.000000000000000000e+00,2.300000000000000000e+01
4.951900000000000000e+04,-5.999999999999999474e-05,0.000000000000000000e+00,-2.000000000000000164e-05,-1.000000000000000082e-05,6.999999999999999387e-05,-1.000000000000000082e-05,1.100000000000000039e-04,6.999999999999999387e-05,6.000000000000000000e+00,2.300000000000000000e+01
4.952000000000000000e+04,-5.999999999999999474e-05,0.000000000000000000e+00,-2.000000000000000164e-05,-1.000000000000000082e-05,6.999999999999999387e-05,-1.000000000000000082e-05,1.100000000000000039e-04,6.999999999999999387e-05,6.000000000000000000e+00,2.300000000000000000e+01
4.952100000000000000e+04,-5.999999999999999474e-05,0.000000000000000000e+00,-2.000000000000000164e-05,-1.000000000000000082e-05,6.999999999999999387e-05,-1.000000000000000082e-05,1.100000000000000039e-04,6.999999999999999387e-05,6.000000000000000000e+00,2.300000000000000000e+01
4.952200000000000000e+04,-5.999999999999999474e-05,0.000000000000000000e+00,-2.000000000000000164e-05,-1.000000000000000082e-05,6.999999999999999387e-05,-1.000000000000000082e-05,1.100000000000000039e-04,6.999999999999999387e-05,6.000000000000000000e+00,2.300000000000000000e+01
4.952300000000000000e+04,1.600000000000000131e-04,-1.000000000000000082e-05,-2.000000000000000164e-05,-1.000000000000000082e-05,-2.399999999999999790e-04,-3.600000000000000227e-04,-8.000000000000000654e-05,1.069999999999999988e-03,6.000000000000000000e+00,2.300000000000000000e+01
4.952400000000000000e+04,1.600000000000000131e-04,-1.000000000000000082e-05,-2.000000000000000164e-05,-1.000000000000000082e-05,-2.399999999999999790e-04,-3.600000000000000227e-04,-8.000000000000000654e-05,1.069999999999999988e-03,6.000000000000000000e+00,2.300000000000000000e+01
4.952500000000000000e+04,1.600000000000000131e-04,-1.000000000000000082e-05,-2.000000000000000164e-05,-1.000000000000000082e-05,-2.399999999999999790e-04,-3.600000000000000227e-04,-8.000000000000000654e-05,1.069999999999999988e-03,6.000000000000000000e+00,2.300000000000000000e+01
4.952600000000000000e+04,1.600000000000000131e-04,-1.000000000000000082e-05,-2.000000000000000164e-05,-1.000000000000000082e-05,-2.399999999999999790e-04,-3.600000000000000227e-04,-8.000000000000000654e-05,1.069999999999999988e-03,6.000000000000000000e+00,2.300000000000000000e+01
4.952700000000000000e+04,1.600000000000000131e-04,-1.000000000000000082e-05,-2.000000000000000164e-05,-1.000000000000000082e-05,-2.399999999999999790e-04,-3.600000000000000227e-04,-8.000000000000000654e-05,1.069999999999999988e-03,6.000000000000000000e+00,2.300000000000000000e+01
4.952800000000000000e+04,1.600000000000000131e-04,-1.000000000000000082e-05,-2.000000000000000164e-05,-1.000000000000000082e-05,-2.399999999999999790e-04,-3.600000000000000227e-04,-8.000000000000000654e-05,1.069999999999999988e-03,6.000000000000000000e+00,2.300000000000000000e+01
4.952900000000000000e+04,1.600000000000000131e-04,-1.000000000000000082e-05,-2.000000000000000164e-05,-1.000000000000000082e-05,-2.399999999999999790e-04,-3.600000000000000227e-04,-8.000000000000000654e-05,1.069999999999999988e-03,6.000000000000000000e+00,2.300000000000000000e+01
4.953000000000000000e+04,5.000000000000000240e-05,-2.000000000000000164e-05,-1.000000000000000082e-05,-8.000000000000000654e-05,-3.200000000000000262e-04,8.000000000000000654e-05,-1.300000000000000157e-04,1.800000000000000113e-04,6.000000000000000000e+00,2.300000000000000000e+01
4.953100000000000000e+04,5.000000000000000240e-05,-2.000000000000000164e-05,-1.000000000000000082e-05,-8.000000000000000654e-05,-3.200000000000000262e-04,8.000000000000000654e-05,-1.300000000000000157e-04,1.800000000000000113e-04,6.000000000000000000e+00,2.300000000000000000e+01
4.953200000000000000e+04,5.000000000000000240e-05,-2.000000000000000164e-05,-1.000000000000000082e-05,-8.000000000000000654e-05,-3.200000000000000262e-04,8.000000000000000654e-05,-1.300000000000000157e-04,1.800000000000000113e-04,6.000000000000000000e+00,2.300000000000000000e+01
4.953300000000000000e+04,5.000000000000000240e-05,-2.000000000000000164e-05,-1.000000000000000082e-05,-8.000000000000000654e-05,-3.200000000000000262e-04,8.000000000000000654e-05,-1.300000000000000157e-04,1.800000000000000113e-04,6.000000000000000000e+00,2.300000000000000000e+01
4.953400000000000000e+04,5.000000000000000240e-05,-2.000000000000000164e-05,-1.000000000000000082e-05,-8.000000000000000654e-05,-3.200000000000000262e-04,8.000000000000000654e-05,-1.300000000000000157e-04,1.800000000000000113e-04,6.000000000000000000e+00,2.300000000000000000e+01
4.953500000000000000e+04,5.000000000000000240e-05,-2.000000000000000164e-05,-1.000000000000000082e-05,-8.000000000000000654e-05,-3.200000000000000262e-04,8.000000000000000654e-05,-1.300000000000000157e-04,1.800000000000000113e-04,6.000000000000000000e+00,2.300000000000000000e+01
4.953600000000000000e+04,5.000000000000000240e-05,-2.000000000000000164e-05,-1.000000000000000082e-05,-8.000000000000000654e-05,-3.200000000000000262e-04,8.000000000000000654e-05,-1.300000000000000157e-04,1.800000000000000113e-04,6.000000000000000000e+00,2.300000000000000000e+01
4.953800000000000000e+04,5.000000000000000240e-05,-2.000000000000000164e-05,-1.000000000000000082e-05,-8.000000000000000654e-05,-3.200000000000000262e-04,8.000000000000000654e-05,-1.300000000000000157e-04,1.800000000000000113e-04,6.000000000000000000e+00,2.300000000000000000e+01
4.953900000000000000e+04,5.000000000000000240e-05,-2.000000000000000164e-05,-1.000000000000000082e-05,-8.000000000000000654e-05,-3.200000000000000262e-04,8.000000000000000654e-05,-1.300000000000000157e-04,1.800000000000000113e-04,6.000000000000000000e+00,2.300000000000000000e+01
4.954000000000000000e+04,5.000000000000000240e-05,-2.000000000000000164e-05,-1.000000000000000082e-05,-8.000000000000000654e-05,-3.200000000000000262e-04,8.000000000000000654e-05,-1.300000000000000157e-04,1.800000000000000113e-04,6.000000000000000000e+00,2.300000000000000000e+01
4.954100000000000000e+04,5.000000000000000240e-05,-2.000000000000000164e-05,-1.000000000000000082e-05,-8.000000000000000654e-05,-3.200000000000000262e-04,8.000000000000000654e-05,-1.300000000000000157e-04,1.800000000000000113e-04,6.000000000000000000e+00,2.300000000000000000e+01
4.954200000000000000e+04,5.000000000000000240e-05,-2.000000000000000164e-05,-1.000000000000000082e-05,-8.000000000000000654e-05,-3.200000000000000262e-04,8.000000000000000654e-05,-1.300000000000000157e-04,1.800000000000000113e-04,6.000000000000000000e+00,2.300000000000000000e+01
4.954300000000000000e+04,5.000000000000000240e-05,-2.000000000000000164e-05,-1.000000000000000082e-05,-8.000000000000000654e-05,-3.200000000000000262e-04,8.000000000000000654e-05,-1.300000000000000157e-04,1.800000000000000113e-04,6.000000000000000000e+00,2.300000000000000000e+01
4.954400000000000000e+04,5.000000000000000240e-05,-2.000000000000000164e-05,-1.000000000000000082e-05,-8.000000000000000654e-05,-3.200000000000000262e-04,8.000000000000000654e-05,-1.300000000000000157e-04,1.800000000000000113e-04,6.000000000000000000e+00,2.300000000000000000e+01
4.954500000000000000e+04,5.000000000000000240e-05,-2.000000000000000164e-05,-1.000000000000000082e-05,-8.000000000000000654e-05,-3.200000000000000262e-04,8.000000000000000654e-05,-1.300000000000000157e-04,1.800000000000000113e-04,6.000000000000000000e+00,2.300000000000000000e+01
4.954600000000000000e+04,-2.000000000000000164e-05,1.000000000000000082e-05,0.000000000000000000e+00,-5.000000000000000240e-05,-4.899999999999999842e-04,4.000000000000000192e-04,4.000000000000000327e-05,8.000000000000000654e-05,6.000000000000000000e+00,2.300000000000000000e+01
4.954700000000000000e+04,-2.000000000000000164e-05,1.000000000000000082e-05,0.000000000000000000e+00,-5.000000000000000240e-05,-4.899999999999999842e-04,4.000000000000000192e-04,4.000000000000000327e-05,8.000000000000000654e-05,6.000000000000000000e+00,2.300000000000000000e+01
4.954800000000000000e+04,-6.999999999999999387e-05,0.000000000000000000e+00,-2.000000000000000164e-05,-5.999999999999999474e-05,-3.299999999999999982e-04,-5.800000000000000034e-04,-1.100000000000000039e-04,-2.700000000000000035e-04,6.000000000000000000e+00,2.300000000000000000e+01
4.954900000000000000e+04,-6.999999999999999387e-05,0.000000000000000000e+00,-2.000000000000000164e-05,-5.999999999999999474e-05,-3.299999999999999982e-04,-5.800000000000000034e-04,-1.100000000000000039e-04,-2.700000000000000035e-04,6.000000000000000000e+00,2.300000000000000000e+01
4.955000000000000000e+04,-6.999999999999999387e-05,0.000000000000000000e+00,-2.000000000000000164e-05,-5.999999999999999474e-05,-3.299999999999999982e-04,-5.800000000000000034e-04,-1.100000000000000039e-04,-2.700000000000000035e-04,6.000000000000000000e+00,2.300000000000000000e+01
4.955100000000000000e+04,-6.999999999999999387e-05,0.000000000000000000e+00,-2.000000000000000164e-05,-5.999999999999999474e-05,-3.299999999999999982e-04,-5.800000000000000034e-04,-1.100000000000000039e-04,-2.700000000000000035e-04,6.000000000000000000e+00,2.300000000000000000e+01
4.955200000000000000e+04,-6.999999999999999387e-05,0.000000000000000000e+00,-2.000000000000000164e-05,-5.999999999999999474e-05,-3.299999999999999982e-04,-5.800000000000000034e-04,-1.100000000000000039e-04,-2.700000000000000035e-04,6.000000000000000000e+00,2.300000000000000000e+01
4.955300000000000000e+04,-6.999999999999999387e-05,0.000000000000000000e+00,-2.000000000000000164e-05,-5.999999999999999474e-05,-3.299999999999999982e-04,-5.800000000000000034e-04,-1.100000000000000039e-04,-2.700000000000000035e-04,6.000000000000000000e+00,2.300000000000000000e+01
4.955400000000000000e+04,-6.999999999999999387e-05,0.000000000000000000e+00,-2.000000000000000164e-05,-5.999999999999999474e-05,-3.299999999999999982e-04,-5.800000000000000034e-04,-1.100000000000000039e-04,-2.700000000000000035e-04,6.000000000000000000e+00,2.300000000000000000e+01
4.955500000000000000e+04,-6.999999999999999387e-05,0.000000000000000000e+00,-2.000000000000000164e-05,-5.999999999999999474e-05,-3.299999999999999982e-04,-5.800000000000000034e-04,-1.100000000000000039e-04,-2.700000000000000035e-04,6.000000000000000000e+00,2.300000000000000000e+01
4.955600000000000000e+04,-6.999999999999999387e-05,0.000000000000000000e+00,-2.000000000000000164e-05,-5.999999999999999474e-05,-3.299999999999999982e-04,-5.800000000000000034e-04,-1.100000000000000039e-04,-2.700000000000000035e-04,6.000000000000000000e+00,2.300000000000000000e+01
4.955700000000000000e+04,-6.999999999999999387e-05,0.000000000000000000e+00,-2.000000000000000164e-05,-5.999999999999999474e-05,-3.299999999999999982e-04,-5.800000000000000034e-04,-1.100000000000000039e-04,-2.700000000000000035e-04,6.000000000000000000e+00,2.300000000000000000e+01
4.955800000000000000e+04,-6.999999999999999387e-05,0.000000000000000000e+00,-2.000000000000000164e-05,-5.999999999999999474e-05,-3.299999999999999982e-04,-5.800000000000000034e-04,-1.100000000000000039e-04,-2.700000000000000035e-04,6.000000000000000000e+00,2.300000000000000000e+01
4.955900000000000000e+04,-6.999999999999999387e-05,0.000000000000000000e+00,-2.000000000000000164e-05,-5.999999999999999474e-05,-3.299999999999999982e-04,-5.800000000000000034e-04,-1.100000000000000039e-04,-2.700000000000000035e-04,6.000000000000000000e+00,2.300000000000000000e+01
4.956000000000000000e+04,-6.999999999999999387e-05,0.000000000000000000e+00,-2.000000000000000164e-05,-5.999999999999999474e-05,-3.299999999999999982e-04,-5.800000000000000034e-04,-1.100000000000000039e-04,-2.700000000000000035e-04,6.000000000000000000e+00,2.300000000000000000e+01
4.956100000000000000e+04,-6.999999999999999387e-05,0.000000000000000000e+00,-2.000000000000000164e-05,-5.999999999999999474e-05,-3.299999999999999982e-04,-5.800000000000000034e-04,-1.100000000000000039e-04,-2.700000000000000035e-04,6.000000000000000000e+00,2.300000000000000000e+01
4.956200000000000000e+04,-6.999999999999999387e-05,0.000000000000000000e+00,-2.000000000000000164e-05,-5.999999999999999474e-05,-3.299999999999999982e-04,-5.800000000000000034e-04,-1.100000000000000039e-04,-2.700000000000000035e-04,6.000000000000000000e+00,2.300000000000000000e+01
4.956300000000000000e+04,-6.999999999999999387e-05,0.000000000000000000e+00,-2.000000000000000164e-05,-5.999999999999999474e-05,-3.299999999999999982e-04,-5.800000000000000034e-04,-1.100000000000000039e-04,-2.700000000000000035e-04,6.000000000000000000e+00,2.300000000000000000e+01
4.956400000000000000e+04,-6.999999999999999387e-05,0.000000000000000000e+00,-2.000000000000000164e-05,-5.999999999999999474e-05,-3.299999999999999982e-04,-5.800000000000000034e-04,-1.100000000000000039e-04,-2.700000000000000035e-04,6.000000000000000000e+00,2.300000000000000000e+01
4.956500000000000000e+04,-6.999999999999999387e-05,0.000000000000000000e+00,-2.000000000000000164e-05,-5.999999999999999474e-05,-3.299999999999999982e-04,-5.800000000000000034e-04,-1.100000000000000039e-04,-2.700000000000000035e-04,6.000000000000000000e+00,2.300000000000000000e+01
4.956600000000000000e+04,-6.999999999999999387e-05,0.000000000000000000e+00,-2.000000000000000164e-05,-5.999999999999999474e-05,-3.299999999999999982e-04,-5.800000000000000034e-04,-1.100000000000000039e-04,-2.700000000000000035e-04,6.000000000000000000e+00,2.300000000000000000e+01
