4.022300000000000000e+04,-1.000000000000000082e-05,-5.000000000000000240e-05,-1.800000000000000113e-04,-8.099999999999999561e-04,2.000000000000000164e-05,-4.499999999999999877e-04,-2.999999999999999737e-05,0.000000000000000000e+00,4.000000000000000000e+00,1.900000000000000000e+01
4.022400000000000000e+04,-1.000000000000000082e-05,-5.000000000000000240e-05,-1.800000000000000113e-04,-8.099999999999999561e-04,2.000000000000000164e-05,-4.499999999999999877e-04,-2.999999999999999737e-05,0.000000000000000000e+00,4.000000000000000000e+00,1.900000000000000000e+01
4.022500000000000000e+04,-1.000000000000000082e-05,-5.000000000000000240e-05,-1.800000000000000113e-04,-8.099999999999999561e-04,2.000000000000000164e-05,-4.499999999999999877e-04,-2.999999999999999737e-05,0.000000000000000000e+00,4.000000000000000000e+00,1.900000000000000000e+01
4.022600000000000000e+04,-1.000000000000000082e-05,-5.000000000000000240e-05,-1.800000000000000113e-04,-8.099999999999999561e-04,2.000000000000000164e-05,-4.499999999999999877e-04,-2.999999999999999737e-05,0.000000000000000000e+00,4.000000000000000000e+00,1.900000000000000000e+01
4.022700000000000000e+04,-1.000000000000000082e-05,-5.000000000000000240e-05,-1.800000000000000113e-04,-8.099999999999999561e-04,2.000000000000000164e-05,-4.499999999999999877e-04,-2.999999999999999737e-05,0.000000000000000000e+00,4.000000000000000000e+00,1.900000000000000000e+01
4.022800000000000000e+04,-1.000000000000000082e-05,-5.000000000000000240e-05,-1.800000000000000113e-04,-8.099999999999999561e-04,2.000000000000000164e-05,-4.499999999999999877e-04,-2.999999999999999737e-05,0.000000000000000000e+00,4.000000000000000000e+00,1.900000000000000000e+01
4.022900000000000000e+04,-1.000000000000000082e-05,-5.000000000000000240e-05,-1.800000000000000113e-04,-8.099999999999999561e-04,2.000000000000000164e-05,-4.499999999999999877e-04,-2.999999999999999737e-05,0.000000000000000000e+00,4.000000000000000000e+00,1.900000000000000000e+01
4.023000000000000000e+04,1.000000000000000082e-05,1.000000000000000082e-05,1.000000000000000082e-05,-1.100000000000000039e-04,-2.299999999999999799e-04,5.400000000000000069e-04,1.699999999999999851e-04,1.000000000000000082e-05,4.000000000000000000e+00,1.900000000000000000e+01
4.023100000000000000e+04,1.000000000000000082e-05,1.000000000000000082e-05,1.000000000000000082e-05,-1.100000000000000039e-04,-2.299999999999999799e-04,5.400000000000000069e-04,1.699999999999999851e-04,1.000000000000000082e-05,4.000000000000000000e+00,1.900000000000000000e+01
4.023200000000000000e+04,-2.000000000000000164e-05,1.000000000000000082e-05,2.999999999999999737e-05,1.699999999999999851e-04,-5.999999999999999474e-04,-8.000000000000000383e-04,-1.800000000000000113e-04,-2.999999999999999737e-05,4.000000000000000000e+00,1.900000000000000000e+01
4.023300000000000000e+04,-5.999999999999999474e-05,-9.000000000000000567e-05,-6.999999999999999387e-05,5.500000000000000331e-04,0.000000000000000000e+00,3.299999999999999982e-04,-5.999999999999999474e-05,-5.000000000000000240e-05,4.000000000000000000e+00,1.900000000000000000e+01
4.023400000000000000e+04,-5.999999999999999474e-05,-9.000000000000000567e-05,-6.999999999999999387e-05,5.500000000000000331e-04,0.000000000000000000e+00,3.299999999999999982e-04,-5.999999999999999474e-05,-5.000000000000000240e-05,4.000000000000000000e+00,1.900000000000000000e+01
4.023500000000000000e+04,-5.999999999999999474e-05,-9.000000000000000567e-05,-6.999999999999999387e-05,5.500000000000000331e-04,0.000000000000000000e+00,3.299999999999999982e-04,-5.999999999999999474e-05,-5.000000000000000240e-05,4.000000000000000000e+00,1.900000000000000000e+01
4.023600000000000000e+04,-5.999999999999999474e-05,-9.000000000000000567e-05,-6.999999999999999387e-05,5.500000000000000331e-04,0.000000000000000000e+00,3.299999999999999982e-04,-5.999999999999999474e-05,-5.000000000000000240e-05,4.000000000000000000e+00,1.900000000000000000e+01
4.023800000000000000e+04,-5.999999999999999474e-05,-9.000000000000000567e-05,-6.999999999999999387e-05,5.500000000000000331e-04,0.000000000000000000e+00,3.299999999999999982e-04,-5.999999999999999474e-05,-5.000000000000000240e-05,4.000000000000000000e+00,1.900000000000000000e+01
4.023900000000000000e+04,-5.999999999999999474e-05,-9.000000000000000567e-05,-6.999999999999999387e-05,5.500000000000000331e-04,0.000000000000000000e+00,3.299999999999999982e-04,-5.999999999999999474e-05,-5.000000000000000240e-05,4.000000000000000000e+00,1.900000000000000000e+01
4.024000000000000000e+04,-5.999999999999999474e-05,-9.000000000000000567e-05,-6.999999999999999387e-05,5.500000000000000331e-04,0.000000000000000000e+00,3.299999999999999982e-04,-5.999999999999999474e-05,-5.000000000000000240e-05,4.000000000000000000e+00,1.900000000000000000e+01
4.024100000000000000e+04,-5.999999999999999474e-05,-9.000000000000000567e-05,-6.999999999999999387e-05,5.500000000000000331e-04,0.000000000000000000e+00,3.299999999999999982e-04,-5.999999999999999474e-05,-5.000000000000000240e-05,4.000000000000000000e+00,1.900000000000000000e+01
4.024200000000000000e+04,-5.999999999999999474e-05,-9.000000000000000567e-05,-6.999999999999999387e-05,5.500000000000000331e-04,0.000000000000000000e+00,3.299999999999999982e-04,-5.999999999999999474e-05,-5.000000000000000240e-05,4.000000000000000000e+00,1.900000000000000000e+01
4.024300000000000000e+04,-5.999999999999999474e-05,-9.000000000000000567e-05,-6.999999999999999387e-05,5.500000000000000331e-04,0.000000000000000000e+00,3.299999999999999982e-04,-5.999999999999999474e-05,-5.000000000000000240e-05,4.000000000000000000e+00,1.900000000000000000e+01
4.024400000000000000e+04,-5.999999999999999474e-05,-9.000000000000000567e-05,-6.999999999999999387e-05,5.500000000000000331e-04,0.000000000000000000e+00,3.299999999999999982e-04,-5.999999999999999474e-05,-5.000000000000000240e-05,4.000000000000000000e+00,1.900000000000000000e+01
4.024500000000000000e+04,-5.999999999999999474e-05,-9.000000000000000567e-05,-6.999999999999999387e-05,5.500000000000000331e-04,0.000000000000000000e+00,3.299999999999999982e-04,-5.999999999999999474e-05,-5.000000000000000240e-05,4.000000000000000000e+00,1.900000000000000000e+01
4.024600000000000000e+04,-5.999999999999999474e-05,-9.000000000000000567e-05,-6.999999999999999387e-05,5.500000000000000331e-04,0.000000000000000000e+00,3.299999999999999982e-04,-5.999999999999999474e-05,-5.000000000000000240e-05,4.000000000000000000e+00,1.900000000000000000e+01
4.024700000000000000e+04,-5.999999999999999474e-05,-9.000000000000000567e-05,-6.999999999999999387e-05,5.500000000000000331e-04,0.000000000000000000e+00,3.299999999999999982e-04,-5.999999999999999474e-05,-5.000000000000000240e-05,4.000000000000000000e+00,1.900000000000000000e+01
4.024800000000000000e+04,-5.999999999999999474e-05,-9.000000000000000567e-05,-6.999999999999999387e-05,5.500000000000000331e-04,0.000000000000000000e+00,3.299999999999999982e-04,-5.999999999999999474e-05,-5.000000000000000240e-05,4.000000000000000000e+00,1.900000000000000000e+01
4.024900000000000000e+04,-5.999999999999999474e-05,-9.000000000000000567e-05,-6.999999999999999387e-05,5.500000000000000331e-04,0.000000000000000000e+00,3.299999999999999982e-04,-5.999999999999999474e-05,-5.000000000000000240e-05,4.000000000000000000e+00,1.900000000000000000e+01
4.025000000000000000e+04,-5.999999999999999474e-05,-9.000000000000000567e-05,-6.999999999999999387e-05,5.500000000000000331e-04,0.000000000000000000e+00,3.299999999999999982e-04,-5.999999999999999474e-05,-5.000000000000000240e-05,4.000000000000000000e+00,1.900000000000000000e+01
4.025100000000000000e+04,-5.999999999999999474e-05,-9.000000000000000567e-05,-6.999999999999999387e-05,5.500000000000000331e-04,0.000000000000000000e+00,3.299999999999999982e-04,-5.999999999999999474e-05,-5.000000000000000240e-05,4.000000000000000000e+00,1.900000000000000000e+01
4.025200000000000000e+04,-5.999999999999999474e-05,-9.000000000000000567e-05,-6.999999999999999387e-05,5.500000000000000331e-04,0.000000000000000000e+00,3.299999999999999982e-04,-5.999999999999999474e-05,-5.000000000000000240e-05,4.000000000000000000e+00,1.900000000000000000e+01
4.025300000000000000e+04,-5.999999999999999474e-05,-9.000000000000000567e-05,-6.999999999999999387e-05,5.500000000000000331e-04,0.000000000000000000e+00,3.299999999999999982e-04,-5.999999999999999474e-05,-5.000000000000000240e-05,4.000000000000000000e+00,1.900000000000000000e+01
4.025400000000000000e+04,-5.999999999999999474e-05,-9.000000000000000567e-05,-6.999999999999999387e-05,5.500000000000000331e-04,0.000000000000000000e+00,3.299999999999999982e-04,-5.999999999999999474e-05,-5.000000000000000240e-05,4.000000000000000000e+00,1.900000000000000000e+01
4.025500000000000000e+04,-5.999999999999999474e-05,-9.000000000000000567e-05,-6.999999999999999387e-05,5.500000000000000331e-04,0.000000000000000000e+00,3.299999999999999982e-04,-5.999999999999999474e-05,-5.000000000000000240e-05,4.000000000000000000e+00,1.900000000000000000e+01
4.025600000000000000e+04,-5.999999999999999474e-05,-9.000000000000000567e-05,-6.999999999999999387e-05,5.500000000000000331e-04,0.000000000000000000e+00,3.299999999999999982e-04,-5.999999999999999474e-05,-5.000000000000000240e-05,4.000000000000000000e+00,1.900000000000000000e+01
4.025700000000000000e+04,-5.999999999999999474e-05,-9.000000000000000567e-05,-6.999999999999999387e-05,5.500000000000000331e-04,0.000000000000000000e+00,3.299999999999999982e-04,-5.999999999999999474e-05,-5.000000000000000240e-05,4.000000000000000000e+00,1.900000000000000000e+01
4.025800000000000000e+04,-5.999999999999999474e-05,-9.000000000000000567e-05,-6.999999999999999387e-05,5.500000000000000331e-04,0.000000000000000000e+00,3.299999999999999982e-04,-5.999999999999999474e-05,-5.000000000000000240e-05,4.000000000000000000e+00,1.900000000000000000e+01
4.025900000000000000e+04,-5.000000000000000240e-05,-4.000000000000000327e-05,-5.999999999999999474e-05,-3.899999999999999929e-04,-2.000000000000000164e-05,-8.800000000000000313e-04,-2.799999999999999755e-04,-5.999999999999999474e-05,4.000000000000000000e+00,1.900000000000000000e+01
4.026000000000000000e+04,-1.000000000000000082e-05,-1.000000000000000082e-05,-4.000000000000000327e-05,3.399999999999999702e-04,5.500000000000000331e-04,3.299999999999999982e-04,-5.999999999999999474e-05,-6.999999999999999387e-05,4.000000000000000000e+00,1.900000000000000000e+01
4.026100000000000000e+04,-1.000000000000000082e-05,-1.000000000000000082e-05,-4.000000000000000327e-05,3.399999999999999702e-04,5.500000000000000331e-04,3.299999999999999982e-04,-5.999999999999999474e-05,-6.999999999999999387e-05,4.000000000000000000e+00,1.900000000000000000e+01
4.026200000000000000e+04,-1.000000000000000082e-05,-1.000000000000000082e-05,-4.000000000000000327e-05,3.399999999999999702e-04,5.500000000000000331e-04,3.299999999999999982e-04,-5.999999999999999474e-05,-6.999999999999999387e-05,4.000000000000000000e+00,1.900000000000000000e+01
4.026300000000000000e+04,-1.000000000000000082e-05,-1.000000000000000082e-05,-4.000000000000000327e-05,3.399999999999999702e-04,5.500000000000000331e-04,3.299999999999999982e-04,-5.999999999999999474e-05,-6.999999999999999387e-05,4.000000000000000000e+00,1.900000000000000000e+01
4.026400000000000000e+04,-1.000000000000000082e-05,-1.000000000000000082e-05,-4.000000000000000327e-05,3.399999999999999702e-04,5.500000000000000331e-04,3.299999999999999982e-04,-5.999999999999999474e-05,-6.999999999999999387e-05,4.000000000000000000e+00,1.900000000000000000e+01
4.026500000000000000e+04,-1.000000000000000082e-05,-1.000000000000000082e-05,-4.000000000000000327e-05,3.399999999999999702e-04,5.500000000000000331e-04,3.299999999999999982e-04,-5.999999999999999474e-05,-6.999999999999999387e-05,4.000000000000000000e+00,1.900000000000000000e+01
4.026600000000000000e+04,-1.000000000000000082e-05,-1.000000000000000082e-05,-4.000000000000000327e-05,3.399999999999999702e-04,5.500000000000000331e-04,3.299999999999999982e-04,-5.999999999999999474e-05,-6.999999999999999387e-05,4.000000000000000000e+00,1.900000000000000000e+01
4.026700000000000000e+04,-1.000000000000000082e-05,-1.000000000000000082e-05,-4.000000000000000327e-05,3.399999999999999702e-04,5.500000000000000331e-04,3.299999999999999982e-04,-5.999999999999999474e-05,-6.999999999999999387e-05,4.000000000000000000e+00,1.900000000000000000e+01
4.026800000000000000e+04,-1.000000000000000082e-05,-1.000000000000000082e-05,-4.000000000000000327e-05,3.399999999999999702e-04,5.500000000000000331e-04,3.299999999999999982e-04,-5.999999999999999474e-05,-6.999999999999999387e-05,4.000000000000000000e+00,1.900000000000000000e+01
4.026900000000000000e+04,-1.000000000000000082e-05,-1.000000000000000082e-05,-4.000000000000000327e-05,3.399999999999999702e-04,5.500000000000000331e-04,3.299999999999999982e-04,-5.999999999999999474e-05,-6.999999999999999387e-05,4.000000000000000000e+00,1.900000000000000000e+01
4.027000000000000000e+04,-1.000000000000000082e-05,-1.000000000000000082e-05,-4.000000000000000327e-05,3.399999999999999702e-04,5.500000000000000331e-04,3.299999999999999982e-04,-5.999999999999999474e-05,-6.999999999999999387e-05,4.000000000000000000e+00,1.900000000000000000e+01
4.027100000000000000e+04,-1.000000000000000082e-05,-1.000000000000000082e-05,-4.000000000000000327e-05,3.399999999999999702e-04,5.500000000000000331e-04,3.299999999999999982e-04,-5.999999999999999474e-05,-6.999999999999999387e-05,4.000000000000000000e+00,1.900000000000000000e+01
4.027200000000000000e+04,-1.000000000000000082e-05,-1.000000000000000082e-05,-4.000000000000000327e-05,3.399999999999999702e-04,5.500000000000000331e-04,3.299999999999999982e-04,-5.999999999999999474e-05,-6.999999999999999387e-05,4.000000000000000000e+00,1.900000000000000000e+01
4.027300000000000000e+04,-1.000000000000000082e-05,-1.000000000000000082e-05,-4.000000000000000327e-05,3.399999999999999702e-04,5.500000000000000331e-04,3.299999999999999982e-04,-5.999999999999999474e-05,-6.999999999999999387e-05,4.000000000000000000e+00,1.900000000000000000e+01
4.027400000000000000e+04,-1.000000000000000082e-05,-1.000000000000000082e-05,-4.000000000000000327e-05,3.399999999999999702e-04,5.500000000000000331e-04,3.299999999999999982e-04,-5.999999999999999474e-05,-6.999999999999999387e-05,4.000000000000000000e+00,1.900000000000000000e+01
4.027500000000000000e+04,-1.000000000000000082e-05,-1.000000000000000082e-05,-4.000000000000000327e-05,3.399999999999999702e-04,5.500000000000000331e-04,3.299999999999999982e-04,-5.999999999999999474e-05,-6.999999999999999387e-05,4.000000000000000000e+00,1.900000000000000000e+01
4.027600000000000000e+04,-1.000000000000000082e-05,-1.000000000000000082e-05,-4.000000000000000327e-05,3.399999999999999702e-04,5.500000000000000331e-04,3.299999999999999982e-04,-5.999999999999999474e-05,-6.999999999999999387e-05,4.000000000000000000e+00,1.900000000000000000e+01
4.027700000000000000e+04,-1.000000000000000082e-05,-1.000000000000000082e-05,-4.000000000000000327e-05,3.399999999999999702e-04,5.500000000000000331e-04,3.299999999999999982e-04,-5.999999999999999474e-05,-6.999999999999999387e-05,4.000000000000000000e+00,1.900000000000000000e+01
4.027800000000000000e+04,-1.000000000000000082e-05,-1.000000000000000082e-05,-4.000000000000000327e-05,3.399999999999999702e-04,5.500000000000000331e-04,3.299999999999999982e-04,-5.999999999999999474e-05,-6.999999999999999387e-05,4.000000000000000000e+00,1.900000000000000000e+01
4.027900000000000000e+04,-1.000000000000000082e-05,-1.000000000000000082e-05,-4.000000000000000327e-05,3.399999999999999702e-04,5.500000000000000331e-04,3.299999999999999982e-04,-5.999999999999999474e-05,-6.999999999999999387e-05,4.000000000000000000e+00,1.900000000000000000e+01
4.028000000000000000e+04,-1.000000000000000082e-05,-1.000000000000000082e-05,-4.000000000000000327e-05,3.399999999999999702e-04,5.500000000000000331e-04,3.299999999999999982e-04,-5.999999999999999474e-05,-6.999999999999999387e-05,4.000000000000000000e+00,1.900000000000000000e+01
4.028100000000000000e+04,-1.000000000000000082e-05,-1.000000000000000082e-05,-4.000000000000000327e-05,3.399999999999999702e-04,5.500000000000000331e-04,3.299999999999999982e-04,-5.999999999999999474e-05,-6.999999999999999387e-05,4.000000000000000000e+00,1.900000000000000000e+01
4.028200000000000000e+04,-1.000000000000000082e-05,-1.000000000000000082e-05,-4.000000000000000327e-05,3.399999999999999702e-04,5.500000000000000331e-04,3.299999999999999982e-04,-5.999999999999999474e-05,-6.999999999999999387e-05,4.000000000000000000e+00,1.900000000000000000e+01
4.028300000000000000e+04,-1.000000000000000082e-05,-1.000000000000000082e-05,-4.000000000000000327e-05,3.399999999999999702e-04,5.500000000000000331e-04,3.299999999999999982e-04,-5.999999999999999474e-05,-6.999999999999999387e-05,4.000000000000000000e+00,1.900000000000000000e+01
4.028400000000000000e+04,-1.000000000000000082e-05,-1.000000000000000082e-05,-4.000000000000000327e-05,3.399999999999999702e-04,5.500000000000000331e-04,3.299999999999999982e-04,-5.999999999999999474e-05,-6.999999999999999387e-05,4.000000000000000000e+00,1.900000000000000000e+01
4.028500000000000000e+04,-1.000000000000000082e-05,-1.000000000000000082e-05,-4.000000000000000327e-05,3.399999999999999702e-04,5.500000000000000331e-04,3.299999999999999982e-04,-5.999999999999999474e-05,-6.999999999999999387e-05,4.000000000000000000e+00,1.900000000000000000e+01
4.028600000000000000e+04,-1.000000000000000082e-05,-1.000000000000000082e-05,-4.000000000000000327e-05,3.399999999999999702e-04,5.500000000000000331e-04,3.299999999999999982e-04,-5.999999999999999474e-05,-6.999999999999999387e-05,4.000000000000000000e+00,1.900000000000000000e+01
4.028900000000000000e+04,-1.000000000000000082e-05,-1.000000000000000082e-05,-4.000000000000000327e-05,3.399999999999999702e-04,5.500000000000000331e-04,3.299999999999999982e-04,-5.999999999999999474e-05,-6.999999999999999387e-05,4.000000000000000000e+00,1.900000000000000000e+01
4.029000000000000000e+04,-1.000000000000000082e-05,-1.000000000000000082e-05,-4.000000000000000327e-05,3.399999999999999702e-04,5.500000000000000331e-04,3.299999999999999982e-04,-5.999999999999999474e-05,-6.999999999999999387e-05,4.000000000000000000e+00,1.900000000000000000e+01
4.029100000000000000e+04,-4.000000000000000327e-05,0.000000000000000000e+00,1.000000000000000082e-05,2.500000000000000052e-04,1.000000000000000082e-05,2.299999999999999799e-04,-2.000000000000000164e-05,-1.000000000000000082e-05,4.000000000000000000e+00,1.900000000000000000e+01
4.029200000000000000e+04,2.999999999999999737e-05,8.000000000000000654e-05,1.800000000000000113e-04,-2.999999999999999737e-05,7.099999999999999107e-04,1.699999999999999851e-04,5.000000000000000240e-05,6.999999999999999387e-05,4.000000000000000000e+00,1.900000000000000000e+01
4.029300000000000000e+04,-2.999999999999999737e-05,-5.999999999999999474e-05,-1.399999999999999877e-04,-2.000000000000000096e-04,-6.700000000000000226e-04,-6.099999999999999737e-04,-1.300000000000000157e-04,-2.999999999999999737e-05,4.000000000000000000e+00,1.900000000000000000e+01
4.029400000000000000e+04,-1.499999999999999869e-04,-1.899999999999999834e-04,-3.099999999999999999e-04,-2.399999999999999790e-04,6.199999999999999999e-04,9.000000000000000567e-05,-8.000000000000000654e-05,-1.300000000000000157e-04,4.000000000000000000e+00,1.900000000000000000e+01
4.029500000000000000e+04,-1.499999999999999869e-04,-1.899999999999999834e-04,-3.099999999999999999e-04,-2.399999999999999790e-04,6.199999999999999999e-04,9.000000000000000567e-05,-8.000000000000000654e-05,-1.300000000000000157e-04,4.000000000000000000e+00,1.900000000000000000e+01
4.029600000000000000e+04,4.000000000000000327e-05,1.000000000000000048e-04,2.600000000000000314e-04,5.999999999999999474e-04,7.700000000000000681e-04,-5.000000000000000104e-04,-1.499999999999999869e-04,0.000000000000000000e+00,4.000000000000000000e+00,1.900000000000000000e+01
4.029700000000000000e+04,1.699999999999999851e-04,2.000000000000000096e-04,3.099999999999999999e-04,8.000000000000000654e-05,9.000000000000000567e-05,8.300000000000001170e-04,4.000000000000000192e-04,1.899999999999999834e-04,4.000000000000000000e+00,1.900000000000000000e+01
4.029800000000000000e+04,1.699999999999999851e-04,2.000000000000000096e-04,3.099999999999999999e-04,8.000000000000000654e-05,9.000000000000000567e-05,8.300000000000001170e-04,4.000000000000000192e-04,1.899999999999999834e-04,4.000000000000000000e+00,1.900000000000000000e+01
4.029900000000000000e+04,1.699999999999999851e-04,2.000000000000000096e-04,3.099999999999999999e-04,8.000000000000000654e-05,9.000000000000000567e-05,8.300000000000001170e-04,4.000000000000000192e-04,1.899999999999999834e-04,4.000000000000000000e+00,1.900000000000000000e+01
4.030000000000000000e+04,1.699999999999999851e-04,2.000000000000000096e-04,3.099999999999999999e-04,8.000000000000000654e-05,9.000000000000000567e-05,8.300000000000001170e-04,4.000000000000000192e-04,1.899999999999999834e-04,4.000000000000000000e+00,1.900000000000000000e+01
4.030100000000000000e+04,1.699999999999999851e-04,2.000000000000000096e-04,3.099999999999999999e-04,8.000000000000000654e-05,9.000000000000000567e-05,8.300000000000001170e-04,4.000000000000000192e-04,1.899999999999999834e-04,4.000000000000000000e+00,1.900000000000000000e+01
4.030200000000000000e+04,1.699999999999999851e-04,2.000000000000000096e-04,3.099999999999999999e-04,8.000000000000000654e-05,9.000000000000000567e-05,8.300000000000001170e-04,4.000000000000000192e-04,1.899999999999999834e-04,4.000000000000000000e+00,1.900000000000000000e+01
4.030300000000000000e+04,1.699999999999999851e-04,2.000000000000000096e-04,3.099999999999999999e-04,8.000000000000000654e-05,9.000000000000000567e-05,8.300000000000001170e-04,4.000000000000000192e-04,1.899999999999999834e-04,4.000000000000000000e+00,1.900000000000000000e+01
4.030400000000000000e+04,1.699999999999999851e-04,2.000000000000000096e-04,3.099999999999999999e-04,8.000000000000000654e-05,9.000000000000000567e-05,8.300000000000001170e-04,4.000000000000000192e-04,1.899999999999999834e-04,4.000000000000000000e+00,1.900000000000000000e+01
4.030500000000000000e+04,1.699999999999999851e-04,2.000000000000000096e-04,3.099999999999999999e-04,8.000000000000000654e-05,9.000000000000000567e-05,8.300000000000001170e-04,4.000000000000000192e-04,1.899999999999999834e-04,4.000000000000000000e+00,1.900000000000000000e+01
4.030600000000000000e+04,1.699999999999999851e-04,2.000000000000000096e-04,3.099999999999999999e-04,8.000000000000000654e-05,9.000000000000000567e-05,8.300000000000001170e-04,4.000000000000000192e-04,1.899999999999999834e-04,4.000000000000000000e+00,1.900000000000000000e+01
4.030700000000000000e+04,1.699999999999999851e-04,2.000000000000000096e-04,3.099999999999999999e-04,8.000000000000000654e-05,9.000000000000000567e-05,8.300000000000001170e-04,4.000000000000000192e-04,1.899999999999999834e-04,4.000000000000000000e+00,1.900000000000000000e+01
4.030800000000000000e+04,1.699999999999999851e-04,2.000000000000000096e-04,3.099999999999999999e-04,8.000000000000000654e-05,9.000000000000000567e-05,8.300000000000001170e-04,4.000000000000000192e-04,1.899999999999999834e-04,4.000000000000000000e+00,1.900000000000000000e+01
4.030900000000000000e+04,1.699999999999999851e-04,2.000000000000000096e-04,3.099999999999999999e-04,8.000000000000000654e-05,9.000000000000000567e-05,8.300000000000001170e-04,4.000000000000000192e-04,1.899999999999999834e-04,4.000000000000000000e+00,1.900000000000000000e+01
4.031000000000000000e+04,1.699999999999999851e-04,2.000000000000000096e-04,3.099999999999999999e-04,8.000000000000000654e-05,9.000000000000000567e-05,8.300000000000001170e-04,4.000000000000000192e-04,1.899999999999999834e-04,4.000000000000000000e+00,1.900000000000000000e+01
4.031100000000000000e+04,1.699999999999999851e-04,2.000000000000000096e-04,3.099999999999999999e-04,8.000000000000000654e-05,9.000000000000000567e-05,8.300000000000001170e-04,4.000000000000000192e-04,1.899999999999999834e-04,4.000000000000000000e+00,1.900000000000000000e+01
4.031200000000000000e+04,1.699999999999999851e-04,2.000000000000000096e-04,3.099999999999999999e-04,8.000000000000000654e-05,9.000000000000000567e-05,8.300000000000001170e-04,4.000000000000000192e-04,1.899999999999999834e-04,4.000000000000000000e+00,1.900000000000000000e+01
4.031300000000000000e+04,1.699999999999999851e-04,2.000000000000000096e-04,3.099999999999999999e-04,8.000000000000000654e-05,9.000000000000000567e-05,8.300000000000001170e-04,4.000000000000000192e-04,1.899999999999999834e-04,4.000000000000000000e+00,1.900000000000000000e+01
4.031400000000000000e+04,1.699999999999999851e-04,2.000000000000000096e-04,3.099999999999999999e-04,8.000000000000000654e-05,9.000000000000000567e-05,8.300000000000001170e-04,4.000000000000000192e-04,1.899999999999999834e-04,4.000000000000000000e+00,1.900000000000000000e+01
4.031500000000000000e+04,1.699999999999999851e-04,2.000000000000000096e-04,3.099999999999999999e-04,8.000000000000000654e-05,9.000000000000000567e-05,8.300000000000001170e-04,4.000000000000000192e-04,1.899999999999999834e-04,4.000000000000000000e+00,1.900000000000000000e+01
4.031600000000000000e+04,1.699999999999999851e-04,2.000000000000000096e-04,3.099999999999999999e-04,8.000000000000000654e-05,9.000000000000000567e-05,8.300000000000001170e-04,4.000000000000000192e-04,1.899999999999999834e-04,4.000000000000000000e+00,1.900000000000000000e+01
4.031700000000000000e+04,1.699999999999999851e-04,2.000000000000000096e-04,3.099999999999999999e-04,8.000000000000000654e-05,9.000000000000000567e-05,8.300000000000001170e-04,4.000000000000000192e-04,1.899999999999999834e-04,4.000000000000000000e+00,1.900000000000000000e+01
4.031800000000000000e+04,1.699999999999999851e-04,2.000000000000000096e-04,3.099999999999999999e-04,8.000000000000000654e-05,9.000000000000000567e-05,8.300000000000001170e-04,4.000000000000000192e-04,1.899999999999999834e-04,4.000000000000000000e+00,1.900000000000000000e+01
4.032000000000000000e+04,1.699999999999999851e-04,2.000000000000000096e-04,3.099999999999999999e-04,8.000000000000000654e-05,9.000000000000000567e-05,8.300000000000001170e-04,4.000000000000000192e-04,1.899999999999999834e-04,4.000000000000000000e+00,1.900000000000000000e+01
4.032100000000000000e+04,-5.999999999999999474e-05,-2.999999999999999737e-05,1.000000000000000048e-04,4.599999999999999597e-04,-1.699999999999999851e-04,-2.999999999999999737e-04,-2.200000000000000078e-04,-1.000000000000000048e-04,4.000000000000000000e+00,1.900000000000000000e+01
4.032200000000000000e+04,-5.999999999999999474e-05,-2.999999999999999737e-05,1.000000000000000048e-04,4.599999999999999597e-04,-1.699999999999999851e-04,-2.999999999999999737e-04,-2.200000000000000078e-04,-1.000000000000000048e-04,4.000000000000000000e+00,1.900000000000000000e+01
4.032300000000000000e+04,-5.999999999999999474e-05,-2.999999999999999737e-05,1.000000000000000048e-04,4.599999999999999597e-04,-1.699999999999999851e-04,-2.999999999999999737e-04,-2.200000000000000078e-04,-1.000000000000000048e-04,4.000000000000000000e+00,1.900000000000000000e+01
4.032400000000000000e+04,-5.999999999999999474e-05,-2.999999999999999737e-05,1.000000000000000048e-04,4.599999999999999597e-04,-1.699999999999999851e-04,-2.999999999999999737e-04,-2.200000000000000078e-04,-1.000000000000000048e-04,4.000000000000000000e+00,1.900000000000000000e+01
4.032500000000000000e+04,-5.999999999999999474e-05,-2.999999999999999737e-05,1.000000000000000048e-04,4.599999999999999597e-04,-1.699999999999999851e-04,-2.999999999999999737e-04,-2.200000000000000078e-04,-1.000000000000000048e-04,4.000000000000000000e+00,1.900000000000000000e+01
4.032600000000000000e+04,-5.999999999999999474e-05,-2.999999999999999737e-05,1.000000000000000048e-04,4.599999999999999597e-04,-1.699999999999999851e-04,-2.999999999999999737e-04,-2.200000000000000078e-04,-1.000000000000000048e-04,4.000000000000000000e+00,1.900000000000000000e+01
4.032700000000000000e+04,-5.999999999999999474e-05,-2.999999999999999737e-05,1.000000000000000048e-04,4.599999999999999597e-04,-1.699999999999999851e-04,-2.999999999999999737e-04,-2.200000000000000078e-04,-1.000000000000000048e-04,4.000000000000000000e+00,1.900000000000000000e+01
4.032800000000000000e+04,-5.999999999999999474e-05,-2.999999999999999737e-05,1.000000000000000048e-04,4.599999999999999597e-04,-1.699999999999999851e-04,-2.999999999999999737e-04,-2.200000000000000078e-04,-1.000000000000000048e-04,4.000000000000000000e+00,1.900000000000000000e+01
4.032900000000000000e+04,-5.999999999999999474e-05,-2.999999999999999737e-05,1.000000000000000048e-04,4.599999999999999597e-04,-1.699999999999999851e-04,-2.999999999999999737e-04,-2.200000000000000078e-04,-1.000000000000000048e-04,4.000000000000000000e+00,1.900000000000000000e+01
4.033000000000000000e+04,-5.999999999999999474e-05,-2.999999999999999737e-05,1.000000000000000048e-04,4.599999999999999597e-04,-1.699999999999999851e-04,-2.999999999999999737e-04,-2.200000000000000078e-04,-1.000000000000000048e-04,4.000000000000000000e+00,1.900000000000000000e+01
4.033100000000000000e+04,-5.999999999999999474e-05,-2.999999999999999737e-05,1.000000000000000048e-04,4.599999999999999597e-04,-1.699999999999999851e-04,-2.999999999999999737e-04,-2.200000000000000078e-04,-1.000000000000000048e-04,4.000000000000000000e+00,1.900000000000000000e+01
4.033200000000000000e+04,-5.999999999999999474e-05,-2.999999999999999737e-05,1.000000000000000048e-04,4.599999999999999597e-04,-1.699999999999999851e-04,-2.999999999999999737e-04,-2.200000000000000078e-04,-1.000000000000000048e-04,4.000000000000000000e+00,1.900000000000000000e+01
4.033300000000000000e+04,-5.999999999999999474e-05,-2.999999999999999737e-05,1.000000000000000048e-04,4.599999999999999597e-04,-1.699999999999999851e-04,-2.999999999999999737e-04,-2.200000000000000078e-04,-1.000000000000000048e-04,4.000000000000000000e+00,1.900000000000000000e+01
4.033400000000000000e+04,-5.999999999999999474e-05,-2.999999999999999737e-05,1.000000000000000048e-04,4.599999999999999597e-04,-1.699999999999999851e-04,-2.999999999999999737e-04,-2.200000000000000078e-04,-1.000000000000000048e-04,4.000000000000000000e+00,1.900000000000000000e+01
4.033500000000000000e+04,-5.999999999999999474e-05,-2.999999999999999737e-05,1.000000000000000048e-04,4.599999999999999597e-04,-1.699999999999999851e-04,-2.999999999999999737e-04,-2.200000000000000078e-04,-1.000000000000000048e-04,4.000000000000000000e+00,1.900000000000000000e+01
4.033600000000000000e+04,-5.999999999999999474e-05,-2.999999999999999737e-05,1.000000000000000048e-04,4.599999999999999597e-04,-1.699999999999999851e-04,-2.999999999999999737e-04,-2.200000000000000078e-04,-1.000000000000000048e-04,4.000000000000000000e+00,1.900000000000000000e+01
4.033900000000000000e+04,-5.999999999999999474e-05,-2.999999999999999737e-05,1.000000000000000048e-04,4.599999999999999597e-04,-1.699999999999999851e-04,-2.999999999999999737e-04,-2.200000000000000078e-04,-1.000000000000000048e-04,4.000000000000000000e+00,1.900000000000000000e+01
4.034000000000000000e+04,-5.999999999999999474e-05,-2.999999999999999737e-05,1.000000000000000048e-04,4.599999999999999597e-04,-1.699999999999999851e-04,-2.999999999999999737e-04,-2.200000000000000078e-04,-1.000000000000000048e-04,4.000000000000000000e+00,1.900000000000000000e+01
4.034100000000000000e+04,-5.999999999999999474e-05,-2.999999999999999737e-05,1.000000000000000048e-04,4.599999999999999597e-04,-1.699999999999999851e-04,-2.999999999999999737e-04,-2.200000000000000078e-04,-1.000000000000000048e-04,4.000000000000000000e+00,1.900000000000000000e+01
4.034200000000000000e+04,-5.999999999999999474e-05,-2.999999999999999737e-05,1.000000000000000048e-04,4.599999999999999597e-04,-1.699999999999999851e-04,-2.999999999999999737e-04,-2.200000000000000078e-04,-1.000000000000000048e-04,4.000000000000000000e+00,1.900000000000000000e+01
4.034300000000000000e+04,-5.999999999999999474e-05,-2.999999999999999737e-05,1.000000000000000048e-04,4.599999999999999597e-04,-1.699999999999999851e-04,-2.999999999999999737e-04,-2.200000000000000078e-04,-1.000000000000000048e-04,4.000000000000000000e+00,1.900000000000000000e+01
4.034400000000000000e+04,-5.999999999999999474e-05,-2.999999999999999737e-05,1.000000000000000048e-04,4.599999999999999597e-04,-1.699999999999999851e-04,-2.999999999999999737e-04,-2.200000000000000078e-04,-1.000000000000000048e-04,4.000000000000000000e+00,1.900000000000000000e+01
4.034500000000000000e+04,-5.999999999999999474e-05,-2.999999999999999737e-05,1.000000000000000048e-04,4.599999999999999597e-04,-1.699999999999999851e-04,-2.999999999999999737e-04,-2.200000000000000078e-04,-1.000000000000000048e-04,4.000000000000000000e+00,1.900000000000000000e+01
4.034600000000000000e+04,-5.999999999999999474e-05,-2.999999999999999737e-05,1.000000000000000048e-04,4.599999999999999597e-04,-1.699999999999999851e-04,-2.999999999999999737e-04,-2.200000000000000078e-04,-1.000000000000000048e-04,4.000000000000000000e+00,1.900000000000000000e+01
4.034700000000000000e+04,-5.999999999999999474e-05,-2.999999999999999737e-05,1.000000000000000048e-04,4.599999999999999597e-04,-1.699999999999999851e-04,-2.999999999999999737e-04,-2.200000000000000078e-04,-1.000000000000000048e-04,4.000000000000000000e+00,1.900000000000000000e+01
4.034800000000000000e+04,-5.999999999999999474e-05,-2.999999999999999737e-05,1.000000000000000048e-04,4.599999999999999597e-04,-1.699999999999999851e-04,-2.999999999999999737e-04,-2.200000000000000078e-04,-1.000000000000000048e-04,4.000000000000000000e+00,1.900000000000000000e+01
4.034900000000000000e+04,-5.999999999999999474e-05,-2.999999999999999737e-05,1.000000000000000048e-04,4.599999999999999597e-04,-1.699999999999999851e-04,-2.999999999999999737e-04,-2.200000000000000078e-04,-1.000000000000000048e-04,4.000000000000000000e+00,1.900000000000000000e+01
4.035000000000000000e+04,-5.999999999999999474e-05,-2.999999999999999737e-05,1.000000000000000048e-04,4.599999999999999597e-04,-1.699999999999999851e-04,-2.999999999999999737e-04,-2.200000000000000078e-04,-1.000000000000000048e-04,4.000000000000000000e+00,1.900000000000000000e+01
4.035100000000000000e+04,1.100000000000000039e-04,9.000000000000000567e-05,2.399999999999999790e-04,7.399999999999999894e-04,9.799999999999999684e-04,4.400000000000000157e-04,3.600000000000000227e-04,1.800000000000000113e-04,4.000000000000000000e+00,1.900000000000000000e+01
4.035200000000000000e+04,0.000000000000000000e+00,2.000000000000000164e-05,1.899999999999999834e-04,8.300000000000001170e-04,-8.099999999999999561e-04,0.000000000000000000e+00,-2.999999999999999737e-05,2.999999999999999737e-05,4.000000000000000000e+00,1.900000000000000000e+01
4.035300000000000000e+04,0.000000000000000000e+00,2.000000000000000164e-05,1.899999999999999834e-04,8.300000000000001170e-04,-8.099999999999999561e-04,0.000000000000000000e+00,-2.999999999999999737e-05,2.999999999999999737e-05,4.000000000000000000e+00,1.900000000000000000e+01
4.035400000000000000e+04,-1.100000000000000039e-04,-1.699999999999999851e-04,-2.700000000000000035e-04,-4.599999999999999597e-04,-7.200000000000000453e-04,-3.600000000000000227e-04,-2.000000000000000096e-04,-1.199999999999999895e-04,4.000000000000000000e+00,1.900000000000000000e+01
4.035500000000000000e+04,-1.100000000000000039e-04,-1.699999999999999851e-04,-2.700000000000000035e-04,-4.599999999999999597e-04,-7.200000000000000453e-04,-3.600000000000000227e-04,-2.000000000000000096e-04,-1.199999999999999895e-04,4.000000000000000000e+00,1.900000000000000000e+01
4.035600000000000000e+04,-6.999999999999999387e-05,-2.999999999999999737e-05,5.999999999999999474e-05,2.399999999999999790e-04,7.200000000000000453e-04,-5.999999999999999474e-05,-2.000000000000000164e-05,-8.000000000000000654e-05,4.000000000000000000e+00,1.900000000000000000e+01
4.035700000000000000e+04,-6.999999999999999387e-05,-2.999999999999999737e-05,5.999999999999999474e-05,2.399999999999999790e-04,7.200000000000000453e-04,-5.999999999999999474e-05,-2.000000000000000164e-05,-8.000000000000000654e-05,4.000000000000000000e+00,1.900000000000000000e+01
4.035800000000000000e+04,-6.999999999999999387e-05,-2.999999999999999737e-05,5.999999999999999474e-05,2.399999999999999790e-04,7.200000000000000453e-04,-5.999999999999999474e-05,-2.000000000000000164e-05,-8.000000000000000654e-05,4.000000000000000000e+00,1.900000000000000000e+01
4.035900000000000000e+04,-6.999999999999999387e-05,-2.999999999999999737e-05,5.999999999999999474e-05,2.399999999999999790e-04,7.200000000000000453e-04,-5.999999999999999474e-05,-2.000000000000000164e-05,-8.000000000000000654e-05,4.000000000000000000e+00,1.900000000000000000e+01
4.036000000000000000e+04,-6.999999999999999387e-05,-2.999999999999999737e-05,5.999999999999999474e-05,2.399999999999999790e-04,7.200000000000000453e-04,-5.999999999999999474e-05,-2.000000000000000164e-05,-8.000000000000000654e-05,4.000000000000000000e+00,1.900000000000000000e+01
4.036100000000000000e+04,-6.999999999999999387e-05,-2.999999999999999737e-05,5.999999999999999474e-05,2.399999999999999790e-04,7.200000000000000453e-04,-5.999999999999999474e-05,-2.000000000000000164e-05,-8.000000000000000654e-05,4.000000000000000000e+00,1.900000000000000000e+01
4.036200000000000000e+04,-6.999999999999999387e-05,-2.999999999999999737e-05,5.999999999999999474e-05,2.399999999999999790e-04,7.200000000000000453e-04,-5.999999999999999474e-05,-2.000000000000000164e-05,-8.000000000000000654e-05,4.000000000000000000e+00,1.900000000000000000e+01
4.036300000000000000e+04,-6.999999999999999387e-05,-2.999999999999999737e-05,5.999999999999999474e-05,2.399999999999999790e-04,7.200000000000000453e-04,-5.999999999999999474e-05,-2.000000000000000164e-05,-8.000000000000000654e-05,4.000000000000000000e+00,1.900000000000000000e+01
4.036400000000000000e+04,-6.999999999999999387e-05,-2.999999999999999737e-05,5.999999999999999474e-05,2.399999999999999790e-04,7.200000000000000453e-04,-5.999999999999999474e-05,-2.000000000000000164e-05,-8.000000000000000654e-05,4.000000000000000000e+00,1.900000000000000000e+01
4.036500000000000000e+04,-6.999999999999999387e-05,-2.999999999999999737e-05,5.999999999999999474e-05,2.399999999999999790e-04,7.200000000000000453e-04,-5.999999999999999474e-05,-2.000000000000000164e-05,-8.000000000000000654e-05,4.000000000000000000e+00,1.900000000000000000e+01
4.036600000000000000e+04,-6.999999999999999387e-05,-2.999999999999999737e-05,5.999999999999999474e-05,2.399999999999999790e-04,7.200000000000000453e-04,-5.999999999999999474e-05,-2.000000000000000164e-05,-8.000000000000000654e-05,4.000000000000000000e+00,1.900000000000000000e+01
4.036700000000000000e+04,-6.999999999999999387e-05,-2.999999999999999737e-05,5.999999999999999474e-05,2.399999999999999790e-04,7.200000000000000453e-04,-5.999999999999999474e-05,-2.000000000000000164e-05,-8.000000000000000654e-05,4.000000000000000000e+00,1.900000000000000000e+01
4.036800000000000000e+04,-6.999999999999999387e-05,-2.999999999999999737e-05,5.999999999999999474e-05,2.399999999999999790e-04,7.200000000000000453e-04,-5.999999999999999474e-05,-2.000000000000000164e-05,-8.000000000000000654e-05,4.000000000000000000e+00,1.900000000000000000e+01
4.036900000000000000e+04,-6.999999999999999387e-05,-2.999999999999999737e-05,5.999999999999999474e-05,2.399999999999999790e-04,7.200000000000000453e-04,-5.999999999999999474e-05,-2.000000000000000164e-05,-8.000000000000000654e-05,4.000000000000000000e+00,1.900000000000000000e+01
4.037000000000000000e+04,-6.999999999999999387e-05,-2.999999999999999737e-05,5.999999999999999474e-05,2.399999999999999790e-04,7.200000000000000453e-04,-5.999999999999999474e-05,-2.000000000000000164e-05,-8.000000000000000654e-05,4.000000000000000000e+00,1.900000000000000000e+01
4.037100000000000000e+04,-6.999999999999999387e-05,-2.999999999999999737e-05,5.999999999999999474e-05,2.399999999999999790e-04,7.200000000000000453e-04,-5.999999999999999474e-05,-2.000000000000000164e-05,-8.000000000000000654e-05,4.000000000000000000e+00,1.900000000000000000e+01
4.037200000000000000e+04,-6.999999999999999387e-05,-2.999999999999999737e-05,5.999999999999999474e-05,2.399999999999999790e-04,7.200000000000000453e-04,-5.999999999999999474e-05,-2.000000000000000164e-05,-8.000000000000000654e-05,4.000000000000000000e+00,1.900000000000000000e+01
4.037300000000000000e+04,-6.999999999999999387e-05,-2.999999999999999737e-05,5.999999999999999474e-05,2.399999999999999790e-04,7.200000000000000453e-04,-5.999999999999999474e-05,-2.000000000000000164e-05,-8.000000000000000654e-05,4.000000000000000000e+00,1.900000000000000000e+01
4.037400000000000000e+04,-6.999999999999999387e-05,-2.999999999999999737e-05,5.999999999999999474e-05,2.399999999999999790e-04,7.200000000000000453e-04,-5.999999999999999474e-05,-2.000000000000000164e-05,-8.000000000000000654e-05,4.000000000000000000e+00,1.900000000000000000e+01
4.037500000000000000e+04,-6.999999999999999387e-05,-2.999999999999999737e-05,5.999999999999999474e-05,2.399999999999999790e-04,7.200000000000000453e-04,-5.999999999999999474e-05,-2.000000000000000164e-05,-8.000000000000000654e-05,4.000000000000000000e+00,1.900000000000000000e+01
4.037600000000000000e+04,-6.999999999999999387e-05,-2.999999999999999737e-05,5.999999999999999474e-05,2.399999999999999790e-04,7.200000000000000453e-04,-5.999999999999999474e-05,-2.000000000000000164e-05,-8.000000000000000654e-05,4.000000000000000000e+00,1.900000000000000000e+01
4.037700000000000000e+04,-6.999999999999999387e-05,-2.999999999999999737e-05,5.999999999999999474e-05,2.399999999999999790e-04,7.200000000000000453e-04,-5.999999999999999474e-05,-2.000000000000000164e-05,-8.000000000000000654e-05,4.000000000000000000e+00,1.900000000000000000e+01
4.037800000000000000e+04,-6.999999999999999387e-05,-2.999999999999999737e-05,5.999999999999999474e-05,2.399999999999999790e-04,7.200000000000000453e-04,-5.999999999999999474e-05,-2.000000000000000164e-05,-8.000000000000000654e-05,4.000000000000000000e+00,1.900000000000000000e+01
4.037900000000000000e+04,1.100000000000000039e-04,2.100000000000000087e-04,3.200000000000000262e-04,1.010000000000000047e-03,7.799999999999999859e-04,7.299999999999999632e-04,1.699999999999999851e-04,1.100000000000000039e-04,4.000000000000000000e+00,1.900000000000000000e+01
4.038000000000000000e+04,1.100000000000000039e-04,2.100000000000000087e-04,3.200000000000000262e-04,1.010000000000000047e-03,7.799999999999999859e-04,7.299999999999999632e-04,1.699999999999999851e-04,1.100000000000000039e-04,4.000000000000000000e+00,1.900000000000000000e+01
4.038100000000000000e+04,1.100000000000000039e-04,2.100000000000000087e-04,3.200000000000000262e-04,1.010000000000000047e-03,7.799999999999999859e-04,7.299999999999999632e-04,1.699999999999999851e-04,1.100000000000000039e-04,4.000000000000000000e+00,1.900000000000000000e+01
4.038200000000000000e+04,1.100000000000000039e-04,2.100000000000000087e-04,3.200000000000000262e-04,1.010000000000000047e-03,7.799999999999999859e-04,7.299999999999999632e-04,1.699999999999999851e-04,1.100000000000000039e-04,4.000000000000000000e+00,1.900000000000000000e+01
4.038300000000000000e+04,1.100000000000000039e-04,2.100000000000000087e-04,3.200000000000000262e-04,1.010000000000000047e-03,7.799999999999999859e-04,7.299999999999999632e-04,1.699999999999999851e-04,1.100000000000000039e-04,4.000000000000000000e+00,1.900000000000000000e+01
4.038400000000000000e+04,1.100000000000000039e-04,2.100000000000000087e-04,3.200000000000000262e-04,1.010000000000000047e-03,7.799999999999999859e-04,7.299999999999999632e-04,1.699999999999999851e-04,1.100000000000000039e-04,4.000000000000000000e+00,1.900000000000000000e+01
4.038500000000000000e+04,1.100000000000000039e-04,2.100000000000000087e-04,3.200000000000000262e-04,1.010000000000000047e-03,7.799999999999999859e-04,7.299999999999999632e-04,1.699999999999999851e-04,1.100000000000000039e-04,4.000000000000000000e+00,1.900000000000000000e+01
4.038600000000000000e+04,1.100000000000000039e-04,2.100000000000000087e-04,3.200000000000000262e-04,1.010000000000000047e-03,7.799999999999999859e-04,7.299999999999999632e-04,1.699999999999999851e-04,1.100000000000000039e-04,4.000000000000000000e+00,1.900000000000000000e+01
4.038900000000000000e+04,-4.000000000000000327e-05,-8.000000000000000654e-05,-1.300000000000000157e-04,-1.300000000000000157e-04,1.199999999999999895e-04,2.299999999999999799e-04,-2.999999999999999737e-05,-2.999999999999999737e-05,4.000000000000000000e+00,1.900000000000000000e+01
4.039000000000000000e+04,-4.000000000000000327e-05,-8.000000000000000654e-05,-1.300000000000000157e-04,-1.300000000000000157e-04,1.199999999999999895e-04,2.299999999999999799e-04,-2.999999999999999737e-05,-2.999999999999999737e-05,4.000000000000000000e+00,1.900000000000000000e+01
4.039100000000000000e+04,-4.000000000000000327e-05,-8.000000000000000654e-05,-1.300000000000000157e-04,-1.300000000000000157e-04,1.199999999999999895e-04,2.299999999999999799e-04,-2.999999999999999737e-05,-2.999999999999999737e-05,4.000000000000000000e+00,1.900000000000000000e+01
4.039200000000000000e+04,-4.000000000000000327e-05,-8.000000000000000654e-05,-1.300000000000000157e-04,-1.300000000000000157e-04,1.199999999999999895e-04,2.299999999999999799e-04,-2.999999999999999737e-05,-2.999999999999999737e-05,4.000000000000000000e+00,1.900000000000000000e+01
4.039300000000000000e+04,-4.000000000000000327e-05,-8.000000000000000654e-05,-1.300000000000000157e-04,-1.300000000000000157e-04,1.199999999999999895e-04,2.299999999999999799e-04,-2.999999999999999737e-05,-2.999999999999999737e-05,4.000000000000000000e+00,1.900000000000000000e+01
4.039400000000000000e+04,-4.000000000000000327e-05,-8.000000000000000654e-05,-1.300000000000000157e-04,-1.300000000000000157e-04,1.199999999999999895e-04,2.299999999999999799e-04,-2.999999999999999737e-05,-2.999999999999999737e-05,4.000000000000000000e+00,1.900000000000000000e+01
4.039500000000000000e+04,0.000000000000000000e+00,-2.999999999999999737e-05,0.000000000000000000e+00,4.400000000000000157e-04,5.000000000000000104e-04,-2.100000000000000087e-04,1.600000000000000131e-04,8.000000000000000654e-05,4.000000000000000000e+00,1.900000000000000000e+01
4.039600000000000000e+04,0.000000000000000000e+00,-2.999999999999999737e-05,0.000000000000000000e+00,4.400000000000000157e-04,5.000000000000000104e-04,-2.100000000000000087e-04,1.600000000000000131e-04,8.000000000000000654e-05,4.000000000000000000e+00,1.900000000000000000e+01
4.039700000000000000e+04,0.000000000000000000e+00,-2.999999999999999737e-05,0.000000000000000000e+00,4.400000000000000157e-04,5.000000000000000104e-04,-2.100000000000000087e-04,1.600000000000000131e-04,8.000000000000000654e-05,4.000000000000000000e+00,1.900000000000000000e+01
4.039800000000000000e+04,0.000000000000000000e+00,-2.999999999999999737e-05,0.000000000000000000e+00,4.400000000000000157e-04,5.000000000000000104e-04,-2.100000000000000087e-04,1.600000000000000131e-04,8.000000000000000654e-05,4.000000000000000000e+00,1.900000000000000000e+01
4.039900000000000000e+04,0.000000000000000000e+00,-2.999999999999999737e-05,0.000000000000000000e+00,4.400000000000000157e-04,5.000000000000000104e-04,-2.100000000000000087e-04,1.600000000000000131e-04,8.000000000000000654e-05,4.000000000000000000e+00,1.900000000000000000e+01
4.040000000000000000e+04,0.000000000000000000e+00,-2.999999999999999737e-05,0.000000000000000000e+00,4.400000000000000157e-04,5.000000000000000104e-04,-2.100000000000000087e-04,1.600000000000000131e-04,8.000000000000000654e-05,4.000000000000000000e+00,1.900000000000000000e+01
4.040100000000000000e+04,0.000000000000000000e+00,-2.999999999999999737e-05,0.000000000000000000e+00,4.400000000000000157e-04,5.000000000000000104e-04,-2.100000000000000087e-04,1.600000000000000131e-04,8.000000000000000654e-05,4.000000000000000000e+00,1.900000000000000000e+01
4.040200000000000000e+04,0.000000000000000000e+00,-2.999999999999999737e-05,0.000000000000000000e+00,4.400000000000000157e-04,5.000000000000000104e-04,-2.100000000000000087e-04,1.600000000000000131e-04,8.000000000000000654e-05,4.000000000000000000e+00,1.900000000000000000e+01
4.040300000000000000e+04,0.000000000000000000e+00,-2.999999999999999737e-05,0.000000000000000000e+00,4.400000000000000157e-04,5.000000000000000104e-04,-2.100000000000000087e-04,1.600000000000000131e-04,8.000000000000000654e-05,4.000000000000000000e+00,1.900000000000000000e+01
4.040400000000000000e+04,0.000000000000000000e+00,-2.999999999999999737e-05,0.000000000000000000e+00,4.400000000000000157e-04,5.000000000000000104e-04,-2.100000000000000087e-04,1.600000000000000131e-04,8.000000000000000654e-05,4.000000000000000000e+00,1.900000000000000000e+01
4.040500000000000000e+04,0.000000000000000000e+00,-2.999999999999999737e-05,0.000000000000000000e+00,4.400000000000000157e-04,5.000000000000000104e-04,-2.100000000000000087e-04,1.600000000000000131e-04,8.000000000000000654e-05,4.000000000000000000e+00,1.900000000000000000e+01
4.040600000000000000e+04,0.000000000000000000e+00,-2.999999999999999737e-05,0.000000000000000000e+00,4.400000000000000157e-04,5.000000000000000104e-04,-2.100000000000000087e-04,1.600000000000000131e-04,8.000000000000000654e-05,4.000000000000000000e+00,1.900000000000000000e+01
4.040700000000000000e+04,0.000000000000000000e+00,-2.999999999999999737e-05,0.000000000000000000e+00,4.400000000000000157e-04,5.000000000000000104e-04,-2.100000000000000087e-04,1.600000000000000131e-04,8.000000000000000654e-05,4.000000000000000000e+00,1.900000000000000000e+01
4.040800000000000000e+04,0.000000000000000000e+00,-2.999999999999999737e-05,0.000000000000000000e+00,4.400000000000000157e-04,5.000000000000000104e-04,-2.100000000000000087e-04,1.600000000000000131e-04,8.000000000000000654e-05,4.000000000000000000e+00,1.900000000000000000e+01
4.040900000000000000e+04,0.000000000000000000e+00,-2.999999999999999737e-05,0.000000000000000000e+00,4.400000000000000157e-04,5.000000000000000104e-04,-2.100000000000000087e-04,1.600000000000000131e-04,8.000000000000000654e-05,4.000000000000000000e+00,1.900000000000000000e+01
4.041000000000000000e+04,0.000000000000000000e+00,0.000000000000000000e+00,-8.000000000000000654e-05,-5.900000000000000296e-04,-5.999999999999999474e-05,3.299999999999999982e-04,2.299999999999999799e-04,1.000000000000000048e-04,4.000000000000000000e+00,1.900000000000000000e+01
4.041100000000000000e+04,0.000000000000000000e+00,0.000000000000000000e+00,-8.000000000000000654e-05,-5.900000000000000296e-04,-5.999999999999999474e-05,3.299999999999999982e-04,2.299999999999999799e-04,1.000000000000000048e-04,4.000000000000000000e+00,1.900000000000000000e+01
4.041200000000000000e+04,0.000000000000000000e+00,0.000000000000000000e+00,-8.000000000000000654e-05,-5.900000000000000296e-04,-5.999999999999999474e-05,3.299999999999999982e-04,2.299999999999999799e-04,1.000000000000000048e-04,4.000000000000000000e+00,1.900000000000000000e+01
4.041300000000000000e+04,0.000000000000000000e+00,0.000000000000000000e+00,-8.000000000000000654e-05,-5.900000000000000296e-04,-5.999999999999999474e-05,3.299999999999999982e-04,2.299999999999999799e-04,1.000000000000000048e-04,4.000000000000000000e+00,1.900000000000000000e+01
4.041400000000000000e+04,0.000000000000000000e+00,0.000000000000000000e+00,-8.000000000000000654e-05,-5.900000000000000296e-04,-5.999999999999999474e-05,3.299999999999999982e-04,2.299999999999999799e-04,1.000000000000000048e-04,4.000000000000000000e+00,1.900000000000000000e+01
4.041500000000000000e+04,0.000000000000000000e+00,0.000000000000000000e+00,-8.000000000000000654e-05,-5.900000000000000296e-04,-5.999999999999999474e-05,3.299999999999999982e-04,2.299999999999999799e-04,1.000000000000000048e-04,4.000000000000000000e+00,1.900000000000000000e+01
4.041600000000000000e+04,4.000000000000000327e-05,1.100000000000000039e-04,3.600000000000000227e-04,8.400000000000000348e-04,6.199999999999999999e-04,-1.000000000000000082e-05,6.999999999999999387e-05,2.000000000000000164e-05,4.000000000000000000e+00,1.900000000000000000e+01
4.041700000000000000e+04,-2.999999999999999737e-05,-9.000000000000000567e-05,-2.399999999999999790e-04,-4.000000000000000192e-04,-2.299999999999999799e-04,-2.299999999999999799e-04,-2.799999999999999755e-04,-1.000000000000000048e-04,4.000000000000000000e+00,1.900000000000000000e+01
4.041800000000000000e+04,-2.999999999999999737e-05,-9.000000000000000567e-05,-2.399999999999999790e-04,-4.000000000000000192e-04,-2.299999999999999799e-04,-2.299999999999999799e-04,-2.799999999999999755e-04,-1.000000000000000048e-04,4.000000000000000000e+00,1.900000000000000000e+01
4.041900000000000000e+04,-2.999999999999999737e-05,-9.000000000000000567e-05,-2.399999999999999790e-04,-4.000000000000000192e-04,-2.299999999999999799e-04,-2.299999999999999799e-04,-2.799999999999999755e-04,-1.000000000000000048e-04,4.000000000000000000e+00,1.900000000000000000e+01
4.042000000000000000e+04,-2.999999999999999737e-05,-9.000000000000000567e-05,-2.399999999999999790e-04,-4.000000000000000192e-04,-2.299999999999999799e-04,-2.299999999999999799e-04,-2.799999999999999755e-04,-1.000000000000000048e-04,4.000000000000000000e+00,1.900000000000000000e+01
4.042100000000000000e+04,-2.999999999999999737e-05,-9.000000000000000567e-05,-2.399999999999999790e-04,-4.000000000000000192e-04,-2.299999999999999799e-04,-2.299999999999999799e-04,-2.799999999999999755e-04,-1.000000000000000048e-04,4.000000000000000000e+00,1.900000000000000000e+01
4.042200000000000000e+04,-2.999999999999999737e-05,-9.000000000000000567e-05,-2.399999999999999790e-04,-4.000000000000000192e-04,-2.299999999999999799e-04,-2.299999999999999799e-04,-2.799999999999999755e-04,-1.000000000000000048e-04,4.000000000000000000e+00,1.900000000000000000e+01
4.042300000000000000e+04,-2.999999999999999737e-05,-9.000000000000000567e-05,-2.399999999999999790e-04,-4.000000000000000192e-04,-2.299999999999999799e-04,-2.299999999999999799e-04,-2.799999999999999755e-04,-1.000000000000000048e-04,4.000000000000000000e+00,1.900000000000000000e+01
4.042400000000000000e+04,-2.999999999999999737e-05,-9.000000000000000567e-05,-2.399999999999999790e-04,-4.000000000000000192e-04,-2.299999999999999799e-04,-2.299999999999999799e-04,-2.799999999999999755e-04,-1.000000000000000048e-04,4.000000000000000000e+00,1.900000000000000000e+01
4.042500000000000000e+04,-2.999999999999999737e-05,-9.000000000000000567e-05,-2.399999999999999790e-04,-4.000000000000000192e-04,-2.299999999999999799e-04,-2.299999999999999799e-04,-2.799999999999999755e-04,-1.000000000000000048e-04,4.000000000000000000e+00,1.900000000000000000e+01
4.042600000000000000e+04,-2.999999999999999737e-05,-9.000000000000000567e-05,-2.399999999999999790e-04,-4.000000000000000192e-04,-2.299999999999999799e-04,-2.299999999999999799e-04,-2.799999999999999755e-04,-1.000000000000000048e-04,4.000000000000000000e+00,1.900000000000000000e+01
4.042700000000000000e+04,-2.999999999999999737e-05,-9.000000000000000567e-05,-2.399999999999999790e-04,-4.000000000000000192e-04,-2.299999999999999799e-04,-2.299999999999999799e-04,-2.799999999999999755e-04,-1.000000000000000048e-04,4.000000000000000000e+00,1.900000000000000000e+01
4.042800000000000000e+04,-2.999999999999999737e-05,-9.000000000000000567e-05,-2.399999999999999790e-04,-4.000000000000000192e-04,-2.299999999999999799e-04,-2.299999999999999799e-04,-2.799999999999999755e-04,-1.000000000000000048e-04,4.000000000000000000e+00,1.900000000000000000e+01
4.042900000000000000e+04,-2.999999999999999737e-05,-9.000000000000000567e-05,-2.399999999999999790e-04,-4.000000000000000192e-04,-2.299999999999999799e-04,-2.299999999999999799e-04,-2.799999999999999755e-04,-1.000000000000000048e-04,4.000000000000000000e+00,1.900000000000000000e+01
4.043000000000000000e+04,-2.999999999999999737e-05,-9.000000000000000567e-05,-2.399999999999999790e-04,-4.000000000000000192e-04,-2.299999999999999799e-04,-2.299999999999999799e-04,-2.799999999999999755e-04,-1.000000000000000048e-04,4.000000000000000000e+00,1.900000000000000000e+01
4.043100000000000000e+04,-2.999999999999999737e-05,-9.000000000000000567e-05,-2.399999999999999790e-04,-4.000000000000000192e-04,-2.299999999999999799e-04,-2.299999999999999799e-04,-2.799999999999999755e-04,-1.000000000000000048e-04,4.000000000000000000e+00,1.900000000000000000e+01
4.043200000000000000e+04,-2.999999999999999737e-05,-9.000000000000000567e-05,-2.399999999999999790e-04,-4.000000000000000192e-04,-2.299999999999999799e-04,-2.299999999999999799e-04,-2.799999999999999755e-04,-1.000000000000000048e-04,4.000000000000000000e+00,1.900000000000000000e+01
4.043300000000000000e+04,-2.999999999999999737e-05,-9.000000000000000567e-05,-2.399999999999999790e-04,-4.000000000000000192e-04,-2.299999999999999799e-04,-2.299999999999999799e-04,-2.799999999999999755e-04,-1.000000000000000048e-04,4.000000000000000000e+00,1.900000000000000000e+01
4.043400000000000000e+04,-2.999999999999999737e-05,-9.000000000000000567e-05,-2.399999999999999790e-04,-4.000000000000000192e-04,-2.299999999999999799e-04,-2.299999999999999799e-04,-2.799999999999999755e-04,-1.000000000000000048e-04,4.000000000000000000e+00,1.900000000000000000e+01
4.043500000000000000e+04,-2.999999999999999737e-05,-9.000000000000000567e-05,-2.399999999999999790e-04,-4.000000000000000192e-04,-2.299999999999999799e-04,-2.299999999999999799e-04,-2.799999999999999755e-04,-1.000000000000000048e-04,4.000000000000000000e+00,1.900000000000000000e+01
4.043600000000000000e+04,-2.999999999999999737e-05,-9.000000000000000567e-05,-2.399999999999999790e-04,-4.000000000000000192e-04,-2.299999999999999799e-04,-2.299999999999999799e-04,-2.799999999999999755e-04,-1.000000000000000048e-04,4.000000000000000000e+00,1.900000000000000000e+01
4.043900000000000000e+04,-2.999999999999999737e-05,-9.000000000000000567e-05,-2.399999999999999790e-04,-4.000000000000000192e-04,-2.299999999999999799e-04,-2.299999999999999799e-04,-2.799999999999999755e-04,-1.000000000000000048e-04,4.000000000000000000e+00,1.900000000000000000e+01
4.044000000000000000e+04,-2.999999999999999737e-05,-9.000000000000000567e-05,-2.399999999999999790e-04,-4.000000000000000192e-04,-2.299999999999999799e-04,-2.299999999999999799e-04,-2.799999999999999755e-04,-1.000000000000000048e-04,4.000000000000000000e+00,1.900000000000000000e+01
4.044100000000000000e+04,-2.999999999999999737e-05,-9.000000000000000567e-05,-2.399999999999999790e-04,-4.000000000000000192e-04,-2.299999999999999799e-04,-2.299999999999999799e-04,-2.799999999999999755e-04,-1.000000000000000048e-04,4.000000000000000000e+00,1.900000000000000000e+01
4.044200000000000000e+04,-2.999999999999999737e-05,-9.000000000000000567e-05,-2.399999999999999790e-04,-4.000000000000000192e-04,-2.299999999999999799e-04,-2.299999999999999799e-04,-2.799999999999999755e-04,-1.000000000000000048e-04,4.000000000000000000e+00,1.900000000000000000e+01
4.044300000000000000e+04,-2.999999999999999737e-05,-9.000000000000000567e-05,-2.399999999999999790e-04,-4.000000000000000192e-04,-2.299999999999999799e-04,-2.299999999999999799e-04,-2.799999999999999755e-04,-1.000000000000000048e-04,4.000000000000000000e+00,1.900000000000000000e+01
4.044400000000000000e+04,-2.999999999999999737e-05,-9.000000000000000567e-05,-2.399999999999999790e-04,-4.000000000000000192e-04,-2.299999999999999799e-04,-2.299999999999999799e-04,-2.799999999999999755e-04,-1.000000000000000048e-04,4.000000000000000000e+00,1.900000000000000000e+01
4.044500000000000000e+04,-2.999999999999999737e-05,-9.000000000000000567e-05,-2.399999999999999790e-04,-4.000000000000000192e-04,-2.299999999999999799e-04,-2.299999999999999799e-04,-2.799999999999999755e-04,-1.000000000000000048e-04,4.000000000000000000e+00,1.900000000000000000e+01
4.044600000000000000e+04,-2.999999999999999737e-05,-9.000000000000000567e-05,-2.399999999999999790e-04,-4.000000000000000192e-04,-2.299999999999999799e-04,-2.299999999999999799e-04,-2.799999999999999755e-04,-1.000000000000000048e-04,4.000000000000000000e+00,1.900000000000000000e+01
4.044700000000000000e+04,-1.000000000000000048e-04,-1.000000000000000048e-04,-2.200000000000000078e-04,-2.500000000000000052e-04,-1.600000000000000131e-04,-7.599999999999999334e-04,-3.299999999999999982e-04,-1.899999999999999834e-04,4.000000000000000000e+00,1.900000000000000000e+01
4.044800000000000000e+04,-5.999999999999999474e-05,-8.000000000000000654e-05,-6.999999999999999387e-05,6.999999999999999387e-05,2.999999999999999737e-05,4.700000000000000401e-04,-2.999999999999999737e-05,-6.999999999999999387e-05,4.000000000000000000e+00,1.900000000000000000e+01
4.044900000000000000e+04,-5.999999999999999474e-05,-8.000000000000000654e-05,-6.999999999999999387e-05,6.999999999999999387e-05,2.999999999999999737e-05,4.700000000000000401e-04,-2.999999999999999737e-05,-6.999999999999999387e-05,4.000000000000000000e+00,1.900000000000000000e+01
4.045000000000000000e+04,-5.999999999999999474e-05,-8.000000000000000654e-05,-6.999999999999999387e-05,6.999999999999999387e-05,2.999999999999999737e-05,4.700000000000000401e-04,-2.999999999999999737e-05,-6.999999999999999387e-05,4.000000000000000000e+00,1.900000000000000000e+01
4.045100000000000000e+04,-5.999999999999999474e-05,-8.000000000000000654e-05,-6.999999999999999387e-05,6.999999999999999387e-05,2.999999999999999737e-05,4.700000000000000401e-04,-2.999999999999999737e-05,-6.999999999999999387e-05,4.000000000000000000e+00,1.900000000000000000e+01
4.045200000000000000e+04,-5.999999999999999474e-05,-8.000000000000000654e-05,-6.999999999999999387e-05,6.999999999999999387e-05,2.999999999999999737e-05,4.700000000000000401e-04,-2.999999999999999737e-05,-6.999999999999999387e-05,4.000000000000000000e+00,1.900000000000000000e+01
4.045300000000000000e+04,-5.999999999999999474e-05,-8.000000000000000654e-05,-6.999999999999999387e-05,6.999999999999999387e-05,2.999999999999999737e-05,4.700000000000000401e-04,-2.999999999999999737e-05,-6.999999999999999387e-05,4.000000000000000000e+00,1.900000000000000000e+01
4.045400000000000000e+04,-8.000000000000000654e-05,-4.000000000000000327e-05,5.000000000000000240e-05,5.599999999999999509e-04,1.269999999999999862e-03,1.699999999999999851e-04,-9.000000000000000567e-05,-8.000000000000000654e-05,4.000000000000000000e+00,1.900000000000000000e+01
4.045500000000000000e+04,-1.699999999999999851e-04,-1.699999999999999851e-04,-2.000000000000000096e-04,-3.899999999999999929e-04,-8.400000000000000348e-04,-1.019999999999999856e-03,-4.299999999999999894e-04,-2.000000000000000096e-04,4.000000000000000000e+00,1.900000000000000000e+01
4.045600000000000000e+04,-1.699999999999999851e-04,-1.699999999999999851e-04,-2.000000000000000096e-04,-3.899999999999999929e-04,-8.400000000000000348e-04,-1.019999999999999856e-03,-4.299999999999999894e-04,-2.000000000000000096e-04,4.000000000000000000e+00,1.900000000000000000e+01
4.045700000000000000e+04,-1.699999999999999851e-04,-1.699999999999999851e-04,-2.000000000000000096e-04,-3.899999999999999929e-04,-8.400000000000000348e-04,-1.019999999999999856e-03,-4.299999999999999894e-04,-2.000000000000000096e-04,4.000000000000000000e+00,1.900000000000000000e+01
4.045800000000000000e+04,-1.699999999999999851e-04,-1.699999999999999851e-04,-2.000000000000000096e-04,-3.899999999999999929e-04,-8.400000000000000348e-04,-1.019999999999999856e-03,-4.299999999999999894e-04,-2.000000000000000096e-04,4.000000000000000000e+00,1.900000000000000000e+01
4.045900000000000000e+04,-1.699999999999999851e-04,-1.699999999999999851e-04,-2.000000000000000096e-04,-3.899999999999999929e-04,-8.400000000000000348e-04,-1.019999999999999856e-03,-4.299999999999999894e-04,-2.000000000000000096e-04,4.000000000000000000e+00,1.900000000000000000e+01
4.046000000000000000e+04,-1.699999999999999851e-04,-1.699999999999999851e-04,-2.000000000000000096e-04,-3.899999999999999929e-04,-8.400000000000000348e-04,-1.019999999999999856e-03,-4.299999999999999894e-04,-2.000000000000000096e-04,4.000000000000000000e+00,1.900000000000000000e+01
4.046100000000000000e+04,-1.699999999999999851e-04,-1.699999999999999851e-04,-2.000000000000000096e-04,-3.899999999999999929e-04,-8.400000000000000348e-04,-1.019999999999999856e-03,-4.299999999999999894e-04,-2.000000000000000096e-04,4.000000000000000000e+00,1.900000000000000000e+01
4.046200000000000000e+04,-1.699999999999999851e-04,-1.699999999999999851e-04,-2.000000000000000096e-04,-3.899999999999999929e-04,-8.400000000000000348e-04,-1.019999999999999856e-03,-4.299999999999999894e-04,-2.000000000000000096e-04,4.000000000000000000e+00,1.900000000000000000e+01
4.046300000000000000e+04,-1.699999999999999851e-04,-1.699999999999999851e-04,-2.000000000000000096e-04,-3.899999999999999929e-04,-8.400000000000000348e-04,-1.019999999999999856e-03,-4.299999999999999894e-04,-2.000000000000000096e-04,4.000000000000000000e+00,1.900000000000000000e+01
4.046400000000000000e+04,-1.699999999999999851e-04,-1.699999999999999851e-04,-2.000000000000000096e-04,-3.899999999999999929e-04,-8.400000000000000348e-04,-1.019999999999999856e-03,-4.299999999999999894e-04,-2.000000000000000096e-04,4.000000000000000000e+00,1.900000000000000000e+01
4.046500000000000000e+04,-1.699999999999999851e-04,-1.699999999999999851e-04,-2.000000000000000096e-04,-3.899999999999999929e-04,-8.400000000000000348e-04,-1.019999999999999856e-03,-4.299999999999999894e-04,-2.000000000000000096e-04,4.000000000000000000e+00,1.900000000000000000e+01
4.046600000000000000e+04,-1.699999999999999851e-04,-1.699999999999999851e-04,-2.000000000000000096e-04,-3.899999999999999929e-04,-8.400000000000000348e-04,-1.019999999999999856e-03,-4.299999999999999894e-04,-2.000000000000000096e-04,4.000000000000000000e+00,1.900000000000000000e+01
4.046700000000000000e+04,-1.699999999999999851e-04,-1.699999999999999851e-04,-2.000000000000000096e-04,-3.899999999999999929e-04,-8.400000000000000348e-04,-1.019999999999999856e-03,-4.299999999999999894e-04,-2.000000000000000096e-04,4.000000000000000000e+00,1.900000000000000000e+01
4.046800000000000000e+04,-1.699999999999999851e-04,-1.699999999999999851e-04,-2.000000000000000096e-04,-3.899999999999999929e-04,-8.400000000000000348e-04,-1.019999999999999856e-03,-4.299999999999999894e-04,-2.000000000000000096e-04,4.000000000000000000e+00,1.900000000000000000e+01
4.046900000000000000e+04,-1.699999999999999851e-04,-1.699999999999999851e-04,-2.000000000000000096e-04,-3.899999999999999929e-04,-8.400000000000000348e-04,-1.019999999999999856e-03,-4.299999999999999894e-04,-2.000000000000000096e-04,4.000000000000000000e+00,1.900000000000000000e+01
4.047000000000000000e+04,-1.699999999999999851e-04,-1.699999999999999851e-04,-2.000000000000000096e-04,-3.899999999999999929e-04,-8.400000000000000348e-04,-1.019999999999999856e-03,-4.299999999999999894e-04,-2.000000000000000096e-04,4.000000000000000000e+00,1.900000000000000000e+01
4.047100000000000000e+04,-1.699999999999999851e-04,-1.699999999999999851e-04,-2.000000000000000096e-04,-3.899999999999999929e-04,-8.400000000000000348e-04,-1.019999999999999856e-03,-4.299999999999999894e-04,-2.000000000000000096e-04,4.000000000000000000e+00,1.900000000000000000e+01
4.047200000000000000e+04,-1.699999999999999851e-04,-1.699999999999999851e-04,-2.000000000000000096e-04,-3.899999999999999929e-04,-8.400000000000000348e-04,-1.019999999999999856e-03,-4.299999999999999894e-04,-2.000000000000000096e-04,4.000000000000000000e+00,1.900000000000000000e+01
4.047300000000000000e+04,-1.699999999999999851e-04,-1.699999999999999851e-04,-2.000000000000000096e-04,-3.899999999999999929e-04,-8.400000000000000348e-04,-1.019999999999999856e-03,-4.299999999999999894e-04,-2.000000000000000096e-04,4.000000000000000000e+00,1.900000000000000000e+01
4.047400000000000000e+04,-1.699999999999999851e-04,-1.699999999999999851e-04,-2.000000000000000096e-04,-3.899999999999999929e-04,-8.400000000000000348e-04,-1.019999999999999856e-03,-4.299999999999999894e-04,-2.000000000000000096e-04,4.000000000000000000e+00,1.900000000000000000e+01
4.047500000000000000e+04,-1.699999999999999851e-04,-1.699999999999999851e-04,-2.000000000000000096e-04,-3.899999999999999929e-04,-8.400000000000000348e-04,-1.019999999999999856e-03,-4.299999999999999894e-04,-2.000000000000000096e-04,4.000000000000000000e+00,1.900000000000000000e+01
4.047600000000000000e+04,-1.699999999999999851e-04,-1.699999999999999851e-04,-2.000000000000000096e-04,-3.899999999999999929e-04,-8.400000000000000348e-04,-1.019999999999999856e-03,-4.299999999999999894e-04,-2.000000000000000096e-04,4.000000000000000000e+00,1.900000000000000000e+01
4.047700000000000000e+04,-8.000000000000000654e-05,-8.000000000000000654e-05,-1.100000000000000039e-04,1.100000000000000039e-04,9.100000000000000016e-04,-2.100000000000000087e-04,-3.699999999999999947e-04,-1.600000000000000131e-04,4.000000000000000000e+00,1.900000000000000000e+01
4.047800000000000000e+04,6.999999999999999387e-05,-2.999999999999999737e-05,-3.499999999999999964e-04,-1.119999999999999902e-03,-8.900000000000000576e-04,-1.300000000000000157e-04,1.899999999999999834e-04,5.999999999999999474e-05,4.000000000000000000e+00,1.900000000000000000e+01
4.047900000000000000e+04,6.999999999999999387e-05,-2.999999999999999737e-05,-3.499999999999999964e-04,-1.119999999999999902e-03,-8.900000000000000576e-04,-1.300000000000000157e-04,1.899999999999999834e-04,5.999999999999999474e-05,4.000000000000000000e+00,1.900000000000000000e+01
4.048000000000000000e+04,6.999999999999999387e-05,-2.999999999999999737e-05,-3.499999999999999964e-04,-1.119999999999999902e-03,-8.900000000000000576e-04,-1.300000000000000157e-04,1.899999999999999834e-04,5.999999999999999474e-05,4.000000000000000000e+00,1.900000000000000000e+01
4.048100000000000000e+04,6.999999999999999387e-05,-2.999999999999999737e-05,-3.499999999999999964e-04,-1.119999999999999902e-03,-8.900000000000000576e-04,-1.300000000000000157e-04,1.899999999999999834e-04,5.999999999999999474e-05,4.000000000000000000e+00,1.900000000000000000e+01
4.048200000000000000e+04,6.999999999999999387e-05,-2.999999999999999737e-05,-3.499999999999999964e-04,-1.119999999999999902e-03,-8.900000000000000576e-04,-1.300000000000000157e-04,1.899999999999999834e-04,5.999999999999999474e-05,4.000000000000000000e+00,1.900000000000000000e+01
4.048300000000000000e+04,6.999999999999999387e-05,-2.999999999999999737e-05,-3.499999999999999964e-04,-1.119999999999999902e-03,-8.900000000000000576e-04,-1.300000000000000157e-04,1.899999999999999834e-04,5.999999999999999474e-05,4.000000000000000000e+00,1.900000000000000000e+01
4.048400000000000000e+04,6.999999999999999387e-05,-2.999999999999999737e-05,-3.499999999999999964e-04,-1.119999999999999902e-03,-8.900000000000000576e-04,-1.300000000000000157e-04,1.899999999999999834e-04,5.999999999999999474e-05,4.000000000000000000e+00,1.900000000000000000e+01
4.048500000000000000e+04,6.999999999999999387e-05,-2.999999999999999737e-05,-3.499999999999999964e-04,-1.119999999999999902e-03,-8.900000000000000576e-04,-1.300000000000000157e-04,1.899999999999999834e-04,5.999999999999999474e-05,4.000000000000000000e+00,1.900000000000000000e+01
4.048600000000000000e+04,6.999999999999999387e-05,-2.999999999999999737e-05,-3.499999999999999964e-04,-1.119999999999999902e-03,-8.900000000000000576e-04,-1.300000000000000157e-04,1.899999999999999834e-04,5.999999999999999474e-05,4.000000000000000000e+00,1.900000000000000000e+01
4.048900000000000000e+04,6.999999999999999387e-05,-2.999999999999999737e-05,-3.499999999999999964e-04,-1.119999999999999902e-03,-8.900000000000000576e-04,-1.300000000000000157e-04,1.899999999999999834e-04,5.999999999999999474e-05,4.000000000000000000e+00,1.900000000000000000e+01
4.049000000000000000e+04,6.999999999999999387e-05,-2.999999999999999737e-05,-3.499999999999999964e-04,-1.119999999999999902e-03,-8.900000000000000576e-04,-1.300000000000000157e-04,1.899999999999999834e-04,5.999999999999999474e-05,4.000000000000000000e+00,1.900000000000000000e+01
4.049100000000000000e+04,6.999999999999999387e-05,-2.999999999999999737e-05,-3.499999999999999964e-04,-1.119999999999999902e-03,-8.900000000000000576e-04,-1.300000000000000157e-04,1.899999999999999834e-04,5.999999999999999474e-05,4.000000000000000000e+00,1.900000000000000000e+01
4.049200000000000000e+04,6.999999999999999387e-05,-2.999999999999999737e-05,-3.499999999999999964e-04,-1.119999999999999902e-03,-8.900000000000000576e-04,-1.300000000000000157e-04,1.899999999999999834e-04,5.999999999999999474e-05,4.000000000000000000e+00,1.900000000000000000e+01
4.049300000000000000e+04,6.999999999999999387e-05,-2.999999999999999737e-05,-3.499999999999999964e-04,-1.119999999999999902e-03,-8.900000000000000576e-04,-1.300000000000000157e-04,1.899999999999999834e-04,5.999999999999999474e-05,4.000000000000000000e+00,1.900000000000000000e+01
4.049400000000000000e+04,6.999999999999999387e-05,-2.999999999999999737e-05,-3.499999999999999964e-04,-1.119999999999999902e-03,-8.900000000000000576e-04,-1.300000000000000157e-04,1.899999999999999834e-04,5.999999999999999474e-05,4.000000000000000000e+00,1.900000000000000000e+01
4.049500000000000000e+04,6.999999999999999387e-05,-2.999999999999999737e-05,-3.499999999999999964e-04,-1.119999999999999902e-03,-8.900000000000000576e-04,-1.300000000000000157e-04,1.899999999999999834e-04,5.999999999999999474e-05,4.000000000000000000e+00,1.900000000000000000e+01
4.049600000000000000e+04,6.999999999999999387e-05,-2.999999999999999737e-05,-3.499999999999999964e-04,-1.119999999999999902e-03,-8.900000000000000576e-04,-1.300000000000000157e-04,1.899999999999999834e-04,5.999999999999999474e-05,4.000000000000000000e+00,1.900000000000000000e+01
4.049700000000000000e+04,6.999999999999999387e-05,-2.999999999999999737e-05,-3.499999999999999964e-04,-1.119999999999999902e-03,-8.900000000000000576e-04,-1.300000000000000157e-04,1.899999999999999834e-04,5.999999999999999474e-05,4.000000000000000000e+00,1.900000000000000000e+01
4.049800000000000000e+04,6.999999999999999387e-05,-2.999999999999999737e-05,-3.499999999999999964e-04,-1.119999999999999902e-03,-8.900000000000000576e-04,-1.300000000000000157e-04,1.899999999999999834e-04,5.999999999999999474e-05,4.000000000000000000e+00,1.900000000000000000e+01
4.049900000000000000e+04,6.999999999999999387e-05,-2.999999999999999737e-05,-3.499999999999999964e-04,-1.119999999999999902e-03,-8.900000000000000576e-04,-1.300000000000000157e-04,1.899999999999999834e-04,5.999999999999999474e-05,4.000000000000000000e+00,1.900000000000000000e+01
4.050000000000000000e+04,6.999999999999999387e-05,-2.999999999999999737e-05,-3.499999999999999964e-04,-1.119999999999999902e-03,-8.900000000000000576e-04,-1.300000000000000157e-04,1.899999999999999834e-04,5.999999999999999474e-05,4.000000000000000000e+00,1.900000000000000000e+01
4.050100000000000000e+04,6.999999999999999387e-05,-2.999999999999999737e-05,-3.499999999999999964e-04,-1.119999999999999902e-03,-8.900000000000000576e-04,-1.300000000000000157e-04,1.899999999999999834e-04,5.999999999999999474e-05,4.000000000000000000e+00,1.900000000000000000e+01
4.050200000000000000e+04,6.999999999999999387e-05,-2.999999999999999737e-05,-3.499999999999999964e-04,-1.119999999999999902e-03,-8.900000000000000576e-04,-1.300000000000000157e-04,1.899999999999999834e-04,5.999999999999999474e-05,4.000000000000000000e+00,1.900000000000000000e+01
4.050300000000000000e+04,6.999999999999999387e-05,-2.999999999999999737e-05,-3.499999999999999964e-04,-1.119999999999999902e-03,-8.900000000000000576e-04,-1.300000000000000157e-04,1.899999999999999834e-04,5.999999999999999474e-05,4.000000000000000000e+00,1.900000000000000000e+01
4.050400000000000000e+04,6.999999999999999387e-05,-2.999999999999999737e-05,-3.499999999999999964e-04,-1.119999999999999902e-03,-8.900000000000000576e-04,-1.300000000000000157e-04,1.899999999999999834e-04,5.999999999999999474e-05,4.000000000000000000e+00,1.900000000000000000e+01
4.050500000000000000e+04,6.999999999999999387e-05,-2.999999999999999737e-05,-3.499999999999999964e-04,-1.119999999999999902e-03,-8.900000000000000576e-04,-1.300000000000000157e-04,1.899999999999999834e-04,5.999999999999999474e-05,4.000000000000000000e+00,1.900000000000000000e+01
4.050700000000000000e+04,-1.000000000000000082e-05,-2.999999999999999737e-05,-8.000000000000000654e-05,-2.900000000000000017e-04,-6.700000000000000226e-04,6.999999999999999387e-05,2.999999999999999737e-05,1.000000000000000082e-05,4.000000000000000000e+00,1.900000000000000000e+01
4.050800000000000000e+04,-4.000000000000000327e-05,-2.000000000000000164e-05,-1.800000000000000113e-04,-3.600000000000000227e-04,4.700000000000000401e-04,5.999999999999999474e-04,1.899999999999999834e-04,5.000000000000000240e-05,4.000000000000000000e+00,1.900000000000000000e+01
4.050900000000000000e+04,-4.000000000000000327e-05,-2.000000000000000164e-05,-1.800000000000000113e-04,-3.600000000000000227e-04,4.700000000000000401e-04,5.999999999999999474e-04,1.899999999999999834e-04,5.000000000000000240e-05,4.000000000000000000e+00,1.900000000000000000e+01
4.051000000000000000e+04,-4.000000000000000327e-05,-2.000000000000000164e-05,-1.800000000000000113e-04,-3.600000000000000227e-04,4.700000000000000401e-04,5.999999999999999474e-04,1.899999999999999834e-04,5.000000000000000240e-05,4.000000000000000000e+00,1.900000000000000000e+01
4.051100000000000000e+04,-4.000000000000000327e-05,-2.000000000000000164e-05,-1.800000000000000113e-04,-3.600000000000000227e-04,4.700000000000000401e-04,5.999999999999999474e-04,1.899999999999999834e-04,5.000000000000000240e-05,4.000000000000000000e+00,1.900000000000000000e+01
4.051200000000000000e+04,-4.000000000000000327e-05,-2.000000000000000164e-05,-1.800000000000000113e-04,-3.600000000000000227e-04,4.700000000000000401e-04,5.999999999999999474e-04,1.899999999999999834e-04,5.000000000000000240e-05,4.000000000000000000e+00,1.900000000000000000e+01
4.051300000000000000e+04,-4.000000000000000327e-05,-2.000000000000000164e-05,-1.800000000000000113e-04,-3.600000000000000227e-04,4.700000000000000401e-04,5.999999999999999474e-04,1.899999999999999834e-04,5.000000000000000240e-05,4.000000000000000000e+00,1.900000000000000000e+01
4.051400000000000000e+04,-4.000000000000000327e-05,-2.000000000000000164e-05,-1.800000000000000113e-04,-3.600000000000000227e-04,4.700000000000000401e-04,5.999999999999999474e-04,1.899999999999999834e-04,5.000000000000000240e-05,4.000000000000000000e+00,1.900000000000000000e+01
4.051500000000000000e+04,-5.999999999999999474e-05,-5.000000000000000240e-05,-1.699999999999999851e-04,-6.400000000000000524e-04,-8.800000000000000313e-04,-7.399999999999999894e-04,-2.500000000000000052e-04,-9.000000000000000567e-05,4.000000000000000000e+00,1.900000000000000000e+01
4.051600000000000000e+04,-5.999999999999999474e-05,-5.000000000000000240e-05,-1.699999999999999851e-04,-6.400000000000000524e-04,-8.800000000000000313e-04,-7.399999999999999894e-04,-2.500000000000000052e-04,-9.000000000000000567e-05,4.000000000000000000e+00,1.900000000000000000e+01
4.051700000000000000e+04,-5.999999999999999474e-05,-5.000000000000000240e-05,-1.699999999999999851e-04,-6.400000000000000524e-04,-8.800000000000000313e-04,-7.399999999999999894e-04,-2.500000000000000052e-04,-9.000000000000000567e-05,4.000000000000000000e+00,1.900000000000000000e+01
4.051800000000000000e+04,-5.999999999999999474e-05,-5.000000000000000240e-05,-1.699999999999999851e-04,-6.400000000000000524e-04,-8.800000000000000313e-04,-7.399999999999999894e-04,-2.500000000000000052e-04,-9.000000000000000567e-05,4.000000000000000000e+00,1.900000000000000000e+01
4.051900000000000000e+04,-5.999999999999999474e-05,-5.000000000000000240e-05,-1.699999999999999851e-04,-6.400000000000000524e-04,-8.800000000000000313e-04,-7.399999999999999894e-04,-2.500000000000000052e-04,-9.000000000000000567e-05,4.000000000000000000e+00,1.900000000000000000e+01
4.052000000000000000e+04,-5.999999999999999474e-05,-5.000000000000000240e-05,-1.699999999999999851e-04,-6.400000000000000524e-04,-8.800000000000000313e-04,-7.399999999999999894e-04,-2.500000000000000052e-04,-9.000000000000000567e-05,4.000000000000000000e+00,1.900000000000000000e+01
4.052100000000000000e+04,-5.999999999999999474e-05,-5.000000000000000240e-05,-1.699999999999999851e-04,-6.400000000000000524e-04,-8.800000000000000313e-04,-7.399999999999999894e-04,-2.500000000000000052e-04,-9.000000000000000567e-05,4.000000000000000000e+00,1.900000000000000000e+01
4.052200000000000000e+04,-5.999999999999999474e-05,-5.000000000000000240e-05,-1.699999999999999851e-04,-6.400000000000000524e-04,-8.800000000000000313e-04,-7.399999999999999894e-04,-2.500000000000000052e-04,-9.000000000000000567e-05,4.000000000000000000e+00,1.900000000000000000e+01
4.052300000000000000e+04,-5.999999999999999474e-05,-5.000000000000000240e-05,-1.699999999999999851e-04,-6.400000000000000524e-04,-8.800000000000000313e-04,-7.399999999999999894e-04,-2.500000000000000052e-04,-9.000000000000000567e-05,4.000000000000000000e+00,1.900000000000000000e+01
4.052400000000000000e+04,-5.999999999999999474e-05,-5.000000000000000240e-05,-1.699999999999999851e-04,-6.400000000000000524e-04,-8.800000000000000313e-04,-7.399999999999999894e-04,-2.500000000000000052e-04,-9.000000000000000567e-05,4.000000000000000000e+00,1.900000000000000000e+01
4.052500000000000000e+04,-5.999999999999999474e-05,-5.000000000000000240e-05,-1.699999999999999851e-04,-6.400000000000000524e-04,-8.800000000000000313e-04,-7.399999999999999894e-04,-2.500000000000000052e-04,-9.000000000000000567e-05,4.000000000000000000e+00,1.900000000000000000e+01
4.052600000000000000e+04,-5.999999999999999474e-05,-5.000000000000000240e-05,-1.699999999999999851e-04,-6.400000000000000524e-04,-8.800000000000000313e-04,-7.399999999999999894e-04,-2.500000000000000052e-04,-9.000000000000000567e-05,4.000000000000000000e+00,1.900000000000000000e+01
4.052700000000000000e+04,-5.999999999999999474e-05,-5.000000000000000240e-05,-1.699999999999999851e-04,-6.400000000000000524e-04,-8.800000000000000313e-04,-7.399999999999999894e-04,-2.500000000000000052e-04,-9.000000000000000567e-05,4.000000000000000000e+00,1.900000000000000000e+01
4.052800000000000000e+04,5.999999999999999474e-05,5.000000000000000240e-05,1.499999999999999869e-04,1.499999999999999869e-04,-1.300000000000000157e-04,6.900000000000000751e-04,6.999999999999999387e-05,2.000000000000000164e-05,4.000000000000000000e+00,1.900000000000000000e+01
4.053000000000000000e+04,5.999999999999999474e-05,5.000000000000000240e-05,1.499999999999999869e-04,1.499999999999999869e-04,-1.300000000000000157e-04,6.900000000000000751e-04,6.999999999999999387e-05,2.000000000000000164e-05,4.000000000000000000e+00,1.900000000000000000e+01
4.053100000000000000e+04,5.999999999999999474e-05,5.000000000000000240e-05,1.499999999999999869e-04,1.499999999999999869e-04,-1.300000000000000157e-04,6.900000000000000751e-04,6.999999999999999387e-05,2.000000000000000164e-05,4.000000000000000000e+00,1.900000000000000000e+01
4.053200000000000000e+04,5.999999999999999474e-05,5.000000000000000240e-05,1.499999999999999869e-04,1.499999999999999869e-04,-1.300000000000000157e-04,6.900000000000000751e-04,6.999999999999999387e-05,2.000000000000000164e-05,4.000000000000000000e+00,1.900000000000000000e+01
4.053300000000000000e+04,5.999999999999999474e-05,5.000000000000000240e-05,1.499999999999999869e-04,1.499999999999999869e-04,-1.300000000000000157e-04,6.900000000000000751e-04,6.999999999999999387e-05,2.000000000000000164e-05,4.000000000000000000e+00,1.900000000000000000e+01
4.053400000000000000e+04,5.999999999999999474e-05,5.000000000000000240e-05,1.499999999999999869e-04,1.499999999999999869e-04,-1.300000000000000157e-04,6.900000000000000751e-04,6.999999999999999387e-05,2.000000000000000164e-05,4.000000000000000000e+00,1.900000000000000000e+01
4.053500000000000000e+04,5.999999999999999474e-05,5.000000000000000240e-05,1.499999999999999869e-04,1.499999999999999869e-04,-1.300000000000000157e-04,6.900000000000000751e-04,6.999999999999999387e-05,2.000000000000000164e-05,4.000000000000000000e+00,1.900000000000000000e+01
4.053600000000000000e+04,2.299999999999999799e-04,2.299999999999999799e-04,4.099999999999999912e-04,3.399999999999999702e-04,9.100000000000000016e-04,3.600000000000000227e-04,2.299999999999999799e-04,2.299999999999999799e-04,4.000000000000000000e+00,1.900000000000000000e+01
4.053900000000000000e+04,2.299999999999999799e-04,2.299999999999999799e-04,4.099999999999999912e-04,3.399999999999999702e-04,9.100000000000000016e-04,3.600000000000000227e-04,2.299999999999999799e-04,2.299999999999999799e-04,4.000000000000000000e+00,1.900000000000000000e+01
4.054000000000000000e+04,2.299999999999999799e-04,2.299999999999999799e-04,4.099999999999999912e-04,3.399999999999999702e-04,9.100000000000000016e-04,3.600000000000000227e-04,2.299999999999999799e-04,2.299999999999999799e-04,4.000000000000000000e+00,1.900000000000000000e+01
4.054100000000000000e+04,2.299999999999999799e-04,2.299999999999999799e-04,4.099999999999999912e-04,3.399999999999999702e-04,9.100000000000000016e-04,3.600000000000000227e-04,2.299999999999999799e-04,2.299999999999999799e-04,4.000000000000000000e+00,1.900000000000000000e+01
4.054200000000000000e+04,2.299999999999999799e-04,2.299999999999999799e-04,4.099999999999999912e-04,3.399999999999999702e-04,9.100000000000000016e-04,3.600000000000000227e-04,2.299999999999999799e-04,2.299999999999999799e-04,4.000000000000000000e+00,1.900000000000000000e+01
4.054300000000000000e+04,2.299999999999999799e-04,2.299999999999999799e-04,4.099999999999999912e-04,3.399999999999999702e-04,9.100000000000000016e-04,3.600000000000000227e-04,2.299999999999999799e-04,2.299999999999999799e-04,4.000000000000000000e+00,1.900000000000000000e+01
4.054400000000000000e+04,2.299999999999999799e-04,2.299999999999999799e-04,4.099999999999999912e-04,3.399999999999999702e-04,9.100000000000000016e-04,3.600000000000000227e-04,2.299999999999999799e-04,2.299999999999999799e-04,4.000000000000000000e+00,1.900000000000000000e+01
4.054500000000000000e+04,2.299999999999999799e-04,2.299999999999999799e-04,4.099999999999999912e-04,3.399999999999999702e-04,9.100000000000000016e-04,3.600000000000000227e-04,2.299999999999999799e-04,2.299999999999999799e-04,4.000000000000000000e+00,1.900000000000000000e+01
4.054600000000000000e+04,2.299999999999999799e-04,2.299999999999999799e-04,4.099999999999999912e-04,3.399999999999999702e-04,9.100000000000000016e-04,3.600000000000000227e-04,2.299999999999999799e-04,2.299999999999999799e-04,4.000000000000000000e+00,1.900000000000000000e+01
4.054700000000000000e+04,2.299999999999999799e-04,2.299999999999999799e-04,4.099999999999999912e-04,3.399999999999999702e-04,9.100000000000000016e-04,3.600000000000000227e-04,2.299999999999999799e-04,2.299999999999999799e-04,4.000000000000000000e+00,1.900000000000000000e+01
4.054800000000000000e+04,2.299999999999999799e-04,2.299999999999999799e-04,4.099999999999999912e-04,3.399999999999999702e-04,9.100000000000000016e-04,3.600000000000000227e-04,2.299999999999999799e-04,2.299999999999999799e-04,4.000000000000000000e+00,1.900000000000000000e+01
4.054900000000000000e+04,2.299999999999999799e-04,2.299999999999999799e-04,4.099999999999999912e-04,3.399999999999999702e-04,9.100000000000000016e-04,3.600000000000000227e-04,2.299999999999999799e-04,2.299999999999999799e-04,4.000000000000000000e+00,1.900000000000000000e+01
4.055000000000000000e+04,2.299999999999999799e-04,2.299999999999999799e-04,4.099999999999999912e-04,3.399999999999999702e-04,9.100000000000000016e-04,3.600000000000000227e-04,2.299999999999999799e-04,2.299999999999999799e-04,4.000000000000000000e+00,1.900000000000000000e+01
4.055100000000000000e+04,2.299999999999999799e-04,2.299999999999999799e-04,4.099999999999999912e-04,3.399999999999999702e-04,9.100000000000000016e-04,3.600000000000000227e-04,2.299999999999999799e-04,2.299999999999999799e-04,4.000000000000000000e+00,1.900000000000000000e+01
4.055200000000000000e+04,2.299999999999999799e-04,2.299999999999999799e-04,4.099999999999999912e-04,3.399999999999999702e-04,9.100000000000000016e-04,3.600000000000000227e-04,2.299999999999999799e-04,2.299999999999999799e-04,4.000000000000000000e+00,1.900000000000000000e+01
4.055400000000000000e+04,2.299999999999999799e-04,2.299999999999999799e-04,4.099999999999999912e-04,3.399999999999999702e-04,9.100000000000000016e-04,3.600000000000000227e-04,2.299999999999999799e-04,2.299999999999999799e-04,4.000000000000000000e+00,1.900000000000000000e+01
4.055500000000000000e+04,2.299999999999999799e-04,2.299999999999999799e-04,4.099999999999999912e-04,3.399999999999999702e-04,9.100000000000000016e-04,3.600000000000000227e-04,2.299999999999999799e-04,2.299999999999999799e-04,4.000000000000000000e+00,1.900000000000000000e+01
4.055600000000000000e+04,2.299999999999999799e-04,2.299999999999999799e-04,4.099999999999999912e-04,3.399999999999999702e-04,9.100000000000000016e-04,3.600000000000000227e-04,2.299999999999999799e-04,2.299999999999999799e-04,4.000000000000000000e+00,1.900000000000000000e+01
4.055700000000000000e+04,2.299999999999999799e-04,2.299999999999999799e-04,4.099999999999999912e-04,3.399999999999999702e-04,9.100000000000000016e-04,3.600000000000000227e-04,2.299999999999999799e-04,2.299999999999999799e-04,4.000000000000000000e+00,1.900000000000000000e+01
4.055800000000000000e+04,2.299999999999999799e-04,2.299999999999999799e-04,4.099999999999999912e-04,3.399999999999999702e-04,9.100000000000000016e-04,3.600000000000000227e-04,2.299999999999999799e-04,2.299999999999999799e-04,4.000000000000000000e+00,1.900000000000000000e+01
4.055900000000000000e+04,2.299999999999999799e-04,2.299999999999999799e-04,4.099999999999999912e-04,3.399999999999999702e-04,9.100000000000000016e-04,3.600000000000000227e-04,2.299999999999999799e-04,2.299999999999999799e-04,4.000000000000000000e+00,1.900000000000000000e+01
4.056000000000000000e+04,2.299999999999999799e-04,2.299999999999999799e-04,4.099999999999999912e-04,3.399999999999999702e-04,9.100000000000000016e-04,3.600000000000000227e-04,2.299999999999999799e-04,2.299999999999999799e-04,4.000000000000000000e+00,1.900000000000000000e+01
4.056100000000000000e+04,2.299999999999999799e-04,2.299999999999999799e-04,4.099999999999999912e-04,3.399999999999999702e-04,9.100000000000000016e-04,3.600000000000000227e-04,2.299999999999999799e-04,2.299999999999999799e-04,4.000000000000000000e+00,1.900000000000000000e+01
4.056200000000000000e+04,2.299999999999999799e-04,2.299999999999999799e-04,4.099999999999999912e-04,3.399999999999999702e-04,9.100000000000000016e-04,3.600000000000000227e-04,2.299999999999999799e-04,2.299999999999999799e-04,4.000000000000000000e+00,1.900000000000000000e+01
4.056300000000000000e+04,2.299999999999999799e-04,2.299999999999999799e-04,4.099999999999999912e-04,3.399999999999999702e-04,9.100000000000000016e-04,3.600000000000000227e-04,2.299999999999999799e-04,2.299999999999999799e-04,4.000000000000000000e+00,1.900000000000000000e+01
4.056400000000000000e+04,2.299999999999999799e-04,2.299999999999999799e-04,4.099999999999999912e-04,3.399999999999999702e-04,9.100000000000000016e-04,3.600000000000000227e-04,2.299999999999999799e-04,2.299999999999999799e-04,4.000000000000000000e+00,1.900000000000000000e+01
4.056500000000000000e+04,2.299999999999999799e-04,2.299999999999999799e-04,4.099999999999999912e-04,3.399999999999999702e-04,9.100000000000000016e-04,3.600000000000000227e-04,2.299999999999999799e-04,2.299999999999999799e-04,4.000000000000000000e+00,1.900000000000000000e+01
4.056600000000000000e+04,2.299999999999999799e-04,2.299999999999999799e-04,4.099999999999999912e-04,3.399999999999999702e-04,9.100000000000000016e-04,3.600000000000000227e-04,2.299999999999999799e-04,2.299999999999999799e-04,4.000000000000000000e+00,1.900000000000000000e+01
4.056700000000000000e+04,4.000000000000000327e-05,5.000000000000000240e-05,2.000000000000000164e-05,-4.299999999999999894e-04,-3.699999999999999947e-04,-1.100000000000000039e-04,2.000000000000000164e-05,6.999999999999999387e-05,4.000000000000000000e+00,1.900000000000000000e+01
4.056800000000000000e+04,0.000000000000000000e+00,2.000000000000000164e-05,4.000000000000000327e-05,-9.000000000000000567e-05,-8.199999999999999824e-04,-5.400000000000000069e-04,-2.299999999999999799e-04,-5.999999999999999474e-05,4.000000000000000000e+00,1.900000000000000000e+01
4.056900000000000000e+04,0.000000000000000000e+00,2.000000000000000164e-05,4.000000000000000327e-05,-9.000000000000000567e-05,-8.199999999999999824e-04,-5.400000000000000069e-04,-2.299999999999999799e-04,-5.999999999999999474e-05,4.000000000000000000e+00,1.900000000000000000e+01
4.057000000000000000e+04,0.000000000000000000e+00,2.000000000000000164e-05,4.000000000000000327e-05,-9.000000000000000567e-05,-8.199999999999999824e-04,-5.400000000000000069e-04,-2.299999999999999799e-04,-5.999999999999999474e-05,4.000000000000000000e+00,1.900000000000000000e+01
4.057100000000000000e+04,0.000000000000000000e+00,2.000000000000000164e-05,4.000000000000000327e-05,-9.000000000000000567e-05,-8.199999999999999824e-04,-5.400000000000000069e-04,-2.299999999999999799e-04,-5.999999999999999474e-05,4.000000000000000000e+00,1.900000000000000000e+01
4.057200000000000000e+04,0.000000000000000000e+00,2.000000000000000164e-05,4.000000000000000327e-05,-9.000000000000000567e-05,-8.199999999999999824e-04,-5.400000000000000069e-04,-2.299999999999999799e-04,-5.999999999999999474e-05,4.000000000000000000e+00,1.900000000000000000e+01
4.057300000000000000e+04,0.000000000000000000e+00,2.000000000000000164e-05,4.000000000000000327e-05,-9.000000000000000567e-05,-8.199999999999999824e-04,-5.400000000000000069e-04,-2.299999999999999799e-04,-5.999999999999999474e-05,4.000000000000000000e+00,1.900000000000000000e+01
4.057400000000000000e+04,0.000000000000000000e+00,2.000000000000000164e-05,4.000000000000000327e-05,-9.000000000000000567e-05,-8.199999999999999824e-04,-5.400000000000000069e-04,-2.299999999999999799e-04,-5.999999999999999474e-05,4.000000000000000000e+00,1.900000000000000000e+01
4.057500000000000000e+04,9.000000000000000567e-05,6.999999999999999387e-05,1.499999999999999869e-04,2.900000000000000017e-04,-1.010000000000000047e-03,-3.299999999999999982e-04,0.000000000000000000e+00,5.000000000000000240e-05,4.000000000000000000e+00,1.900000000000000000e+01
4.057600000000000000e+04,9.000000000000000567e-05,6.999999999999999387e-05,1.499999999999999869e-04,2.900000000000000017e-04,-1.010000000000000047e-03,-3.299999999999999982e-04,0.000000000000000000e+00,5.000000000000000240e-05,4.000000000000000000e+00,1.900000000000000000e+01
4.057700000000000000e+04,9.000000000000000567e-05,6.999999999999999387e-05,1.499999999999999869e-04,2.900000000000000017e-04,-1.010000000000000047e-03,-3.299999999999999982e-04,0.000000000000000000e+00,5.000000000000000240e-05,4.000000000000000000e+00,1.900000000000000000e+01
4.057800000000000000e+04,9.000000000000000567e-05,6.999999999999999387e-05,1.499999999999999869e-04,2.900000000000000017e-04,-1.010000000000000047e-03,-3.299999999999999982e-04,0.000000000000000000e+00,5.000000000000000240e-05,4.000000000000000000e+00,1.900000000000000000e+01
4.057900000000000000e+04,9.000000000000000567e-05,6.999999999999999387e-05,1.499999999999999869e-04,2.900000000000000017e-04,-1.010000000000000047e-03,-3.299999999999999982e-04,0.000000000000000000e+00,5.000000000000000240e-05,4.000000000000000000e+00,1.900000000000000000e+01
4.058000000000000000e+04,9.000000000000000567e-05,6.999999999999999387e-05,1.499999999999999869e-04,2.900000000000000017e-04,-1.010000000000000047e-03,-3.299999999999999982e-04,0.000000000000000000e+00,5.000000000000000240e-05,4.000000000000000000e+00,1.900000000000000000e+01
4.058100000000000000e+04,9.000000000000000567e-05,6.999999999999999387e-05,1.499999999999999869e-04,2.900000000000000017e-04,-1.010000000000000047e-03,-3.299999999999999982e-04,0.000000000000000000e+00,5.000000000000000240e-05,4.000000000000000000e+00,1.900000000000000000e+01
4.058200000000000000e+04,9.000000000000000567e-05,6.999999999999999387e-05,1.499999999999999869e-04,2.900000000000000017e-04,-1.010000000000000047e-03,-3.299999999999999982e-04,0.000000000000000000e+00,5.000000000000000240e-05,4.000000000000000000e+00,1.900000000000000000e+01
4.058300000000000000e+04,9.000000000000000567e-05,6.999999999999999387e-05,1.499999999999999869e-04,2.900000000000000017e-04,-1.010000000000000047e-03,-3.299999999999999982e-04,0.000000000000000000e+00,5.000000000000000240e-05,4.000000000000000000e+00,1.900000000000000000e+01
4.058400000000000000e+04,9.000000000000000567e-05,6.999999999999999387e-05,1.499999999999999869e-04,2.900000000000000017e-04,-1.010000000000000047e-03,-3.299999999999999982e-04,0.000000000000000000e+00,5.000000000000000240e-05,4.000000000000000000e+00,1.900000000000000000e+01
4.058500000000000000e+04,9.000000000000000567e-05,6.999999999999999387e-05,1.499999999999999869e-04,2.900000000000000017e-04,-1.010000000000000047e-03,-3.299999999999999982e-04,0.000000000000000000e+00,5.000000000000000240e-05,4.000000000000000000e+00,1.900000000000000000e+01
4.058600000000000000e+04,9.000000000000000567e-05,6.999999999999999387e-05,1.499999999999999869e-04,2.900000000000000017e-04,-1.010000000000000047e-03,-3.299999999999999982e-04,0.000000000000000000e+00,5.000000000000000240e-05,4.000000000000000000e+00,1.900000000000000000e+01
4.058900000000000000e+04,9.000000000000000567e-05,6.999999999999999387e-05,1.499999999999999869e-04,2.900000000000000017e-04,-1.010000000000000047e-03,-3.299999999999999982e-04,0.000000000000000000e+00,5.000000000000000240e-05,4.000000000000000000e+00,1.900000000000000000e+01
4.059000000000000000e+04,9.000000000000000567e-05,6.999999999999999387e-05,1.499999999999999869e-04,2.900000000000000017e-04,-1.010000000000000047e-03,-3.299999999999999982e-04,0.000000000000000000e+00,5.000000000000000240e-05,4.000000000000000000e+00,1.900000000000000000e+01
4.059100000000000000e+04,9.000000000000000567e-05,6.999999999999999387e-05,1.499999999999999869e-04,2.900000000000000017e-04,-1.010000000000000047e-03,-3.299999999999999982e-04,0.000000000000000000e+00,5.000000000000000240e-05,4.000000000000000000e+00,1.900000000000000000e+01
4.059200000000000000e+04,9.000000000000000567e-05,6.999999999999999387e-05,1.499999999999999869e-04,2.900000000000000017e-04,-1.010000000000000047e-03,-3.299999999999999982e-04,0.000000000000000000e+00,5.000000000000000240e-05,4.000000000000000000e+00,1.900000000000000000e+01
4.059300000000000000e+04,9.000000000000000567e-05,6.999999999999999387e-05,1.499999999999999869e-04,2.900000000000000017e-04,-1.010000000000000047e-03,-3.299999999999999982e-04,0.000000000000000000e+00,5.000000000000000240e-05,4.000000000000000000e+00,1.900000000000000000e+01
4.059400000000000000e+04,9.000000000000000567e-05,6.999999999999999387e-05,1.499999999999999869e-04,2.900000000000000017e-04,-1.010000000000000047e-03,-3.299999999999999982e-04,0.000000000000000000e+00,5.000000000000000240e-05,4.000000000000000000e+00,1.900000000000000000e+01
4.059500000000000000e+04,9.000000000000000567e-05,6.999999999999999387e-05,1.499999999999999869e-04,2.900000000000000017e-04,-1.010000000000000047e-03,-3.299999999999999982e-04,0.000000000000000000e+00,5.000000000000000240e-05,4.000000000000000000e+00,1.900000000000000000e+01
4.059600000000000000e+04,9.000000000000000567e-05,6.999999999999999387e-05,1.499999999999999869e-04,2.900000000000000017e-04,-1.010000000000000047e-03,-3.299999999999999982e-04,0.000000000000000000e+00,5.000000000000000240e-05,4.000000000000000000e+00,1.900000000000000000e+01
4.059700000000000000e+04,1.000000000000000082e-05,0.000000000000000000e+00,6.999999999999999387e-05,2.299999999999999799e-04,3.200000000000000262e-04,-1.800000000000000113e-04,1.000000000000000048e-04,0.000000000000000000e+00,4.000000000000000000e+00,1.900000000000000000e+01
4.059800000000000000e+04,-1.000000000000000082e-05,-1.000000000000000082e-05,1.100000000000000039e-04,4.700000000000000401e-04,8.300000000000001170e-04,1.899999999999999834e-04,1.000000000000000082e-05,1.000000000000000082e-05,4.000000000000000000e+00,1.900000000000000000e+01
4.059900000000000000e+04,-1.000000000000000082e-05,-1.000000000000000082e-05,1.100000000000000039e-04,4.700000000000000401e-04,8.300000000000001170e-04,1.899999999999999834e-04,1.000000000000000082e-05,1.000000000000000082e-05,4.000000000000000000e+00,1.900000000000000000e+01
4.060000000000000000e+04,-1.000000000000000082e-05,-1.000000000000000082e-05,1.100000000000000039e-04,4.700000000000000401e-04,8.300000000000001170e-04,1.899999999999999834e-04,1.000000000000000082e-05,1.000000000000000082e-05,4.000000000000000000e+00,1.900000000000000000e+01
4.060100000000000000e+04,-1.000000000000000082e-05,-1.000000000000000082e-05,1.100000000000000039e-04,4.700000000000000401e-04,8.300000000000001170e-04,1.899999999999999834e-04,1.000000000000000082e-05,1.000000000000000082e-05,4.000000000000000000e+00,1.900000000000000000e+01
4.060200000000000000e+04,-1.000000000000000082e-05,-1.000000000000000082e-05,1.100000000000000039e-04,4.700000000000000401e-04,8.300000000000001170e-04,1.899999999999999834e-04,1.000000000000000082e-05,1.000000000000000082e-05,4.000000000000000000e+00,1.900000000000000000e+01
4.060300000000000000e+04,-1.000000000000000082e-05,-1.000000000000000082e-05,1.100000000000000039e-04,4.700000000000000401e-04,8.300000000000001170e-04,1.899999999999999834e-04,1.000000000000000082e-05,1.000000000000000082e-05,4.000000000000000000e+00,1.900000000000000000e+01
4.060400000000000000e+04,-1.000000000000000082e-05,-1.000000000000000082e-05,1.100000000000000039e-04,4.700000000000000401e-04,8.300000000000001170e-04,1.899999999999999834e-04,1.000000000000000082e-05,1.000000000000000082e-05,4.000000000000000000e+00,1.900000000000000000e+01
4.060500000000000000e+04,-1.000000000000000082e-05,-1.000000000000000082e-05,1.100000000000000039e-04,4.700000000000000401e-04,8.300000000000001170e-04,1.899999999999999834e-04,1.000000000000000082e-05,1.000000000000000082e-05,4.000000000000000000e+00,1.900000000000000000e+01
4.060600000000000000e+04,-1.000000000000000082e-05,-1.000000000000000082e-05,1.100000000000000039e-04,4.700000000000000401e-04,8.300000000000001170e-04,1.899999999999999834e-04,1.000000000000000082e-05,1.000000000000000082e-05,4.000000000000000000e+00,1.900000000000000000e+01
4.060700000000000000e+04,-1.000000000000000082e-05,-1.000000000000000082e-05,1.100000000000000039e-04,4.700000000000000401e-04,8.300000000000001170e-04,1.899999999999999834e-04,1.000000000000000082e-05,1.000000000000000082e-05,4.000000000000000000e+00,1.900000000000000000e+01
4.060800000000000000e+04,-1.000000000000000082e-05,-1.000000000000000082e-05,1.100000000000000039e-04,4.700000000000000401e-04,8.300000000000001170e-04,1.899999999999999834e-04,1.000000000000000082e-05,1.000000000000000082e-05,4.000000000000000000e+00,1.900000000000000000e+01
4.060900000000000000e+04,-1.000000000000000082e-05,-1.000000000000000082e-05,1.100000000000000039e-04,4.700000000000000401e-04,8.300000000000001170e-04,1.899999999999999834e-04,1.000000000000000082e-05,1.000000000000000082e-05,4.000000000000000000e+00,1.900000000000000000e+01
4.061000000000000000e+04,-1.000000000000000082e-05,-1.000000000000000082e-05,1.100000000000000039e-04,4.700000000000000401e-04,8.300000000000001170e-04,1.899999999999999834e-04,1.000000000000000082e-05,1.000000000000000082e-05,4.000000000000000000e+00,1.900000000000000000e+01
4.061100000000000000e+04,-1.000000000000000082e-05,-1.000000000000000082e-05,1.100000000000000039e-04,4.700000000000000401e-04,8.300000000000001170e-04,1.899999999999999834e-04,1.000000000000000082e-05,1.000000000000000082e-05,4.000000000000000000e+00,1.900000000000000000e+01
4.061200000000000000e+04,-1.000000000000000082e-05,-1.000000000000000082e-05,1.100000000000000039e-04,4.700000000000000401e-04,8.300000000000001170e-04,1.899999999999999834e-04,1.000000000000000082e-05,1.000000000000000082e-05,4.000000000000000000e+00,1.900000000000000000e+01
4.061300000000000000e+04,-1.000000000000000082e-05,-1.000000000000000082e-05,1.100000000000000039e-04,4.700000000000000401e-04,8.300000000000001170e-04,1.899999999999999834e-04,1.000000000000000082e-05,1.000000000000000082e-05,4.000000000000000000e+00,1.900000000000000000e+01
4.061400000000000000e+04,-1.000000000000000082e-05,-1.000000000000000082e-05,1.100000000000000039e-04,4.700000000000000401e-04,8.300000000000001170e-04,1.899999999999999834e-04,1.000000000000000082e-05,1.000000000000000082e-05,4.000000000000000000e+00,1.900000000000000000e+01
4.061500000000000000e+04,-1.000000000000000082e-05,-1.000000000000000082e-05,1.100000000000000039e-04,4.700000000000000401e-04,8.300000000000001170e-04,1.899999999999999834e-04,1.000000000000000082e-05,1.000000000000000082e-05,4.000000000000000000e+00,1.900000000000000000e+01
4.061600000000000000e+04,-1.000000000000000082e-05,-1.000000000000000082e-05,1.100000000000000039e-04,4.700000000000000401e-04,8.300000000000001170e-04,1.899999999999999834e-04,1.000000000000000082e-05,1.000000000000000082e-05,4.000000000000000000e+00,1.900000000000000000e+01
4.061700000000000000e+04,-1.000000000000000082e-05,-1.000000000000000082e-05,1.100000000000000039e-04,4.700000000000000401e-04,8.300000000000001170e-04,1.899999999999999834e-04,1.000000000000000082e-05,1.000000000000000082e-05,4.000000000000000000e+00,1.900000000000000000e+01
4.061800000000000000e+04,-1.000000000000000082e-05,-1.000000000000000082e-05,1.100000000000000039e-04,4.700000000000000401e-04,8.300000000000001170e-04,1.899999999999999834e-04,1.000000000000000082e-05,1.000000000000000082e-05,4.000000000000000000e+00,1.900000000000000000e+01
4.061900000000000000e+04,-1.000000000000000082e-05,-1.000000000000000082e-05,1.100000000000000039e-04,4.700000000000000401e-04,8.300000000000001170e-04,1.899999999999999834e-04,1.000000000000000082e-05,1.000000000000000082e-05,4.000000000000000000e+00,1.900000000000000000e+01
4.062000000000000000e+04,-1.000000000000000082e-05,-1.000000000000000082e-05,1.100000000000000039e-04,4.700000000000000401e-04,8.300000000000001170e-04,1.899999999999999834e-04,1.000000000000000082e-05,1.000000000000000082e-05,4.000000000000000000e+00,1.900000000000000000e+01
4.062100000000000000e+04,-1.000000000000000082e-05,-1.000000000000000082e-05,1.100000000000000039e-04,4.700000000000000401e-04,8.300000000000001170e-04,1.899999999999999834e-04,1.000000000000000082e-05,1.000000000000000082e-05,4.000000000000000000e+00,1.900000000000000000e+01
4.062200000000000000e+04,-1.000000000000000082e-05,-1.000000000000000082e-05,1.100000000000000039e-04,4.700000000000000401e-04,8.300000000000001170e-04,1.899999999999999834e-04,1.000000000000000082e-05,1.000000000000000082e-05,4.000000000000000000e+00,1.900000000000000000e+01
4.062300000000000000e+04,-1.000000000000000082e-05,-1.000000000000000082e-05,1.100000000000000039e-04,4.700000000000000401e-04,8.300000000000001170e-04,1.899999999999999834e-04,1.000000000000000082e-05,1.000000000000000082e-05,4.000000000000000000e+00,1.900000000000000000e+01
4.062400000000000000e+04,-1.000000000000000082e-05,-1.000000000000000082e-05,1.100000000000000039e-04,4.700000000000000401e-04,8.300000000000001170e-04,1.899999999999999834e-04,1.000000000000000082e-05,1.000000000000000082e-05,4.000000000000000000e+00,1.900000000000000000e+01
4.062500000000000000e+04,-1.000000000000000082e-05,-1.000000000000000082e-05,1.100000000000000039e-04,4.700000000000000401e-04,8.300000000000001170e-04,1.899999999999999834e-04,1.000000000000000082e-05,1.000000000000000082e-05,4.000000000000000000e+00,1.900000000000000000e+01
4.062600000000000000e+04,-1.000000000000000082e-05,-1.000000000000000082e-05,1.100000000000000039e-04,4.700000000000000401e-04,8.300000000000001170e-04,1.899999999999999834e-04,1.000000000000000082e-05,1.000000000000000082e-05,4.000000000000000000e+00,1.900000000000000000e+01
4.062700000000000000e+04,1.000000000000000082e-05,5.999999999999999474e-05,1.399999999999999877e-04,8.000000000000000654e-05,-6.700000000000000226e-04,6.999999999999999387e-05,-4.000000000000000327e-05,-2.999999999999999737e-05,4.000000000000000000e+00,1.900000000000000000e+01
4.062800000000000000e+04,2.999999999999999737e-05,6.999999999999999387e-05,1.199999999999999895e-04,2.700000000000000035e-04,7.799999999999999859e-04,5.699999999999999772e-04,1.100000000000000039e-04,6.999999999999999387e-05,4.000000000000000000e+00,1.900000000000000000e+01
4.062900000000000000e+04,2.999999999999999737e-05,6.999999999999999387e-05,1.199999999999999895e-04,2.700000000000000035e-04,7.799999999999999859e-04,5.699999999999999772e-04,1.100000000000000039e-04,6.999999999999999387e-05,4.000000000000000000e+00,1.900000000000000000e+01
4.063000000000000000e+04,2.999999999999999737e-05,6.999999999999999387e-05,1.199999999999999895e-04,2.700000000000000035e-04,7.799999999999999859e-04,5.699999999999999772e-04,1.100000000000000039e-04,6.999999999999999387e-05,4.000000000000000000e+00,1.900000000000000000e+01
4.063100000000000000e+04,2.999999999999999737e-05,6.999999999999999387e-05,1.199999999999999895e-04,2.700000000000000035e-04,7.799999999999999859e-04,5.699999999999999772e-04,1.100000000000000039e-04,6.999999999999999387e-05,4.000000000000000000e+00,1.900000000000000000e+01
4.063200000000000000e+04,2.999999999999999737e-05,6.999999999999999387e-05,1.199999999999999895e-04,2.700000000000000035e-04,7.799999999999999859e-04,5.699999999999999772e-04,1.100000000000000039e-04,6.999999999999999387e-05,4.000000000000000000e+00,1.900000000000000000e+01
4.063300000000000000e+04,2.999999999999999737e-05,6.999999999999999387e-05,1.199999999999999895e-04,2.700000000000000035e-04,7.799999999999999859e-04,5.699999999999999772e-04,1.100000000000000039e-04,6.999999999999999387e-05,4.000000000000000000e+00,1.900000000000000000e+01
4.063400000000000000e+04,2.999999999999999737e-05,6.999999999999999387e-05,1.199999999999999895e-04,2.700000000000000035e-04,7.799999999999999859e-04,5.699999999999999772e-04,1.100000000000000039e-04,6.999999999999999387e-05,4.000000000000000000e+00,1.900000000000000000e+01
4.063500000000000000e+04,-6.999999999999999387e-05,-5.999999999999999474e-05,-5.999999999999999474e-05,1.399999999999999877e-04,-5.200000000000000629e-04,3.600000000000000227e-04,2.999999999999999737e-05,-6.999999999999999387e-05,4.000000000000000000e+00,1.900000000000000000e+01
4.063600000000000000e+04,-6.999999999999999387e-05,-5.999999999999999474e-05,-5.999999999999999474e-05,1.399999999999999877e-04,-5.200000000000000629e-04,3.600000000000000227e-04,2.999999999999999737e-05,-6.999999999999999387e-05,4.000000000000000000e+00,1.900000000000000000e+01
4.063800000000000000e+04,-6.999999999999999387e-05,-5.999999999999999474e-05,-5.999999999999999474e-05,1.399999999999999877e-04,-5.200000000000000629e-04,3.600000000000000227e-04,2.999999999999999737e-05,-6.999999999999999387e-05,4.000000000000000000e+00,1.900000000000000000e+01
4.063900000000000000e+04,-6.999999999999999387e-05,-5.999999999999999474e-05,-5.999999999999999474e-05,1.399999999999999877e-04,-5.200000000000000629e-04,3.600000000000000227e-04,2.999999999999999737e-05,-6.999999999999999387e-05,4.000000000000000000e+00,1.900000000000000000e+01
4.064000000000000000e+04,-6.999999999999999387e-05,-5.999999999999999474e-05,-5.999999999999999474e-05,1.399999999999999877e-04,-5.200000000000000629e-04,3.600000000000000227e-04,2.999999999999999737e-05,-6.999999999999999387e-05,4.000000000000000000e+00,1.900000000000000000e+01
4.064100000000000000e+04,-6.999999999999999387e-05,-5.999999999999999474e-05,-5.999999999999999474e-05,1.399999999999999877e-04,-5.200000000000000629e-04,3.600000000000000227e-04,2.999999999999999737e-05,-6.999999999999999387e-05,4.000000000000000000e+00,1.900000000000000000e+01
4.064200000000000000e+04,-6.999999999999999387e-05,-5.999999999999999474e-05,-5.999999999999999474e-05,1.399999999999999877e-04,-5.200000000000000629e-04,3.600000000000000227e-04,2.999999999999999737e-05,-6.999999999999999387e-05,4.000000000000000000e+00,1.900000000000000000e+01
4.064300000000000000e+04,-6.999999999999999387e-05,-5.999999999999999474e-05,-5.999999999999999474e-05,1.399999999999999877e-04,-5.200000000000000629e-04,3.600000000000000227e-04,2.999999999999999737e-05,-6.999999999999999387e-05,4.000000000000000000e+00,1.900000000000000000e+01
4.064400000000000000e+04,-6.999999999999999387e-05,-5.999999999999999474e-05,-5.999999999999999474e-05,1.399999999999999877e-04,-5.200000000000000629e-04,3.600000000000000227e-04,2.999999999999999737e-05,-6.999999999999999387e-05,4.000000000000000000e+00,1.900000000000000000e+01
4.064500000000000000e+04,-6.999999999999999387e-05,-5.999999999999999474e-05,-5.999999999999999474e-05,1.399999999999999877e-04,-5.200000000000000629e-04,3.600000000000000227e-04,2.999999999999999737e-05,-6.999999999999999387e-05,4.000000000000000000e+00,1.900000000000000000e+01
4.064600000000000000e+04,-6.999999999999999387e-05,-5.999999999999999474e-05,-5.999999999999999474e-05,1.399999999999999877e-04,-5.200000000000000629e-04,3.600000000000000227e-04,2.999999999999999737e-05,-6.999999999999999387e-05,4.000000000000000000e+00,1.900000000000000000e+01
4.064700000000000000e+04,-6.999999999999999387e-05,-5.999999999999999474e-05,-5.999999999999999474e-05,1.399999999999999877e-04,-5.200000000000000629e-04,3.600000000000000227e-04,2.999999999999999737e-05,-6.999999999999999387e-05,4.000000000000000000e+00,1.900000000000000000e+01
4.064800000000000000e+04,-6.999999999999999387e-05,-5.999999999999999474e-05,-5.999999999999999474e-05,1.399999999999999877e-04,-5.200000000000000629e-04,3.600000000000000227e-04,2.999999999999999737e-05,-6.999999999999999387e-05,4.000000000000000000e+00,1.900000000000000000e+01
4.064900000000000000e+04,-6.999999999999999387e-05,-5.999999999999999474e-05,-5.999999999999999474e-05,1.399999999999999877e-04,-5.200000000000000629e-04,3.600000000000000227e-04,2.999999999999999737e-05,-6.999999999999999387e-05,4.000000000000000000e+00,1.900000000000000000e+01
4.065000000000000000e+04,-6.999999999999999387e-05,-5.999999999999999474e-05,-5.999999999999999474e-05,1.399999999999999877e-04,-5.200000000000000629e-04,3.600000000000000227e-04,2.999999999999999737e-05,-6.999999999999999387e-05,4.000000000000000000e+00,1.900000000000000000e+01
4.065100000000000000e+04,-6.999999999999999387e-05,-5.999999999999999474e-05,-5.999999999999999474e-05,1.399999999999999877e-04,-5.200000000000000629e-04,3.600000000000000227e-04,2.999999999999999737e-05,-6.999999999999999387e-05,4.000000000000000000e+00,1.900000000000000000e+01
4.065200000000000000e+04,-6.999999999999999387e-05,-5.999999999999999474e-05,-5.999999999999999474e-05,1.399999999999999877e-04,-5.200000000000000629e-04,3.600000000000000227e-04,2.999999999999999737e-05,-6.999999999999999387e-05,4.000000000000000000e+00,1.900000000000000000e+01
4.065300000000000000e+04,-6.999999999999999387e-05,-5.999999999999999474e-05,-5.999999999999999474e-05,1.399999999999999877e-04,-5.200000000000000629e-04,3.600000000000000227e-04,2.999999999999999737e-05,-6.999999999999999387e-05,4.000000000000000000e+00,1.900000000000000000e+01
4.065400000000000000e+04,-6.999999999999999387e-05,-5.999999999999999474e-05,-5.999999999999999474e-05,1.399999999999999877e-04,-5.200000000000000629e-04,3.600000000000000227e-04,2.999999999999999737e-05,-6.999999999999999387e-05,4.000000000000000000e+00,1.900000000000000000e+01
4.065500000000000000e+04,-6.999999999999999387e-05,-5.999999999999999474e-05,-5.999999999999999474e-05,1.399999999999999877e-04,-5.200000000000000629e-04,3.600000000000000227e-04,2.999999999999999737e-05,-6.999999999999999387e-05,4.000000000000000000e+00,1.900000000000000000e+01
4.065600000000000000e+04,-6.999999999999999387e-05,-5.999999999999999474e-05,-5.999999999999999474e-05,1.399999999999999877e-04,-5.200000000000000629e-04,3.600000000000000227e-04,2.999999999999999737e-05,-6.999999999999999387e-05,4.000000000000000000e+00,1.900000000000000000e+01
4.065700000000000000e+04,-9.000000000000000567e-05,-1.100000000000000039e-04,-1.800000000000000113e-04,-3.200000000000000262e-04,-4.899999999999999842e-04,1.000000000000000048e-04,-2.000000000000000096e-04,-8.000000000000000654e-05,4.000000000000000000e+00,1.900000000000000000e+01
4.065800000000000000e+04,-1.499999999999999869e-04,-1.499999999999999869e-04,-2.600000000000000314e-04,-3.699999999999999947e-04,-8.599999999999999789e-04,-6.799999999999999404e-04,-3.299999999999999982e-04,-2.000000000000000096e-04,4.000000000000000000e+00,1.900000000000000000e+01
4.065900000000000000e+04,-1.499999999999999869e-04,-1.499999999999999869e-04,-2.600000000000000314e-04,-3.699999999999999947e-04,-8.599999999999999789e-04,-6.799999999999999404e-04,-3.299999999999999982e-04,-2.000000000000000096e-04,4.000000000000000000e+00,1.900000000000000000e+01
4.066000000000000000e+04,-1.499999999999999869e-04,-1.499999999999999869e-04,-2.600000000000000314e-04,-3.699999999999999947e-04,-8.599999999999999789e-04,-6.799999999999999404e-04,-3.299999999999999982e-04,-2.000000000000000096e-04,4.000000000000000000e+00,1.900000000000000000e+01
4.066100000000000000e+04,-1.499999999999999869e-04,-1.499999999999999869e-04,-2.600000000000000314e-04,-3.699999999999999947e-04,-8.599999999999999789e-04,-6.799999999999999404e-04,-3.299999999999999982e-04,-2.000000000000000096e-04,4.000000000000000000e+00,1.900000000000000000e+01
4.066200000000000000e+04,-1.499999999999999869e-04,-1.499999999999999869e-04,-2.600000000000000314e-04,-3.699999999999999947e-04,-8.599999999999999789e-04,-6.799999999999999404e-04,-3.299999999999999982e-04,-2.000000000000000096e-04,4.000000000000000000e+00,1.900000000000000000e+01
4.066300000000000000e+04,-1.499999999999999869e-04,-1.499999999999999869e-04,-2.600000000000000314e-04,-3.699999999999999947e-04,-8.599999999999999789e-04,-6.799999999999999404e-04,-3.299999999999999982e-04,-2.000000000000000096e-04,4.000000000000000000e+00,1.900000000000000000e+01
4.066400000000000000e+04,-1.499999999999999869e-04,-1.499999999999999869e-04,-2.600000000000000314e-04,-3.699999999999999947e-04,-8.599999999999999789e-04,-6.799999999999999404e-04,-3.299999999999999982e-04,-2.000000000000000096e-04,4.000000000000000000e+00,1.900000000000000000e+01
4.066500000000000000e+04,-1.499999999999999869e-04,-1.499999999999999869e-04,-2.600000000000000314e-04,-3.699999999999999947e-04,-8.599999999999999789e-04,-6.799999999999999404e-04,-3.299999999999999982e-04,-2.000000000000000096e-04,4.000000000000000000e+00,1.900000000000000000e+01
4.066600000000000000e+04,-1.499999999999999869e-04,-1.499999999999999869e-04,-2.600000000000000314e-04,-3.699999999999999947e-04,-8.599999999999999789e-04,-6.799999999999999404e-04,-3.299999999999999982e-04,-2.000000000000000096e-04,4.000000000000000000e+00,1.900000000000000000e+01
4.066700000000000000e+04,-1.499999999999999869e-04,-1.499999999999999869e-04,-2.600000000000000314e-04,-3.699999999999999947e-04,-8.599999999999999789e-04,-6.799999999999999404e-04,-3.299999999999999982e-04,-2.000000000000000096e-04,4.000000000000000000e+00,1.900000000000000000e+01
4.066800000000000000e+04,-1.499999999999999869e-04,-1.499999999999999869e-04,-2.600000000000000314e-04,-3.699999999999999947e-04,-8.599999999999999789e-04,-6.799999999999999404e-04,-3.299999999999999982e-04,-2.000000000000000096e-04,4.000000000000000000e+00,1.900000000000000000e+01
4.066900000000000000e+04,-1.499999999999999869e-04,-1.499999999999999869e-04,-2.600000000000000314e-04,-3.699999999999999947e-04,-8.599999999999999789e-04,-6.799999999999999404e-04,-3.299999999999999982e-04,-2.000000000000000096e-04,4.000000000000000000e+00,1.900000000000000000e+01
4.067000000000000000e+04,-1.499999999999999869e-04,-1.499999999999999869e-04,-2.600000000000000314e-04,-3.699999999999999947e-04,-8.599999999999999789e-04,-6.799999999999999404e-04,-3.299999999999999982e-04,-2.000000000000000096e-04,4.000000000000000000e+00,1.900000000000000000e+01
4.067100000000000000e+04,-2.000000000000000164e-05,-1.000000000000000082e-05,-5.999999999999999474e-05,-2.100000000000000087e-04,-1.130000000000000145e-03,5.500000000000000331e-04,2.700000000000000035e-04,5.000000000000000240e-05,4.000000000000000000e+00,1.900000000000000000e+01
