2.150300000000000000e+04,-1.899999999999999834e-04,-8.000000000000000654e-05,-1.199999999999999895e-04,1.399999999999999877e-04,-8.000000000000000654e-05,-3.799999999999999667e-04,5.000000000000000240e-05,0.000000000000000000e+00,5.000000000000000000e+00,9.000000000000000000e+00
2.150400000000000000e+04,-1.899999999999999834e-04,-8.000000000000000654e-05,-1.199999999999999895e-04,1.399999999999999877e-04,-8.000000000000000654e-05,-3.799999999999999667e-04,5.000000000000000240e-05,0.000000000000000000e+00,5.000000000000000000e+00,9.000000000000000000e+00
2.150500000000000000e+04,-1.899999999999999834e-04,-8.000000000000000654e-05,-1.199999999999999895e-04,1.399999999999999877e-04,-8.000000000000000654e-05,-3.799999999999999667e-04,5.000000000000000240e-05,0.000000000000000000e+00,5.000000000000000000e+00,9.000000000000000000e+00
2.150600000000000000e+04,-1.899999999999999834e-04,-8.000000000000000654e-05,-1.199999999999999895e-04,1.399999999999999877e-04,-8.000000000000000654e-05,-3.799999999999999667e-04,5.000000000000000240e-05,0.000000000000000000e+00,5.000000000000000000e+00,9.000000000000000000e+00
2.150700000000000000e+04,-1.899999999999999834e-04,-8.000000000000000654e-05,-1.199999999999999895e-04,1.399999999999999877e-04,-8.000000000000000654e-05,-3.799999999999999667e-04,5.000000000000000240e-05,0.000000000000000000e+00,5.000000000000000000e+00,9.000000000000000000e+00
2.150800000000000000e+04,2.999999999999999737e-05,-2.999999999999999737e-05,-5.000000000000000240e-05,-4.099999999999999912e-04,-4.000000000000000327e-05,0.000000000000000000e+00,-5.000000000000000240e-05,-5.000000000000000240e-05,5.000000000000000000e+00,9.000000000000000000e+00
2.150900000000000000e+04,0.000000000000000000e+00,-5.999999999999999474e-05,-5.999999999999999474e-05,-5.999999999999999474e-05,2.000000000000000164e-05,-8.000000000000000654e-05,-8.000000000000000654e-05,-5.999999999999999474e-05,5.000000000000000000e+00,9.000000000000000000e+00
2.151000000000000000e+04,0.000000000000000000e+00,-5.999999999999999474e-05,-5.999999999999999474e-05,-5.999999999999999474e-05,2.000000000000000164e-05,-8.000000000000000654e-05,-8.000000000000000654e-05,-5.999999999999999474e-05,5.000000000000000000e+00,9.000000000000000000e+00
2.151100000000000000e+04,0.000000000000000000e+00,-5.999999999999999474e-05,-5.999999999999999474e-05,-5.999999999999999474e-05,2.000000000000000164e-05,-8.000000000000000654e-05,-8.000000000000000654e-05,-5.999999999999999474e-05,5.000000000000000000e+00,9.000000000000000000e+00
2.151200000000000000e+04,0.000000000000000000e+00,-5.999999999999999474e-05,-5.999999999999999474e-05,-5.999999999999999474e-05,2.000000000000000164e-05,-8.000000000000000654e-05,-8.000000000000000654e-05,-5.999999999999999474e-05,5.000000000000000000e+00,9.000000000000000000e+00
2.151300000000000000e+04,0.000000000000000000e+00,-5.999999999999999474e-05,-5.999999999999999474e-05,-5.999999999999999474e-05,2.000000000000000164e-05,-8.000000000000000654e-05,-8.000000000000000654e-05,-5.999999999999999474e-05,5.000000000000000000e+00,9.000000000000000000e+00
2.151400000000000000e+04,0.000000000000000000e+00,-5.999999999999999474e-05,-5.999999999999999474e-05,-5.999999999999999474e-05,2.000000000000000164e-05,-8.000000000000000654e-05,-8.000000000000000654e-05,-5.999999999999999474e-05,5.000000000000000000e+00,9.000000000000000000e+00
2.151500000000000000e+04,0.000000000000000000e+00,-5.999999999999999474e-05,-5.999999999999999474e-05,-5.999999999999999474e-05,2.000000000000000164e-05,-8.000000000000000654e-05,-8.000000000000000654e-05,-5.999999999999999474e-05,5.000000000000000000e+00,9.000000000000000000e+00
2.151600000000000000e+04,0.000000000000000000e+00,-5.999999999999999474e-05,-5.999999999999999474e-05,-5.999999999999999474e-05,2.000000000000000164e-05,-8.000000000000000654e-05,-8.000000000000000654e-05,-5.999999999999999474e-05,5.000000000000000000e+00,9.000000000000000000e+00
2.151700000000000000e+04,0.000000000000000000e+00,-5.999999999999999474e-05,-5.999999999999999474e-05,-5.999999999999999474e-05,2.000000000000000164e-05,-8.000000000000000654e-05,-8.000000000000000654e-05,-5.999999999999999474e-05,5.000000000000000000e+00,9.000000000000000000e+00
2.151800000000000000e+04,0.000000000000000000e+00,-5.999999999999999474e-05,-5.999999999999999474e-05,-5.999999999999999474e-05,2.000000000000000164e-05,-8.000000000000000654e-05,-8.000000000000000654e-05,-5.999999999999999474e-05,5.000000000000000000e+00,9.000000000000000000e+00
2.151900000000000000e+04,0.000000000000000000e+00,-5.999999999999999474e-05,-5.999999999999999474e-05,-5.999999999999999474e-05,2.000000000000000164e-05,-8.000000000000000654e-05,-8.000000000000000654e-05,-5.999999999999999474e-05,5.000000000000000000e+00,9.000000000000000000e+00
2.152000000000000000e+04,0.000000000000000000e+00,-5.999999999999999474e-05,-5.999999999999999474e-05,-5.999999999999999474e-05,2.000000000000000164e-05,-8.000000000000000654e-05,-8.000000000000000654e-05,-5.999999999999999474e-05,5.000000000000000000e+00,9.000000000000000000e+00
2.152100000000000000e+04,0.000000000000000000e+00,-5.999999999999999474e-05,-5.999999999999999474e-05,-5.999999999999999474e-05,2.000000000000000164e-05,-8.000000000000000654e-05,-8.000000000000000654e-05,-5.999999999999999474e-05,5.000000000000000000e+00,9.000000000000000000e+00
2.152200000000000000e+04,0.000000000000000000e+00,-5.999999999999999474e-05,-5.999999999999999474e-05,-5.999999999999999474e-05,2.000000000000000164e-05,-8.000000000000000654e-05,-8.000000000000000654e-05,-5.999999999999999474e-05,5.000000000000000000e+00,9.000000000000000000e+00
2.152300000000000000e+04,0.000000000000000000e+00,-5.999999999999999474e-05,-5.999999999999999474e-05,-5.999999999999999474e-05,2.000000000000000164e-05,-8.000000000000000654e-05,-8.000000000000000654e-05,-5.999999999999999474e-05,5.000000000000000000e+00,9.000000000000000000e+00
2.152400000000000000e+04,0.000000000000000000e+00,-5.999999999999999474e-05,-5.999999999999999474e-05,-5.999999999999999474e-05,2.000000000000000164e-05,-8.000000000000000654e-05,-8.000000000000000654e-05,-5.999999999999999474e-05,5.000000000000000000e+00,9.000000000000000000e+00
2.152500000000000000e+04,0.000000000000000000e+00,-5.999999999999999474e-05,-5.999999999999999474e-05,-5.999999999999999474e-05,2.000000000000000164e-05,-8.000000000000000654e-05,-8.000000000000000654e-05,-5.999999999999999474e-05,5.000000000000000000e+00,9.000000000000000000e+00
2.152600000000000000e+04,0.000000000000000000e+00,-5.999999999999999474e-05,-5.999999999999999474e-05,-5.999999999999999474e-05,2.000000000000000164e-05,-8.000000000000000654e-05,-8.000000000000000654e-05,-5.999999999999999474e-05,5.000000000000000000e+00,9.000000000000000000e+00
2.152700000000000000e+04,0.000000000000000000e+00,-5.999999999999999474e-05,-5.999999999999999474e-05,-5.999999999999999474e-05,2.000000000000000164e-05,-8.000000000000000654e-05,-8.000000000000000654e-05,-5.999999999999999474e-05,5.000000000000000000e+00,9.000000000000000000e+00
2.152800000000000000e+04,0.000000000000000000e+00,-5.999999999999999474e-05,-5.999999999999999474e-05,-5.999999999999999474e-05,2.000000000000000164e-05,-8.000000000000000654e-05,-8.000000000000000654e-05,-5.999999999999999474e-05,5.000000000000000000e+00,9.000000000000000000e+00
2.152900000000000000e+04,0.000000000000000000e+00,-5.999999999999999474e-05,-5.999999999999999474e-05,-5.999999999999999474e-05,2.000000000000000164e-05,-8.000000000000000654e-05,-8.000000000000000654e-05,-5.999999999999999474e-05,5.000000000000000000e+00,9.000000000000000000e+00
2.153000000000000000e+04,0.000000000000000000e+00,-1.199999999999999895e-04,2.999999999999999737e-05,2.000000000000000164e-05,-4.000000000000000327e-05,-3.600000000000000227e-04,-9.000000000000000567e-05,-1.000000000000000082e-05,5.000000000000000000e+00,9.000000000000000000e+00
2.153100000000000000e+04,-4.000000000000000327e-05,2.999999999999999737e-05,2.999999999999999737e-05,-2.000000000000000096e-04,1.000000000000000082e-05,-5.999999999999999474e-05,-1.100000000000000039e-04,-6.999999999999999387e-05,5.000000000000000000e+00,9.000000000000000000e+00
2.153200000000000000e+04,-3.399999999999999702e-04,-1.100000000000000039e-04,-4.000000000000000327e-05,-4.000000000000000327e-05,-5.000000000000000240e-05,-2.000000000000000164e-05,-2.999999999999999737e-05,-5.999999999999999474e-05,5.000000000000000000e+00,9.000000000000000000e+00
2.153300000000000000e+04,-3.399999999999999702e-04,-1.100000000000000039e-04,-4.000000000000000327e-05,-4.000000000000000327e-05,-5.000000000000000240e-05,-2.000000000000000164e-05,-2.999999999999999737e-05,-5.999999999999999474e-05,5.000000000000000000e+00,9.000000000000000000e+00
2.153400000000000000e+04,-3.399999999999999702e-04,-1.100000000000000039e-04,-4.000000000000000327e-05,-4.000000000000000327e-05,-5.000000000000000240e-05,-2.000000000000000164e-05,-2.999999999999999737e-05,-5.999999999999999474e-05,5.000000000000000000e+00,9.000000000000000000e+00
2.153500000000000000e+04,-3.399999999999999702e-04,-1.100000000000000039e-04,-4.000000000000000327e-05,-4.000000000000000327e-05,-5.000000000000000240e-05,-2.000000000000000164e-05,-2.999999999999999737e-05,-5.999999999999999474e-05,5.000000000000000000e+00,9.000000000000000000e+00
2.153600000000000000e+04,-3.399999999999999702e-04,-1.100000000000000039e-04,-4.000000000000000327e-05,-4.000000000000000327e-05,-5.000000000000000240e-05,-2.000000000000000164e-05,-2.999999999999999737e-05,-5.999999999999999474e-05,5.000000000000000000e+00,9.000000000000000000e+00
2.153800000000000000e+04,-3.399999999999999702e-04,-1.100000000000000039e-04,-4.000000000000000327e-05,-4.000000000000000327e-05,-5.000000000000000240e-05,-2.000000000000000164e-05,-2.999999999999999737e-05,-5.999999999999999474e-05,5.000000000000000000e+00,9.000000000000000000e+00
2.153900000000000000e+04,-3.399999999999999702e-04,-1.100000000000000039e-04,-4.000000000000000327e-05,-4.000000000000000327e-05,-5.000000000000000240e-05,-2.000000000000000164e-05,-2.999999999999999737e-05,-5.999999999999999474e-05,5.000000000000000000e+00,9.000000000000000000e+00
2.154000000000000000e+04,-3.399999999999999702e-04,-1.100000000000000039e-04,-4.000000000000000327e-05,-4.000000000000000327e-05,-5.000000000000000240e-05,-2.000000000000000164e-05,-2.999999999999999737e-05,-5.999999999999999474e-05,5.000000000000000000e+00,9.000000000000000000e+00
2.154100000000000000e+04,-3.399999999999999702e-04,-1.100000000000000039e-04,-4.000000000000000327e-05,-4.000000000000000327e-05,-5.000000000000000240e-05,-2.000000000000000164e-05,-2.999999999999999737e-05,-5.999999999999999474e-05,5.000000000000000000e+00,9.000000000000000000e+00
2.154200000000000000e+04,-3.399999999999999702e-04,-1.100000000000000039e-04,-4.000000000000000327e-05,-4.000000000000000327e-05,-5.000000000000000240e-05,-2.000000000000000164e-05,-2.999999999999999737e-05,-5.999999999999999474e-05,5.000000000000000000e+00,9.000000000000000000e+00
2.154300000000000000e+04,-3.399999999999999702e-04,-1.100000000000000039e-04,-4.000000000000000327e-05,-4.000000000000000327e-05,-5.000000000000000240e-05,-2.000000000000000164e-05,-2.999999999999999737e-05,-5.999999999999999474e-05,5.000000000000000000e+00,9.000000000000000000e+00
2.154400000000000000e+04,2.999999999999999737e-05,2.000000000000000164e-05,-1.000000000000000082e-05,1.000000000000000048e-04,-2.000000000000000164e-05,4.000000000000000327e-05,-5.000000000000000240e-05,-2.999999999999999737e-05,5.000000000000000000e+00,9.000000000000000000e+00
2.154500000000000000e+04,2.999999999999999737e-05,2.000000000000000164e-05,-1.000000000000000082e-05,1.000000000000000048e-04,-2.000000000000000164e-05,4.000000000000000327e-05,-5.000000000000000240e-05,-2.999999999999999737e-05,5.000000000000000000e+00,9.000000000000000000e+00
2.154600000000000000e+04,2.999999999999999737e-05,2.000000000000000164e-05,-1.000000000000000082e-05,1.000000000000000048e-04,-2.000000000000000164e-05,4.000000000000000327e-05,-5.000000000000000240e-05,-2.999999999999999737e-05,5.000000000000000000e+00,9.000000000000000000e+00
2.154700000000000000e+04,2.999999999999999737e-05,2.000000000000000164e-05,-1.000000000000000082e-05,1.000000000000000048e-04,-2.000000000000000164e-05,4.000000000000000327e-05,-5.000000000000000240e-05,-2.999999999999999737e-05,5.000000000000000000e+00,9.000000000000000000e+00
2.154800000000000000e+04,2.999999999999999737e-05,2.000000000000000164e-05,-1.000000000000000082e-05,1.000000000000000048e-04,-2.000000000000000164e-05,4.000000000000000327e-05,-5.000000000000000240e-05,-2.999999999999999737e-05,5.000000000000000000e+00,9.000000000000000000e+00
2.154900000000000000e+04,2.999999999999999737e-05,2.000000000000000164e-05,-1.000000000000000082e-05,1.000000000000000048e-04,-2.000000000000000164e-05,4.000000000000000327e-05,-5.000000000000000240e-05,-2.999999999999999737e-05,5.000000000000000000e+00,9.000000000000000000e+00
2.155000000000000000e+04,2.999999999999999737e-05,2.000000000000000164e-05,-1.000000000000000082e-05,1.000000000000000048e-04,-2.000000000000000164e-05,4.000000000000000327e-05,-5.000000000000000240e-05,-2.999999999999999737e-05,5.000000000000000000e+00,9.000000000000000000e+00
2.155100000000000000e+04,2.999999999999999737e-05,2.000000000000000164e-05,-1.000000000000000082e-05,1.000000000000000048e-04,-2.000000000000000164e-05,4.000000000000000327e-05,-5.000000000000000240e-05,-2.999999999999999737e-05,5.000000000000000000e+00,9.000000000000000000e+00
2.155200000000000000e+04,-5.099999999999999282e-04,-2.999999999999999737e-05,4.000000000000000327e-05,-4.000000000000000327e-05,-9.000000000000000567e-05,-2.299999999999999799e-04,-1.000000000000000082e-05,5.999999999999999474e-05,5.000000000000000000e+00,9.000000000000000000e+00
2.155300000000000000e+04,7.099999999999999107e-04,-1.199999999999999895e-04,5.999999999999999474e-05,2.700000000000000035e-04,5.000000000000000240e-05,1.600000000000000131e-04,-6.999999999999999387e-05,-1.000000000000000082e-05,5.000000000000000000e+00,9.000000000000000000e+00
2.155400000000000000e+04,7.099999999999999107e-04,-1.199999999999999895e-04,5.999999999999999474e-05,2.700000000000000035e-04,5.000000000000000240e-05,1.600000000000000131e-04,-6.999999999999999387e-05,-1.000000000000000082e-05,5.000000000000000000e+00,9.000000000000000000e+00
2.155500000000000000e+04,7.099999999999999107e-04,-1.199999999999999895e-04,5.999999999999999474e-05,2.700000000000000035e-04,5.000000000000000240e-05,1.600000000000000131e-04,-6.999999999999999387e-05,-1.000000000000000082e-05,5.000000000000000000e+00,9.000000000000000000e+00
2.155600000000000000e+04,7.099999999999999107e-04,-1.199999999999999895e-04,5.999999999999999474e-05,2.700000000000000035e-04,5.000000000000000240e-05,1.600000000000000131e-04,-6.999999999999999387e-05,-1.000000000000000082e-05,5.000000000000000000e+00,9.000000000000000000e+00
2.155700000000000000e+04,7.099999999999999107e-04,-1.199999999999999895e-04,5.999999999999999474e-05,2.700000000000000035e-04,5.000000000000000240e-05,1.600000000000000131e-04,-6.999999999999999387e-05,-1.000000000000000082e-05,5.000000000000000000e+00,9.000000000000000000e+00
2.155800000000000000e+04,7.099999999999999107e-04,-1.199999999999999895e-04,5.999999999999999474e-05,2.700000000000000035e-04,5.000000000000000240e-05,1.600000000000000131e-04,-6.999999999999999387e-05,-1.000000000000000082e-05,5.000000000000000000e+00,9.000000000000000000e+00
2.155900000000000000e+04,7.099999999999999107e-04,-1.199999999999999895e-04,5.999999999999999474e-05,2.700000000000000035e-04,5.000000000000000240e-05,1.600000000000000131e-04,-6.999999999999999387e-05,-1.000000000000000082e-05,5.000000000000000000e+00,9.000000000000000000e+00
2.156000000000000000e+04,7.099999999999999107e-04,-1.199999999999999895e-04,5.999999999999999474e-05,2.700000000000000035e-04,5.000000000000000240e-05,1.600000000000000131e-04,-6.999999999999999387e-05,-1.000000000000000082e-05,5.000000000000000000e+00,9.000000000000000000e+00
2.156100000000000000e+04,7.099999999999999107e-04,-1.199999999999999895e-04,5.999999999999999474e-05,2.700000000000000035e-04,5.000000000000000240e-05,1.600000000000000131e-04,-6.999999999999999387e-05,-1.000000000000000082e-05,5.000000000000000000e+00,9.000000000000000000e+00
2.156200000000000000e+04,7.099999999999999107e-04,-1.199999999999999895e-04,5.999999999999999474e-05,2.700000000000000035e-04,5.000000000000000240e-05,1.600000000000000131e-04,-6.999999999999999387e-05,-1.000000000000000082e-05,5.000000000000000000e+00,9.000000000000000000e+00
2.156300000000000000e+04,7.099999999999999107e-04,-1.199999999999999895e-04,5.999999999999999474e-05,2.700000000000000035e-04,5.000000000000000240e-05,1.600000000000000131e-04,-6.999999999999999387e-05,-1.000000000000000082e-05,5.000000000000000000e+00,9.000000000000000000e+00
2.156400000000000000e+04,7.099999999999999107e-04,-1.199999999999999895e-04,5.999999999999999474e-05,2.700000000000000035e-04,5.000000000000000240e-05,1.600000000000000131e-04,-6.999999999999999387e-05,-1.000000000000000082e-05,5.000000000000000000e+00,9.000000000000000000e+00
2.156500000000000000e+04,7.099999999999999107e-04,-1.199999999999999895e-04,5.999999999999999474e-05,2.700000000000000035e-04,5.000000000000000240e-05,1.600000000000000131e-04,-6.999999999999999387e-05,-1.000000000000000082e-05,5.000000000000000000e+00,9.000000000000000000e+00
2.156600000000000000e+04,7.099999999999999107e-04,-1.199999999999999895e-04,5.999999999999999474e-05,2.700000000000000035e-04,5.000000000000000240e-05,1.600000000000000131e-04,-6.999999999999999387e-05,-1.000000000000000082e-05,5.000000000000000000e+00,9.000000000000000000e+00
2.156700000000000000e+04,-4.599999999999999597e-04,5.000000000000000240e-05,-5.999999999999999474e-05,-9.100000000000000016e-04,4.000000000000000327e-05,-1.800000000000000113e-04,-2.999999999999999737e-05,-1.000000000000000048e-04,5.000000000000000000e+00,9.000000000000000000e+00
2.156800000000000000e+04,-1.499999999999999869e-04,-6.999999999999999387e-05,-2.000000000000000096e-04,8.699999999999998967e-04,-1.000000000000000082e-05,-1.000000000000000082e-05,4.000000000000000327e-05,0.000000000000000000e+00,5.000000000000000000e+00,9.000000000000000000e+00
2.156900000000000000e+04,1.800000000000000113e-04,4.000000000000000327e-05,8.000000000000000654e-05,-3.799999999999999667e-04,0.000000000000000000e+00,1.300000000000000157e-04,5.999999999999999474e-05,4.000000000000000327e-05,5.000000000000000000e+00,9.000000000000000000e+00
2.157000000000000000e+04,1.800000000000000113e-04,4.000000000000000327e-05,8.000000000000000654e-05,-3.799999999999999667e-04,0.000000000000000000e+00,1.300000000000000157e-04,5.999999999999999474e-05,4.000000000000000327e-05,5.000000000000000000e+00,9.000000000000000000e+00
2.157100000000000000e+04,1.800000000000000113e-04,4.000000000000000327e-05,8.000000000000000654e-05,-3.799999999999999667e-04,0.000000000000000000e+00,1.300000000000000157e-04,5.999999999999999474e-05,4.000000000000000327e-05,5.000000000000000000e+00,9.000000000000000000e+00
2.157200000000000000e+04,1.800000000000000113e-04,4.000000000000000327e-05,8.000000000000000654e-05,-3.799999999999999667e-04,0.000000000000000000e+00,1.300000000000000157e-04,5.999999999999999474e-05,4.000000000000000327e-05,5.000000000000000000e+00,9.000000000000000000e+00
2.157300000000000000e+04,1.800000000000000113e-04,4.000000000000000327e-05,8.000000000000000654e-05,-3.799999999999999667e-04,0.000000000000000000e+00,1.300000000000000157e-04,5.999999999999999474e-05,4.000000000000000327e-05,5.000000000000000000e+00,9.000000000000000000e+00
2.157400000000000000e+04,1.800000000000000113e-04,4.000000000000000327e-05,8.000000000000000654e-05,-3.799999999999999667e-04,0.000000000000000000e+00,1.300000000000000157e-04,5.999999999999999474e-05,4.000000000000000327e-05,5.000000000000000000e+00,9.000000000000000000e+00
2.157500000000000000e+04,1.800000000000000113e-04,4.000000000000000327e-05,8.000000000000000654e-05,-3.799999999999999667e-04,0.000000000000000000e+00,1.300000000000000157e-04,5.999999999999999474e-05,4.000000000000000327e-05,5.000000000000000000e+00,9.000000000000000000e+00
2.157600000000000000e+04,1.800000000000000113e-04,4.000000000000000327e-05,8.000000000000000654e-05,-3.799999999999999667e-04,0.000000000000000000e+00,1.300000000000000157e-04,5.999999999999999474e-05,4.000000000000000327e-05,5.000000000000000000e+00,9.000000000000000000e+00
2.157700000000000000e+04,1.800000000000000113e-04,4.000000000000000327e-05,8.000000000000000654e-05,-3.799999999999999667e-04,0.000000000000000000e+00,1.300000000000000157e-04,5.999999999999999474e-05,4.000000000000000327e-05,5.000000000000000000e+00,9.000000000000000000e+00
2.157800000000000000e+04,1.800000000000000113e-04,4.000000000000000327e-05,8.000000000000000654e-05,-3.799999999999999667e-04,0.000000000000000000e+00,1.300000000000000157e-04,5.999999999999999474e-05,4.000000000000000327e-05,5.000000000000000000e+00,9.000000000000000000e+00
2.157900000000000000e+04,1.800000000000000113e-04,4.000000000000000327e-05,8.000000000000000654e-05,-3.799999999999999667e-04,0.000000000000000000e+00,1.300000000000000157e-04,5.999999999999999474e-05,4.000000000000000327e-05,5.000000000000000000e+00,9.000000000000000000e+00
2.158000000000000000e+04,1.800000000000000113e-04,4.000000000000000327e-05,8.000000000000000654e-05,-3.799999999999999667e-04,0.000000000000000000e+00,1.300000000000000157e-04,5.999999999999999474e-05,4.000000000000000327e-05,5.000000000000000000e+00,9.000000000000000000e+00
2.158100000000000000e+04,1.800000000000000113e-04,4.000000000000000327e-05,8.000000000000000654e-05,-3.799999999999999667e-04,0.000000000000000000e+00,1.300000000000000157e-04,5.999999999999999474e-05,4.000000000000000327e-05,5.000000000000000000e+00,9.000000000000000000e+00
2.158200000000000000e+04,1.800000000000000113e-04,4.000000000000000327e-05,8.000000000000000654e-05,-3.799999999999999667e-04,0.000000000000000000e+00,1.300000000000000157e-04,5.999999999999999474e-05,4.000000000000000327e-05,5.000000000000000000e+00,9.000000000000000000e+00
2.158300000000000000e+04,1.800000000000000113e-04,4.000000000000000327e-05,8.000000000000000654e-05,-3.799999999999999667e-04,0.000000000000000000e+00,1.300000000000000157e-04,5.999999999999999474e-05,4.000000000000000327e-05,5.000000000000000000e+00,9.000000000000000000e+00
2.158400000000000000e+04,1.800000000000000113e-04,4.000000000000000327e-05,8.000000000000000654e-05,-3.799999999999999667e-04,0.000000000000000000e+00,1.300000000000000157e-04,5.999999999999999474e-05,4.000000000000000327e-05,5.000000000000000000e+00,9.000000000000000000e+00
2.158500000000000000e+04,1.800000000000000113e-04,4.000000000000000327e-05,8.000000000000000654e-05,-3.799999999999999667e-04,0.000000000000000000e+00,1.300000000000000157e-04,5.999999999999999474e-05,4.000000000000000327e-05,5.000000000000000000e+00,9.000000000000000000e+00
2.158600000000000000e+04,1.800000000000000113e-04,4.000000000000000327e-05,8.000000000000000654e-05,-3.799999999999999667e-04,0.000000000000000000e+00,1.300000000000000157e-04,5.999999999999999474e-05,4.000000000000000327e-05,5.000000000000000000e+00,9.000000000000000000e+00
2.158800000000000000e+04,1.800000000000000113e-04,4.000000000000000327e-05,8.000000000000000654e-05,-3.799999999999999667e-04,0.000000000000000000e+00,1.300000000000000157e-04,5.999999999999999474e-05,4.000000000000000327e-05,5.000000000000000000e+00,9.000000000000000000e+00
2.158900000000000000e+04,1.800000000000000113e-04,4.000000000000000327e-05,8.000000000000000654e-05,-3.799999999999999667e-04,0.000000000000000000e+00,1.300000000000000157e-04,5.999999999999999474e-05,4.000000000000000327e-05,5.000000000000000000e+00,9.000000000000000000e+00
2.159000000000000000e+04,1.800000000000000113e-04,4.000000000000000327e-05,8.000000000000000654e-05,-3.799999999999999667e-04,0.000000000000000000e+00,1.300000000000000157e-04,5.999999999999999474e-05,4.000000000000000327e-05,5.000000000000000000e+00,9.000000000000000000e+00
2.159100000000000000e+04,1.800000000000000113e-04,4.000000000000000327e-05,8.000000000000000654e-05,-3.799999999999999667e-04,0.000000000000000000e+00,1.300000000000000157e-04,5.999999999999999474e-05,4.000000000000000327e-05,5.000000000000000000e+00,9.000000000000000000e+00
2.159200000000000000e+04,1.800000000000000113e-04,4.000000000000000327e-05,8.000000000000000654e-05,-3.799999999999999667e-04,0.000000000000000000e+00,1.300000000000000157e-04,5.999999999999999474e-05,4.000000000000000327e-05,5.000000000000000000e+00,9.000000000000000000e+00
2.159300000000000000e+04,1.800000000000000113e-04,4.000000000000000327e-05,8.000000000000000654e-05,-3.799999999999999667e-04,0.000000000000000000e+00,1.300000000000000157e-04,5.999999999999999474e-05,4.000000000000000327e-05,5.000000000000000000e+00,9.000000000000000000e+00
2.159400000000000000e+04,1.800000000000000113e-04,4.000000000000000327e-05,8.000000000000000654e-05,-3.799999999999999667e-04,0.000000000000000000e+00,1.300000000000000157e-04,5.999999999999999474e-05,4.000000000000000327e-05,5.000000000000000000e+00,9.000000000000000000e+00
2.159500000000000000e+04,1.800000000000000113e-04,4.000000000000000327e-05,8.000000000000000654e-05,-3.799999999999999667e-04,0.000000000000000000e+00,1.300000000000000157e-04,5.999999999999999474e-05,4.000000000000000327e-05,5.000000000000000000e+00,9.000000000000000000e+00
2.159600000000000000e+04,1.800000000000000113e-04,4.000000000000000327e-05,8.000000000000000654e-05,-3.799999999999999667e-04,0.000000000000000000e+00,1.300000000000000157e-04,5.999999999999999474e-05,4.000000000000000327e-05,5.000000000000000000e+00,9.000000000000000000e+00
2.159700000000000000e+04,2.000000000000000164e-05,-4.000000000000000327e-05,-2.399999999999999790e-04,2.900000000000000017e-04,0.000000000000000000e+00,1.100000000000000039e-04,-5.999999999999999474e-05,5.000000000000000240e-05,5.000000000000000000e+00,9.000000000000000000e+00
2.159800000000000000e+04,4.000000000000000327e-05,4.000000000000000327e-05,1.000000000000000082e-05,3.600000000000000227e-04,0.000000000000000000e+00,-2.000000000000000164e-05,-6.999999999999999387e-05,-5.999999999999999474e-05,5.000000000000000000e+00,9.000000000000000000e+00
2.159900000000000000e+04,-1.699999999999999851e-04,-5.000000000000000240e-05,-5.999999999999999474e-05,-2.700000000000000035e-04,5.000000000000000240e-05,-5.000000000000000104e-04,-1.199999999999999895e-04,-5.999999999999999474e-05,5.000000000000000000e+00,9.000000000000000000e+00
2.160000000000000000e+04,-1.699999999999999851e-04,-5.000000000000000240e-05,-5.999999999999999474e-05,-2.700000000000000035e-04,5.000000000000000240e-05,-5.000000000000000104e-04,-1.199999999999999895e-04,-5.999999999999999474e-05,5.000000000000000000e+00,9.000000000000000000e+00
2.160100000000000000e+04,-1.699999999999999851e-04,-5.000000000000000240e-05,-5.999999999999999474e-05,-2.700000000000000035e-04,5.000000000000000240e-05,-5.000000000000000104e-04,-1.199999999999999895e-04,-5.999999999999999474e-05,5.000000000000000000e+00,9.000000000000000000e+00
2.160200000000000000e+04,-1.699999999999999851e-04,-5.000000000000000240e-05,-5.999999999999999474e-05,-2.700000000000000035e-04,5.000000000000000240e-05,-5.000000000000000104e-04,-1.199999999999999895e-04,-5.999999999999999474e-05,5.000000000000000000e+00,9.000000000000000000e+00
2.160300000000000000e+04,-1.699999999999999851e-04,-5.000000000000000240e-05,-5.999999999999999474e-05,-2.700000000000000035e-04,5.000000000000000240e-05,-5.000000000000000104e-04,-1.199999999999999895e-04,-5.999999999999999474e-05,5.000000000000000000e+00,9.000000000000000000e+00
2.160400000000000000e+04,-1.699999999999999851e-04,-5.000000000000000240e-05,-5.999999999999999474e-05,-2.700000000000000035e-04,5.000000000000000240e-05,-5.000000000000000104e-04,-1.199999999999999895e-04,-5.999999999999999474e-05,5.000000000000000000e+00,9.000000000000000000e+00
2.160500000000000000e+04,-1.699999999999999851e-04,-5.000000000000000240e-05,-5.999999999999999474e-05,-2.700000000000000035e-04,5.000000000000000240e-05,-5.000000000000000104e-04,-1.199999999999999895e-04,-5.999999999999999474e-05,5.000000000000000000e+00,9.000000000000000000e+00
2.160600000000000000e+04,-1.699999999999999851e-04,-5.000000000000000240e-05,-5.999999999999999474e-05,-2.700000000000000035e-04,5.000000000000000240e-05,-5.000000000000000104e-04,-1.199999999999999895e-04,-5.999999999999999474e-05,5.000000000000000000e+00,9.000000000000000000e+00
2.160700000000000000e+04,-1.699999999999999851e-04,-5.000000000000000240e-05,-5.999999999999999474e-05,-2.700000000000000035e-04,5.000000000000000240e-05,-5.000000000000000104e-04,-1.199999999999999895e-04,-5.999999999999999474e-05,5.000000000000000000e+00,9.000000000000000000e+00
2.160800000000000000e+04,-1.699999999999999851e-04,-5.000000000000000240e-05,-5.999999999999999474e-05,-2.700000000000000035e-04,5.000000000000000240e-05,-5.000000000000000104e-04,-1.199999999999999895e-04,-5.999999999999999474e-05,5.000000000000000000e+00,9.000000000000000000e+00
2.160900000000000000e+04,-1.699999999999999851e-04,-5.000000000000000240e-05,-5.999999999999999474e-05,-2.700000000000000035e-04,5.000000000000000240e-05,-5.000000000000000104e-04,-1.199999999999999895e-04,-5.999999999999999474e-05,5.000000000000000000e+00,9.000000000000000000e+00
2.161000000000000000e+04,-1.699999999999999851e-04,-5.000000000000000240e-05,-5.999999999999999474e-05,-2.700000000000000035e-04,5.000000000000000240e-05,-5.000000000000000104e-04,-1.199999999999999895e-04,-5.999999999999999474e-05,5.000000000000000000e+00,9.000000000000000000e+00
2.161100000000000000e+04,-1.699999999999999851e-04,-5.000000000000000240e-05,-5.999999999999999474e-05,-2.700000000000000035e-04,5.000000000000000240e-05,-5.000000000000000104e-04,-1.199999999999999895e-04,-5.999999999999999474e-05,5.000000000000000000e+00,9.000000000000000000e+00
2.161200000000000000e+04,2.100000000000000087e-04,6.999999999999999387e-05,6.999999999999999387e-05,-2.999999999999999737e-05,-1.000000000000000082e-05,2.100000000000000087e-04,1.199999999999999895e-04,2.999999999999999737e-05,5.000000000000000000e+00,9.000000000000000000e+00
2.161300000000000000e+04,-1.699999999999999851e-04,9.000000000000000567e-05,-6.999999999999999387e-05,-3.699999999999999947e-04,4.000000000000000327e-05,-2.500000000000000052e-04,-1.000000000000000048e-04,-8.000000000000000654e-05,5.000000000000000000e+00,9.000000000000000000e+00
2.161400000000000000e+04,-1.399999999999999877e-04,1.800000000000000113e-04,-5.999999999999999474e-05,-5.999999999999999474e-05,2.000000000000000164e-05,1.699999999999999851e-04,1.000000000000000082e-05,5.000000000000000240e-05,5.000000000000000000e+00,9.000000000000000000e+00
2.161500000000000000e+04,-1.399999999999999877e-04,1.800000000000000113e-04,-5.999999999999999474e-05,-5.999999999999999474e-05,2.000000000000000164e-05,1.699999999999999851e-04,1.000000000000000082e-05,5.000000000000000240e-05,5.000000000000000000e+00,9.000000000000000000e+00
2.161600000000000000e+04,-1.399999999999999877e-04,1.800000000000000113e-04,-5.999999999999999474e-05,-5.999999999999999474e-05,2.000000000000000164e-05,1.699999999999999851e-04,1.000000000000000082e-05,5.000000000000000240e-05,5.000000000000000000e+00,9.000000000000000000e+00
2.161700000000000000e+04,-1.399999999999999877e-04,1.800000000000000113e-04,-5.999999999999999474e-05,-5.999999999999999474e-05,2.000000000000000164e-05,1.699999999999999851e-04,1.000000000000000082e-05,5.000000000000000240e-05,5.000000000000000000e+00,9.000000000000000000e+00
2.161800000000000000e+04,-1.399999999999999877e-04,1.800000000000000113e-04,-5.999999999999999474e-05,-5.999999999999999474e-05,2.000000000000000164e-05,1.699999999999999851e-04,1.000000000000000082e-05,5.000000000000000240e-05,5.000000000000000000e+00,9.000000000000000000e+00
2.161900000000000000e+04,-1.399999999999999877e-04,1.800000000000000113e-04,-5.999999999999999474e-05,-5.999999999999999474e-05,2.000000000000000164e-05,1.699999999999999851e-04,1.000000000000000082e-05,5.000000000000000240e-05,5.000000000000000000e+00,9.000000000000000000e+00
2.162000000000000000e+04,-1.399999999999999877e-04,1.800000000000000113e-04,-5.999999999999999474e-05,-5.999999999999999474e-05,2.000000000000000164e-05,1.699999999999999851e-04,1.000000000000000082e-05,5.000000000000000240e-05,5.000000000000000000e+00,9.000000000000000000e+00
2.162100000000000000e+04,-1.399999999999999877e-04,1.800000000000000113e-04,-5.999999999999999474e-05,-5.999999999999999474e-05,2.000000000000000164e-05,1.699999999999999851e-04,1.000000000000000082e-05,5.000000000000000240e-05,5.000000000000000000e+00,9.000000000000000000e+00
2.162200000000000000e+04,-1.399999999999999877e-04,1.800000000000000113e-04,-5.999999999999999474e-05,-5.999999999999999474e-05,2.000000000000000164e-05,1.699999999999999851e-04,1.000000000000000082e-05,5.000000000000000240e-05,5.000000000000000000e+00,9.000000000000000000e+00
2.162300000000000000e+04,-1.399999999999999877e-04,1.800000000000000113e-04,-5.999999999999999474e-05,-5.999999999999999474e-05,2.000000000000000164e-05,1.699999999999999851e-04,1.000000000000000082e-05,5.000000000000000240e-05,5.000000000000000000e+00,9.000000000000000000e+00
2.162400000000000000e+04,-1.399999999999999877e-04,1.800000000000000113e-04,-5.999999999999999474e-05,-5.999999999999999474e-05,2.000000000000000164e-05,1.699999999999999851e-04,1.000000000000000082e-05,5.000000000000000240e-05,5.000000000000000000e+00,9.000000000000000000e+00
2.162500000000000000e+04,-1.399999999999999877e-04,1.800000000000000113e-04,-5.999999999999999474e-05,-5.999999999999999474e-05,2.000000000000000164e-05,1.699999999999999851e-04,1.000000000000000082e-05,5.000000000000000240e-05,5.000000000000000000e+00,9.000000000000000000e+00
2.162600000000000000e+04,-1.399999999999999877e-04,1.800000000000000113e-04,-5.999999999999999474e-05,-5.999999999999999474e-05,2.000000000000000164e-05,1.699999999999999851e-04,1.000000000000000082e-05,5.000000000000000240e-05,5.000000000000000000e+00,9.000000000000000000e+00
2.162700000000000000e+04,-2.900000000000000017e-04,-5.999999999999999474e-05,2.000000000000000164e-05,1.899999999999999834e-04,0.000000000000000000e+00,1.499999999999999869e-04,5.999999999999999474e-05,-1.100000000000000039e-04,5.000000000000000000e+00,9.000000000000000000e+00
2.162800000000000000e+04,2.000000000000000096e-04,2.000000000000000164e-05,2.000000000000000164e-05,-1.600000000000000131e-04,0.000000000000000000e+00,-2.000000000000000164e-05,2.999999999999999737e-05,2.999999999999999737e-05,5.000000000000000000e+00,9.000000000000000000e+00
2.162900000000000000e+04,-3.799999999999999667e-04,-4.000000000000000327e-05,4.000000000000000327e-05,1.100000000000000039e-04,5.999999999999999474e-05,4.700000000000000401e-04,1.600000000000000131e-04,4.000000000000000327e-05,5.000000000000000000e+00,9.000000000000000000e+00
2.163000000000000000e+04,-3.799999999999999667e-04,-4.000000000000000327e-05,4.000000000000000327e-05,1.100000000000000039e-04,5.999999999999999474e-05,4.700000000000000401e-04,1.600000000000000131e-04,4.000000000000000327e-05,5.000000000000000000e+00,9.000000000000000000e+00
2.163100000000000000e+04,-3.799999999999999667e-04,-4.000000000000000327e-05,4.000000000000000327e-05,1.100000000000000039e-04,5.999999999999999474e-05,4.700000000000000401e-04,1.600000000000000131e-04,4.000000000000000327e-05,5.000000000000000000e+00,9.000000000000000000e+00
2.163200000000000000e+04,-3.799999999999999667e-04,-4.000000000000000327e-05,4.000000000000000327e-05,1.100000000000000039e-04,5.999999999999999474e-05,4.700000000000000401e-04,1.600000000000000131e-04,4.000000000000000327e-05,5.000000000000000000e+00,9.000000000000000000e+00
2.163300000000000000e+04,-3.799999999999999667e-04,-4.000000000000000327e-05,4.000000000000000327e-05,1.100000000000000039e-04,5.999999999999999474e-05,4.700000000000000401e-04,1.600000000000000131e-04,4.000000000000000327e-05,5.000000000000000000e+00,9.000000000000000000e+00
2.163400000000000000e+04,-3.799999999999999667e-04,-4.000000000000000327e-05,4.000000000000000327e-05,1.100000000000000039e-04,5.999999999999999474e-05,4.700000000000000401e-04,1.600000000000000131e-04,4.000000000000000327e-05,5.000000000000000000e+00,9.000000000000000000e+00
2.163500000000000000e+04,-3.799999999999999667e-04,-4.000000000000000327e-05,4.000000000000000327e-05,1.100000000000000039e-04,5.999999999999999474e-05,4.700000000000000401e-04,1.600000000000000131e-04,4.000000000000000327e-05,5.000000000000000000e+00,9.000000000000000000e+00
2.163600000000000000e+04,-3.799999999999999667e-04,-4.000000000000000327e-05,4.000000000000000327e-05,1.100000000000000039e-04,5.999999999999999474e-05,4.700000000000000401e-04,1.600000000000000131e-04,4.000000000000000327e-05,5.000000000000000000e+00,9.000000000000000000e+00
2.163800000000000000e+04,-3.799999999999999667e-04,-4.000000000000000327e-05,4.000000000000000327e-05,1.100000000000000039e-04,5.999999999999999474e-05,4.700000000000000401e-04,1.600000000000000131e-04,4.000000000000000327e-05,5.000000000000000000e+00,9.000000000000000000e+00
2.163900000000000000e+04,-3.799999999999999667e-04,-4.000000000000000327e-05,4.000000000000000327e-05,1.100000000000000039e-04,5.999999999999999474e-05,4.700000000000000401e-04,1.600000000000000131e-04,4.000000000000000327e-05,5.000000000000000000e+00,9.000000000000000000e+00
2.164000000000000000e+04,-3.799999999999999667e-04,-4.000000000000000327e-05,4.000000000000000327e-05,1.100000000000000039e-04,5.999999999999999474e-05,4.700000000000000401e-04,1.600000000000000131e-04,4.000000000000000327e-05,5.000000000000000000e+00,9.000000000000000000e+00
2.164100000000000000e+04,-3.799999999999999667e-04,-4.000000000000000327e-05,4.000000000000000327e-05,1.100000000000000039e-04,5.999999999999999474e-05,4.700000000000000401e-04,1.600000000000000131e-04,4.000000000000000327e-05,5.000000000000000000e+00,9.000000000000000000e+00
2.164200000000000000e+04,-3.799999999999999667e-04,-4.000000000000000327e-05,4.000000000000000327e-05,1.100000000000000039e-04,5.999999999999999474e-05,4.700000000000000401e-04,1.600000000000000131e-04,4.000000000000000327e-05,5.000000000000000000e+00,9.000000000000000000e+00
2.164300000000000000e+04,-3.799999999999999667e-04,-4.000000000000000327e-05,4.000000000000000327e-05,1.100000000000000039e-04,5.999999999999999474e-05,4.700000000000000401e-04,1.600000000000000131e-04,4.000000000000000327e-05,5.000000000000000000e+00,9.000000000000000000e+00
2.164400000000000000e+04,-3.799999999999999667e-04,-4.000000000000000327e-05,4.000000000000000327e-05,1.100000000000000039e-04,5.999999999999999474e-05,4.700000000000000401e-04,1.600000000000000131e-04,4.000000000000000327e-05,5.000000000000000000e+00,9.000000000000000000e+00
2.164500000000000000e+04,-3.799999999999999667e-04,-4.000000000000000327e-05,4.000000000000000327e-05,1.100000000000000039e-04,5.999999999999999474e-05,4.700000000000000401e-04,1.600000000000000131e-04,4.000000000000000327e-05,5.000000000000000000e+00,9.000000000000000000e+00
2.164600000000000000e+04,-3.799999999999999667e-04,-4.000000000000000327e-05,4.000000000000000327e-05,1.100000000000000039e-04,5.999999999999999474e-05,4.700000000000000401e-04,1.600000000000000131e-04,4.000000000000000327e-05,5.000000000000000000e+00,9.000000000000000000e+00
2.164700000000000000e+04,-3.799999999999999667e-04,-4.000000000000000327e-05,4.000000000000000327e-05,1.100000000000000039e-04,5.999999999999999474e-05,4.700000000000000401e-04,1.600000000000000131e-04,4.000000000000000327e-05,5.000000000000000000e+00,9.000000000000000000e+00
2.164800000000000000e+04,-3.799999999999999667e-04,-4.000000000000000327e-05,4.000000000000000327e-05,1.100000000000000039e-04,5.999999999999999474e-05,4.700000000000000401e-04,1.600000000000000131e-04,4.000000000000000327e-05,5.000000000000000000e+00,9.000000000000000000e+00
2.164900000000000000e+04,-3.799999999999999667e-04,-4.000000000000000327e-05,4.000000000000000327e-05,1.100000000000000039e-04,5.999999999999999474e-05,4.700000000000000401e-04,1.600000000000000131e-04,4.000000000000000327e-05,5.000000000000000000e+00,9.000000000000000000e+00
2.165000000000000000e+04,-8.000000000000000654e-05,0.000000000000000000e+00,1.600000000000000131e-04,2.200000000000000078e-04,0.000000000000000000e+00,1.300000000000000157e-04,5.000000000000000240e-05,-2.000000000000000164e-05,5.000000000000000000e+00,9.000000000000000000e+00
2.165100000000000000e+04,-8.000000000000000654e-05,0.000000000000000000e+00,1.600000000000000131e-04,2.200000000000000078e-04,0.000000000000000000e+00,1.300000000000000157e-04,5.000000000000000240e-05,-2.000000000000000164e-05,5.000000000000000000e+00,9.000000000000000000e+00
2.165200000000000000e+04,2.299999999999999799e-04,0.000000000000000000e+00,-8.000000000000000654e-05,-4.299999999999999894e-04,-6.999999999999999387e-05,-1.399999999999999877e-04,5.000000000000000240e-05,5.000000000000000240e-05,5.000000000000000000e+00,9.000000000000000000e+00
2.165300000000000000e+04,2.299999999999999799e-04,0.000000000000000000e+00,-8.000000000000000654e-05,-4.299999999999999894e-04,-6.999999999999999387e-05,-1.399999999999999877e-04,5.000000000000000240e-05,5.000000000000000240e-05,5.000000000000000000e+00,9.000000000000000000e+00
2.165400000000000000e+04,2.299999999999999799e-04,0.000000000000000000e+00,-8.000000000000000654e-05,-4.299999999999999894e-04,-6.999999999999999387e-05,-1.399999999999999877e-04,5.000000000000000240e-05,5.000000000000000240e-05,5.000000000000000000e+00,9.000000000000000000e+00
2.165500000000000000e+04,2.299999999999999799e-04,0.000000000000000000e+00,-8.000000000000000654e-05,-4.299999999999999894e-04,-6.999999999999999387e-05,-1.399999999999999877e-04,5.000000000000000240e-05,5.000000000000000240e-05,5.000000000000000000e+00,9.000000000000000000e+00
2.165600000000000000e+04,2.299999999999999799e-04,0.000000000000000000e+00,-8.000000000000000654e-05,-4.299999999999999894e-04,-6.999999999999999387e-05,-1.399999999999999877e-04,5.000000000000000240e-05,5.000000000000000240e-05,5.000000000000000000e+00,9.000000000000000000e+00
2.165700000000000000e+04,2.299999999999999799e-04,0.000000000000000000e+00,-8.000000000000000654e-05,-4.299999999999999894e-04,-6.999999999999999387e-05,-1.399999999999999877e-04,5.000000000000000240e-05,5.000000000000000240e-05,5.000000000000000000e+00,9.000000000000000000e+00
2.165800000000000000e+04,2.299999999999999799e-04,0.000000000000000000e+00,-8.000000000000000654e-05,-4.299999999999999894e-04,-6.999999999999999387e-05,-1.399999999999999877e-04,5.000000000000000240e-05,5.000000000000000240e-05,5.000000000000000000e+00,9.000000000000000000e+00
2.165900000000000000e+04,2.299999999999999799e-04,0.000000000000000000e+00,-8.000000000000000654e-05,-4.299999999999999894e-04,-6.999999999999999387e-05,-1.399999999999999877e-04,5.000000000000000240e-05,5.000000000000000240e-05,5.000000000000000000e+00,9.000000000000000000e+00
2.166000000000000000e+04,2.299999999999999799e-04,0.000000000000000000e+00,-8.000000000000000654e-05,-4.299999999999999894e-04,-6.999999999999999387e-05,-1.399999999999999877e-04,5.000000000000000240e-05,5.000000000000000240e-05,5.000000000000000000e+00,9.000000000000000000e+00
2.166100000000000000e+04,2.299999999999999799e-04,0.000000000000000000e+00,-8.000000000000000654e-05,-4.299999999999999894e-04,-6.999999999999999387e-05,-1.399999999999999877e-04,5.000000000000000240e-05,5.000000000000000240e-05,5.000000000000000000e+00,9.000000000000000000e+00
2.166200000000000000e+04,2.299999999999999799e-04,0.000000000000000000e+00,-8.000000000000000654e-05,-4.299999999999999894e-04,-6.999999999999999387e-05,-1.399999999999999877e-04,5.000000000000000240e-05,5.000000000000000240e-05,5.000000000000000000e+00,9.000000000000000000e+00
2.166300000000000000e+04,2.299999999999999799e-04,0.000000000000000000e+00,-8.000000000000000654e-05,-4.299999999999999894e-04,-6.999999999999999387e-05,-1.399999999999999877e-04,5.000000000000000240e-05,5.000000000000000240e-05,5.000000000000000000e+00,9.000000000000000000e+00
2.166400000000000000e+04,2.299999999999999799e-04,0.000000000000000000e+00,-8.000000000000000654e-05,-4.299999999999999894e-04,-6.999999999999999387e-05,-1.399999999999999877e-04,5.000000000000000240e-05,5.000000000000000240e-05,5.000000000000000000e+00,9.000000000000000000e+00
2.166500000000000000e+04,2.299999999999999799e-04,0.000000000000000000e+00,-8.000000000000000654e-05,-4.299999999999999894e-04,-6.999999999999999387e-05,-1.399999999999999877e-04,5.000000000000000240e-05,5.000000000000000240e-05,5.000000000000000000e+00,9.000000000000000000e+00
2.166600000000000000e+04,2.299999999999999799e-04,0.000000000000000000e+00,-8.000000000000000654e-05,-4.299999999999999894e-04,-6.999999999999999387e-05,-1.399999999999999877e-04,5.000000000000000240e-05,5.000000000000000240e-05,5.000000000000000000e+00,9.000000000000000000e+00
2.166700000000000000e+04,2.299999999999999799e-04,0.000000000000000000e+00,-8.000000000000000654e-05,-4.299999999999999894e-04,-6.999999999999999387e-05,-1.399999999999999877e-04,5.000000000000000240e-05,5.000000000000000240e-05,5.000000000000000000e+00,9.000000000000000000e+00
2.166800000000000000e+04,2.299999999999999799e-04,0.000000000000000000e+00,-8.000000000000000654e-05,-4.299999999999999894e-04,-6.999999999999999387e-05,-1.399999999999999877e-04,5.000000000000000240e-05,5.000000000000000240e-05,5.000000000000000000e+00,9.000000000000000000e+00
2.166900000000000000e+04,2.299999999999999799e-04,0.000000000000000000e+00,-8.000000000000000654e-05,-4.299999999999999894e-04,-6.999999999999999387e-05,-1.399999999999999877e-04,5.000000000000000240e-05,5.000000000000000240e-05,5.000000000000000000e+00,9.000000000000000000e+00
2.167000000000000000e+04,2.299999999999999799e-04,0.000000000000000000e+00,-8.000000000000000654e-05,-4.299999999999999894e-04,-6.999999999999999387e-05,-1.399999999999999877e-04,5.000000000000000240e-05,5.000000000000000240e-05,5.000000000000000000e+00,9.000000000000000000e+00
2.167100000000000000e+04,2.299999999999999799e-04,0.000000000000000000e+00,-8.000000000000000654e-05,-4.299999999999999894e-04,-6.999999999999999387e-05,-1.399999999999999877e-04,5.000000000000000240e-05,5.000000000000000240e-05,5.000000000000000000e+00,9.000000000000000000e+00
2.167200000000000000e+04,8.000000000000000654e-05,1.000000000000000082e-05,6.999999999999999387e-05,3.699999999999999947e-04,0.000000000000000000e+00,0.000000000000000000e+00,5.000000000000000240e-05,4.000000000000000327e-05,5.000000000000000000e+00,9.000000000000000000e+00
2.167300000000000000e+04,-1.399999999999999877e-04,0.000000000000000000e+00,1.899999999999999834e-04,-2.999999999999999737e-05,4.000000000000000327e-05,1.000000000000000082e-05,-5.999999999999999474e-05,-5.000000000000000240e-05,5.000000000000000000e+00,9.000000000000000000e+00
2.167400000000000000e+04,5.000000000000000240e-05,1.000000000000000082e-05,1.000000000000000082e-05,2.000000000000000096e-04,2.000000000000000164e-05,-1.800000000000000113e-04,-1.100000000000000039e-04,-8.000000000000000654e-05,5.000000000000000000e+00,9.000000000000000000e+00
2.167500000000000000e+04,5.000000000000000240e-05,1.000000000000000082e-05,1.000000000000000082e-05,2.000000000000000096e-04,2.000000000000000164e-05,-1.800000000000000113e-04,-1.100000000000000039e-04,-8.000000000000000654e-05,5.000000000000000000e+00,9.000000000000000000e+00
2.167600000000000000e+04,5.000000000000000240e-05,1.000000000000000082e-05,1.000000000000000082e-05,2.000000000000000096e-04,2.000000000000000164e-05,-1.800000000000000113e-04,-1.100000000000000039e-04,-8.000000000000000654e-05,5.000000000000000000e+00,9.000000000000000000e+00
2.167700000000000000e+04,5.000000000000000240e-05,1.000000000000000082e-05,1.000000000000000082e-05,2.000000000000000096e-04,2.000000000000000164e-05,-1.800000000000000113e-04,-1.100000000000000039e-04,-8.000000000000000654e-05,5.000000000000000000e+00,9.000000000000000000e+00
2.167800000000000000e+04,5.000000000000000240e-05,1.000000000000000082e-05,1.000000000000000082e-05,2.000000000000000096e-04,2.000000000000000164e-05,-1.800000000000000113e-04,-1.100000000000000039e-04,-8.000000000000000654e-05,5.000000000000000000e+00,9.000000000000000000e+00
2.167900000000000000e+04,5.000000000000000240e-05,1.000000000000000082e-05,1.000000000000000082e-05,2.000000000000000096e-04,2.000000000000000164e-05,-1.800000000000000113e-04,-1.100000000000000039e-04,-8.000000000000000654e-05,5.000000000000000000e+00,9.000000000000000000e+00
2.168000000000000000e+04,5.000000000000000240e-05,1.000000000000000082e-05,1.000000000000000082e-05,2.000000000000000096e-04,2.000000000000000164e-05,-1.800000000000000113e-04,-1.100000000000000039e-04,-8.000000000000000654e-05,5.000000000000000000e+00,9.000000000000000000e+00
2.168100000000000000e+04,5.000000000000000240e-05,1.000000000000000082e-05,1.000000000000000082e-05,2.000000000000000096e-04,2.000000000000000164e-05,-1.800000000000000113e-04,-1.100000000000000039e-04,-8.000000000000000654e-05,5.000000000000000000e+00,9.000000000000000000e+00
2.168200000000000000e+04,5.000000000000000240e-05,1.000000000000000082e-05,1.000000000000000082e-05,2.000000000000000096e-04,2.000000000000000164e-05,-1.800000000000000113e-04,-1.100000000000000039e-04,-8.000000000000000654e-05,5.000000000000000000e+00,9.000000000000000000e+00
2.168300000000000000e+04,5.000000000000000240e-05,1.000000000000000082e-05,1.000000000000000082e-05,2.000000000000000096e-04,2.000000000000000164e-05,-1.800000000000000113e-04,-1.100000000000000039e-04,-8.000000000000000654e-05,5.000000000000000000e+00,9.000000000000000000e+00
2.168400000000000000e+04,5.000000000000000240e-05,1.000000000000000082e-05,1.000000000000000082e-05,2.000000000000000096e-04,2.000000000000000164e-05,-1.800000000000000113e-04,-1.100000000000000039e-04,-8.000000000000000654e-05,5.000000000000000000e+00,9.000000000000000000e+00
2.168500000000000000e+04,5.000000000000000240e-05,1.000000000000000082e-05,1.000000000000000082e-05,2.000000000000000096e-04,2.000000000000000164e-05,-1.800000000000000113e-04,-1.100000000000000039e-04,-8.000000000000000654e-05,5.000000000000000000e+00,9.000000000000000000e+00
2.168600000000000000e+04,5.000000000000000240e-05,1.000000000000000082e-05,1.000000000000000082e-05,2.000000000000000096e-04,2.000000000000000164e-05,-1.800000000000000113e-04,-1.100000000000000039e-04,-8.000000000000000654e-05,5.000000000000000000e+00,9.000000000000000000e+00
2.168900000000000000e+04,4.000000000000000327e-05,-4.000000000000000327e-05,1.000000000000000082e-05,1.000000000000000048e-04,1.000000000000000082e-05,1.499999999999999869e-04,8.000000000000000654e-05,1.000000000000000082e-05,5.000000000000000000e+00,9.000000000000000000e+00
2.169000000000000000e+04,4.000000000000000327e-05,-4.000000000000000327e-05,1.000000000000000082e-05,1.000000000000000048e-04,1.000000000000000082e-05,1.499999999999999869e-04,8.000000000000000654e-05,1.000000000000000082e-05,5.000000000000000000e+00,9.000000000000000000e+00
2.169100000000000000e+04,4.000000000000000327e-05,-4.000000000000000327e-05,1.000000000000000082e-05,1.000000000000000048e-04,1.000000000000000082e-05,1.499999999999999869e-04,8.000000000000000654e-05,1.000000000000000082e-05,5.000000000000000000e+00,9.000000000000000000e+00
2.169200000000000000e+04,4.000000000000000327e-05,-4.000000000000000327e-05,1.000000000000000082e-05,1.000000000000000048e-04,1.000000000000000082e-05,1.499999999999999869e-04,8.000000000000000654e-05,1.000000000000000082e-05,5.000000000000000000e+00,9.000000000000000000e+00
2.169300000000000000e+04,4.000000000000000327e-05,-4.000000000000000327e-05,1.000000000000000082e-05,1.000000000000000048e-04,1.000000000000000082e-05,1.499999999999999869e-04,8.000000000000000654e-05,1.000000000000000082e-05,5.000000000000000000e+00,9.000000000000000000e+00
2.169400000000000000e+04,4.000000000000000327e-05,-4.000000000000000327e-05,1.000000000000000082e-05,1.000000000000000048e-04,1.000000000000000082e-05,1.499999999999999869e-04,8.000000000000000654e-05,1.000000000000000082e-05,5.000000000000000000e+00,9.000000000000000000e+00
2.169500000000000000e+04,4.000000000000000327e-05,-4.000000000000000327e-05,1.000000000000000082e-05,1.000000000000000048e-04,1.000000000000000082e-05,1.499999999999999869e-04,8.000000000000000654e-05,1.000000000000000082e-05,5.000000000000000000e+00,9.000000000000000000e+00
2.169600000000000000e+04,4.000000000000000327e-05,-4.000000000000000327e-05,1.000000000000000082e-05,1.000000000000000048e-04,1.000000000000000082e-05,1.499999999999999869e-04,8.000000000000000654e-05,1.000000000000000082e-05,5.000000000000000000e+00,9.000000000000000000e+00
2.169700000000000000e+04,4.000000000000000327e-05,-4.000000000000000327e-05,1.000000000000000082e-05,1.000000000000000048e-04,1.000000000000000082e-05,1.499999999999999869e-04,8.000000000000000654e-05,1.000000000000000082e-05,5.000000000000000000e+00,9.000000000000000000e+00
2.169800000000000000e+04,4.000000000000000327e-05,-4.000000000000000327e-05,1.000000000000000082e-05,1.000000000000000048e-04,1.000000000000000082e-05,1.499999999999999869e-04,8.000000000000000654e-05,1.000000000000000082e-05,5.000000000000000000e+00,9.000000000000000000e+00
2.169900000000000000e+04,4.000000000000000327e-05,-4.000000000000000327e-05,1.000000000000000082e-05,1.000000000000000048e-04,1.000000000000000082e-05,1.499999999999999869e-04,8.000000000000000654e-05,1.000000000000000082e-05,5.000000000000000000e+00,9.000000000000000000e+00
2.170000000000000000e+04,4.000000000000000327e-05,-4.000000000000000327e-05,1.000000000000000082e-05,1.000000000000000048e-04,1.000000000000000082e-05,1.499999999999999869e-04,8.000000000000000654e-05,1.000000000000000082e-05,5.000000000000000000e+00,9.000000000000000000e+00
2.170100000000000000e+04,4.000000000000000327e-05,-4.000000000000000327e-05,1.000000000000000082e-05,1.000000000000000048e-04,1.000000000000000082e-05,1.499999999999999869e-04,8.000000000000000654e-05,1.000000000000000082e-05,5.000000000000000000e+00,9.000000000000000000e+00
2.170200000000000000e+04,4.000000000000000327e-05,-4.000000000000000327e-05,1.000000000000000082e-05,1.000000000000000048e-04,1.000000000000000082e-05,1.499999999999999869e-04,8.000000000000000654e-05,1.000000000000000082e-05,5.000000000000000000e+00,9.000000000000000000e+00
2.170300000000000000e+04,4.000000000000000327e-05,-4.000000000000000327e-05,1.000000000000000082e-05,1.000000000000000048e-04,1.000000000000000082e-05,1.499999999999999869e-04,8.000000000000000654e-05,1.000000000000000082e-05,5.000000000000000000e+00,9.000000000000000000e+00
2.170400000000000000e+04,4.000000000000000327e-05,-4.000000000000000327e-05,1.000000000000000082e-05,1.000000000000000048e-04,1.000000000000000082e-05,1.499999999999999869e-04,8.000000000000000654e-05,1.000000000000000082e-05,5.000000000000000000e+00,9.000000000000000000e+00
2.170500000000000000e+04,4.000000000000000327e-05,-4.000000000000000327e-05,1.000000000000000082e-05,1.000000000000000048e-04,1.000000000000000082e-05,1.499999999999999869e-04,8.000000000000000654e-05,1.000000000000000082e-05,5.000000000000000000e+00,9.000000000000000000e+00
2.170600000000000000e+04,4.000000000000000327e-05,-4.000000000000000327e-05,1.000000000000000082e-05,1.000000000000000048e-04,1.000000000000000082e-05,1.499999999999999869e-04,8.000000000000000654e-05,1.000000000000000082e-05,5.000000000000000000e+00,9.000000000000000000e+00
2.170700000000000000e+04,4.000000000000000327e-05,-4.000000000000000327e-05,1.000000000000000082e-05,1.000000000000000048e-04,1.000000000000000082e-05,1.499999999999999869e-04,8.000000000000000654e-05,1.000000000000000082e-05,5.000000000000000000e+00,9.000000000000000000e+00
2.170800000000000000e+04,4.000000000000000327e-05,-4.000000000000000327e-05,1.000000000000000082e-05,1.000000000000000048e-04,1.000000000000000082e-05,1.499999999999999869e-04,8.000000000000000654e-05,1.000000000000000082e-05,5.000000000000000000e+00,9.000000000000000000e+00
2.170900000000000000e+04,4.000000000000000327e-05,-4.000000000000000327e-05,1.000000000000000082e-05,1.000000000000000048e-04,1.000000000000000082e-05,1.499999999999999869e-04,8.000000000000000654e-05,1.000000000000000082e-05,5.000000000000000000e+00,9.000000000000000000e+00
2.171000000000000000e+04,2.000000000000000164e-05,2.999999999999999737e-05,-1.600000000000000131e-04,-1.499999999999999869e-04,0.000000000000000000e+00,-1.600000000000000131e-04,-1.199999999999999895e-04,-6.999999999999999387e-05,5.000000000000000000e+00,9.000000000000000000e+00
2.171100000000000000e+04,2.000000000000000164e-05,2.999999999999999737e-05,-1.600000000000000131e-04,-1.499999999999999869e-04,0.000000000000000000e+00,-1.600000000000000131e-04,-1.199999999999999895e-04,-6.999999999999999387e-05,5.000000000000000000e+00,9.000000000000000000e+00
2.171200000000000000e+04,-1.499999999999999869e-04,0.000000000000000000e+00,2.000000000000000164e-05,-4.000000000000000327e-05,-2.000000000000000164e-05,-1.600000000000000131e-04,-6.999999999999999387e-05,-2.000000000000000164e-05,5.000000000000000000e+00,9.000000000000000000e+00
2.171300000000000000e+04,-1.499999999999999869e-04,0.000000000000000000e+00,2.000000000000000164e-05,-4.000000000000000327e-05,-2.000000000000000164e-05,-1.600000000000000131e-04,-6.999999999999999387e-05,-2.000000000000000164e-05,5.000000000000000000e+00,9.000000000000000000e+00
2.171400000000000000e+04,-1.499999999999999869e-04,0.000000000000000000e+00,2.000000000000000164e-05,-4.000000000000000327e-05,-2.000000000000000164e-05,-1.600000000000000131e-04,-6.999999999999999387e-05,-2.000000000000000164e-05,5.000000000000000000e+00,9.000000000000000000e+00
2.171500000000000000e+04,-1.499999999999999869e-04,0.000000000000000000e+00,2.000000000000000164e-05,-4.000000000000000327e-05,-2.000000000000000164e-05,-1.600000000000000131e-04,-6.999999999999999387e-05,-2.000000000000000164e-05,5.000000000000000000e+00,9.000000000000000000e+00
2.171600000000000000e+04,-1.499999999999999869e-04,0.000000000000000000e+00,2.000000000000000164e-05,-4.000000000000000327e-05,-2.000000000000000164e-05,-1.600000000000000131e-04,-6.999999999999999387e-05,-2.000000000000000164e-05,5.000000000000000000e+00,9.000000000000000000e+00
2.171700000000000000e+04,-1.499999999999999869e-04,0.000000000000000000e+00,2.000000000000000164e-05,-4.000000000000000327e-05,-2.000000000000000164e-05,-1.600000000000000131e-04,-6.999999999999999387e-05,-2.000000000000000164e-05,5.000000000000000000e+00,9.000000000000000000e+00
2.171800000000000000e+04,-1.499999999999999869e-04,0.000000000000000000e+00,2.000000000000000164e-05,-4.000000000000000327e-05,-2.000000000000000164e-05,-1.600000000000000131e-04,-6.999999999999999387e-05,-2.000000000000000164e-05,5.000000000000000000e+00,9.000000000000000000e+00
2.171900000000000000e+04,-1.499999999999999869e-04,0.000000000000000000e+00,2.000000000000000164e-05,-4.000000000000000327e-05,-2.000000000000000164e-05,-1.600000000000000131e-04,-6.999999999999999387e-05,-2.000000000000000164e-05,5.000000000000000000e+00,9.000000000000000000e+00
2.172000000000000000e+04,-1.499999999999999869e-04,0.000000000000000000e+00,2.000000000000000164e-05,-4.000000000000000327e-05,-2.000000000000000164e-05,-1.600000000000000131e-04,-6.999999999999999387e-05,-2.000000000000000164e-05,5.000000000000000000e+00,9.000000000000000000e+00
2.172100000000000000e+04,-1.499999999999999869e-04,0.000000000000000000e+00,2.000000000000000164e-05,-4.000000000000000327e-05,-2.000000000000000164e-05,-1.600000000000000131e-04,-6.999999999999999387e-05,-2.000000000000000164e-05,5.000000000000000000e+00,9.000000000000000000e+00
2.172200000000000000e+04,-1.499999999999999869e-04,0.000000000000000000e+00,2.000000000000000164e-05,-4.000000000000000327e-05,-2.000000000000000164e-05,-1.600000000000000131e-04,-6.999999999999999387e-05,-2.000000000000000164e-05,5.000000000000000000e+00,9.000000000000000000e+00
2.172300000000000000e+04,-1.499999999999999869e-04,0.000000000000000000e+00,2.000000000000000164e-05,-4.000000000000000327e-05,-2.000000000000000164e-05,-1.600000000000000131e-04,-6.999999999999999387e-05,-2.000000000000000164e-05,5.000000000000000000e+00,9.000000000000000000e+00
2.172400000000000000e+04,-1.499999999999999869e-04,0.000000000000000000e+00,2.000000000000000164e-05,-4.000000000000000327e-05,-2.000000000000000164e-05,-1.600000000000000131e-04,-6.999999999999999387e-05,-2.000000000000000164e-05,5.000000000000000000e+00,9.000000000000000000e+00
2.172500000000000000e+04,-1.499999999999999869e-04,0.000000000000000000e+00,2.000000000000000164e-05,-4.000000000000000327e-05,-2.000000000000000164e-05,-1.600000000000000131e-04,-6.999999999999999387e-05,-2.000000000000000164e-05,5.000000000000000000e+00,9.000000000000000000e+00
2.172600000000000000e+04,-1.499999999999999869e-04,0.000000000000000000e+00,2.000000000000000164e-05,-4.000000000000000327e-05,-2.000000000000000164e-05,-1.600000000000000131e-04,-6.999999999999999387e-05,-2.000000000000000164e-05,5.000000000000000000e+00,9.000000000000000000e+00
2.172700000000000000e+04,-1.499999999999999869e-04,0.000000000000000000e+00,2.000000000000000164e-05,-4.000000000000000327e-05,-2.000000000000000164e-05,-1.600000000000000131e-04,-6.999999999999999387e-05,-2.000000000000000164e-05,5.000000000000000000e+00,9.000000000000000000e+00
2.172800000000000000e+04,-1.499999999999999869e-04,0.000000000000000000e+00,2.000000000000000164e-05,-4.000000000000000327e-05,-2.000000000000000164e-05,-1.600000000000000131e-04,-6.999999999999999387e-05,-2.000000000000000164e-05,5.000000000000000000e+00,9.000000000000000000e+00
2.172900000000000000e+04,-1.499999999999999869e-04,0.000000000000000000e+00,2.000000000000000164e-05,-4.000000000000000327e-05,-2.000000000000000164e-05,-1.600000000000000131e-04,-6.999999999999999387e-05,-2.000000000000000164e-05,5.000000000000000000e+00,9.000000000000000000e+00
2.173000000000000000e+04,-1.499999999999999869e-04,0.000000000000000000e+00,2.000000000000000164e-05,-4.000000000000000327e-05,-2.000000000000000164e-05,-1.600000000000000131e-04,-6.999999999999999387e-05,-2.000000000000000164e-05,5.000000000000000000e+00,9.000000000000000000e+00
2.173100000000000000e+04,-1.499999999999999869e-04,0.000000000000000000e+00,2.000000000000000164e-05,-4.000000000000000327e-05,-2.000000000000000164e-05,-1.600000000000000131e-04,-6.999999999999999387e-05,-2.000000000000000164e-05,5.000000000000000000e+00,9.000000000000000000e+00
2.173200000000000000e+04,2.999999999999999737e-04,0.000000000000000000e+00,-9.000000000000000567e-05,4.000000000000000327e-05,-6.999999999999999387e-05,2.299999999999999799e-04,1.100000000000000039e-04,1.100000000000000039e-04,5.000000000000000000e+00,9.000000000000000000e+00
2.173300000000000000e+04,-5.000000000000000240e-05,2.000000000000000164e-05,-4.000000000000000327e-05,-4.899999999999999842e-04,-2.000000000000000164e-05,-1.199999999999999895e-04,-6.999999999999999387e-05,-8.000000000000000654e-05,5.000000000000000000e+00,9.000000000000000000e+00
2.173400000000000000e+04,1.600000000000000131e-04,-5.999999999999999474e-05,-5.999999999999999474e-05,-1.699999999999999851e-04,-2.999999999999999737e-05,-8.000000000000000654e-05,-6.999999999999999387e-05,-8.000000000000000654e-05,5.000000000000000000e+00,9.000000000000000000e+00
2.173500000000000000e+04,1.600000000000000131e-04,-5.999999999999999474e-05,-5.999999999999999474e-05,-1.699999999999999851e-04,-2.999999999999999737e-05,-8.000000000000000654e-05,-6.999999999999999387e-05,-8.000000000000000654e-05,5.000000000000000000e+00,9.000000000000000000e+00
2.173600000000000000e+04,1.600000000000000131e-04,-5.999999999999999474e-05,-5.999999999999999474e-05,-1.699999999999999851e-04,-2.999999999999999737e-05,-8.000000000000000654e-05,-6.999999999999999387e-05,-8.000000000000000654e-05,5.000000000000000000e+00,9.000000000000000000e+00
2.173800000000000000e+04,1.600000000000000131e-04,-5.999999999999999474e-05,-5.999999999999999474e-05,-1.699999999999999851e-04,-2.999999999999999737e-05,-8.000000000000000654e-05,-6.999999999999999387e-05,-8.000000000000000654e-05,5.000000000000000000e+00,9.000000000000000000e+00
2.173900000000000000e+04,1.600000000000000131e-04,-5.999999999999999474e-05,-5.999999999999999474e-05,-1.699999999999999851e-04,-2.999999999999999737e-05,-8.000000000000000654e-05,-6.999999999999999387e-05,-8.000000000000000654e-05,5.000000000000000000e+00,9.000000000000000000e+00
2.174000000000000000e+04,1.600000000000000131e-04,-5.999999999999999474e-05,-5.999999999999999474e-05,-1.699999999999999851e-04,-2.999999999999999737e-05,-8.000000000000000654e-05,-6.999999999999999387e-05,-8.000000000000000654e-05,5.000000000000000000e+00,9.000000000000000000e+00
2.174100000000000000e+04,1.600000000000000131e-04,-5.999999999999999474e-05,-5.999999999999999474e-05,-1.699999999999999851e-04,-2.999999999999999737e-05,-8.000000000000000654e-05,-6.999999999999999387e-05,-8.000000000000000654e-05,5.000000000000000000e+00,9.000000000000000000e+00
2.174200000000000000e+04,1.600000000000000131e-04,-5.999999999999999474e-05,-5.999999999999999474e-05,-1.699999999999999851e-04,-2.999999999999999737e-05,-8.000000000000000654e-05,-6.999999999999999387e-05,-8.000000000000000654e-05,5.000000000000000000e+00,9.000000000000000000e+00
2.174300000000000000e+04,1.600000000000000131e-04,-5.999999999999999474e-05,-5.999999999999999474e-05,-1.699999999999999851e-04,-2.999999999999999737e-05,-8.000000000000000654e-05,-6.999999999999999387e-05,-8.000000000000000654e-05,5.000000000000000000e+00,9.000000000000000000e+00
2.174400000000000000e+04,1.600000000000000131e-04,-5.999999999999999474e-05,-5.999999999999999474e-05,-1.699999999999999851e-04,-2.999999999999999737e-05,-8.000000000000000654e-05,-6.999999999999999387e-05,-8.000000000000000654e-05,5.000000000000000000e+00,9.000000000000000000e+00
2.174500000000000000e+04,1.600000000000000131e-04,-5.999999999999999474e-05,-5.999999999999999474e-05,-1.699999999999999851e-04,-2.999999999999999737e-05,-8.000000000000000654e-05,-6.999999999999999387e-05,-8.000000000000000654e-05,5.000000000000000000e+00,9.000000000000000000e+00
2.174600000000000000e+04,1.600000000000000131e-04,-5.999999999999999474e-05,-5.999999999999999474e-05,-1.699999999999999851e-04,-2.999999999999999737e-05,-8.000000000000000654e-05,-6.999999999999999387e-05,-8.000000000000000654e-05,5.000000000000000000e+00,9.000000000000000000e+00
2.174700000000000000e+04,2.999999999999999737e-05,-2.000000000000000164e-05,8.000000000000000654e-05,2.999999999999999737e-04,-1.199999999999999895e-04,5.999999999999999474e-05,1.000000000000000082e-05,-4.000000000000000327e-05,5.000000000000000000e+00,9.000000000000000000e+00
2.174800000000000000e+04,2.999999999999999737e-05,-2.000000000000000164e-05,8.000000000000000654e-05,2.999999999999999737e-04,-1.199999999999999895e-04,5.999999999999999474e-05,1.000000000000000082e-05,-4.000000000000000327e-05,5.000000000000000000e+00,9.000000000000000000e+00
2.174900000000000000e+04,-6.999999999999999387e-05,-6.999999999999999387e-05,-2.000000000000000164e-05,-1.000000000000000082e-05,-1.000000000000000082e-05,3.399999999999999702e-04,2.000000000000000164e-05,-2.000000000000000164e-05,5.000000000000000000e+00,9.000000000000000000e+00
2.175000000000000000e+04,-6.999999999999999387e-05,-6.999999999999999387e-05,-2.000000000000000164e-05,-1.000000000000000082e-05,-1.000000000000000082e-05,3.399999999999999702e-04,2.000000000000000164e-05,-2.000000000000000164e-05,5.000000000000000000e+00,9.000000000000000000e+00
2.175100000000000000e+04,-6.999999999999999387e-05,-6.999999999999999387e-05,-2.000000000000000164e-05,-1.000000000000000082e-05,-1.000000000000000082e-05,3.399999999999999702e-04,2.000000000000000164e-05,-2.000000000000000164e-05,5.000000000000000000e+00,9.000000000000000000e+00
2.175200000000000000e+04,-6.999999999999999387e-05,-6.999999999999999387e-05,-2.000000000000000164e-05,-1.000000000000000082e-05,-1.000000000000000082e-05,3.399999999999999702e-04,2.000000000000000164e-05,-2.000000000000000164e-05,5.000000000000000000e+00,9.000000000000000000e+00
2.175300000000000000e+04,-6.999999999999999387e-05,-6.999999999999999387e-05,-2.000000000000000164e-05,-1.000000000000000082e-05,-1.000000000000000082e-05,3.399999999999999702e-04,2.000000000000000164e-05,-2.000000000000000164e-05,5.000000000000000000e+00,9.000000000000000000e+00
2.175400000000000000e+04,-6.999999999999999387e-05,-6.999999999999999387e-05,-2.000000000000000164e-05,-1.000000000000000082e-05,-1.000000000000000082e-05,3.399999999999999702e-04,2.000000000000000164e-05,-2.000000000000000164e-05,5.000000000000000000e+00,9.000000000000000000e+00
2.175500000000000000e+04,-6.999999999999999387e-05,-6.999999999999999387e-05,-2.000000000000000164e-05,-1.000000000000000082e-05,-1.000000000000000082e-05,3.399999999999999702e-04,2.000000000000000164e-05,-2.000000000000000164e-05,5.000000000000000000e+00,9.000000000000000000e+00
2.175600000000000000e+04,-6.999999999999999387e-05,-6.999999999999999387e-05,-2.000000000000000164e-05,-1.000000000000000082e-05,-1.000000000000000082e-05,3.399999999999999702e-04,2.000000000000000164e-05,-2.000000000000000164e-05,5.000000000000000000e+00,9.000000000000000000e+00
2.175700000000000000e+04,-6.999999999999999387e-05,-6.999999999999999387e-05,-2.000000000000000164e-05,-1.000000000000000082e-05,-1.000000000000000082e-05,3.399999999999999702e-04,2.000000000000000164e-05,-2.000000000000000164e-05,5.000000000000000000e+00,9.000000000000000000e+00
2.175800000000000000e+04,-6.999999999999999387e-05,-6.999999999999999387e-05,-2.000000000000000164e-05,-1.000000000000000082e-05,-1.000000000000000082e-05,3.399999999999999702e-04,2.000000000000000164e-05,-2.000000000000000164e-05,5.000000000000000000e+00,9.000000000000000000e+00
2.175900000000000000e+04,-6.999999999999999387e-05,-6.999999999999999387e-05,-2.000000000000000164e-05,-1.000000000000000082e-05,-1.000000000000000082e-05,3.399999999999999702e-04,2.000000000000000164e-05,-2.000000000000000164e-05,5.000000000000000000e+00,9.000000000000000000e+00
2.176000000000000000e+04,-6.999999999999999387e-05,-6.999999999999999387e-05,-2.000000000000000164e-05,-1.000000000000000082e-05,-1.000000000000000082e-05,3.399999999999999702e-04,2.000000000000000164e-05,-2.000000000000000164e-05,5.000000000000000000e+00,9.000000000000000000e+00
2.176100000000000000e+04,-6.999999999999999387e-05,-6.999999999999999387e-05,-2.000000000000000164e-05,-1.000000000000000082e-05,-1.000000000000000082e-05,3.399999999999999702e-04,2.000000000000000164e-05,-2.000000000000000164e-05,5.000000000000000000e+00,9.000000000000000000e+00
2.176200000000000000e+04,-6.999999999999999387e-05,-6.999999999999999387e-05,-2.000000000000000164e-05,-1.000000000000000082e-05,-1.000000000000000082e-05,3.399999999999999702e-04,2.000000000000000164e-05,-2.000000000000000164e-05,5.000000000000000000e+00,9.000000000000000000e+00
2.176300000000000000e+04,-6.999999999999999387e-05,-6.999999999999999387e-05,-2.000000000000000164e-05,-1.000000000000000082e-05,-1.000000000000000082e-05,3.399999999999999702e-04,2.000000000000000164e-05,-2.000000000000000164e-05,5.000000000000000000e+00,9.000000000000000000e+00
2.176400000000000000e+04,-6.999999999999999387e-05,-6.999999999999999387e-05,-2.000000000000000164e-05,-1.000000000000000082e-05,-1.000000000000000082e-05,3.399999999999999702e-04,2.000000000000000164e-05,-2.000000000000000164e-05,5.000000000000000000e+00,9.000000000000000000e+00
2.176500000000000000e+04,-6.999999999999999387e-05,-6.999999999999999387e-05,-2.000000000000000164e-05,-1.000000000000000082e-05,-1.000000000000000082e-05,3.399999999999999702e-04,2.000000000000000164e-05,-2.000000000000000164e-05,5.000000000000000000e+00,9.000000000000000000e+00
2.176600000000000000e+04,-6.999999999999999387e-05,-6.999999999999999387e-05,-2.000000000000000164e-05,-1.000000000000000082e-05,-1.000000000000000082e-05,3.399999999999999702e-04,2.000000000000000164e-05,-2.000000000000000164e-05,5.000000000000000000e+00,9.000000000000000000e+00
2.176700000000000000e+04,-6.999999999999999387e-05,-6.999999999999999387e-05,-2.000000000000000164e-05,-1.000000000000000082e-05,-1.000000000000000082e-05,3.399999999999999702e-04,2.000000000000000164e-05,-2.000000000000000164e-05,5.000000000000000000e+00,9.000000000000000000e+00
2.176800000000000000e+04,-6.999999999999999387e-05,-6.999999999999999387e-05,-2.000000000000000164e-05,-1.000000000000000082e-05,-1.000000000000000082e-05,3.399999999999999702e-04,2.000000000000000164e-05,-2.000000000000000164e-05,5.000000000000000000e+00,9.000000000000000000e+00
2.176900000000000000e+04,-6.999999999999999387e-05,-6.999999999999999387e-05,-2.000000000000000164e-05,-1.000000000000000082e-05,-1.000000000000000082e-05,3.399999999999999702e-04,2.000000000000000164e-05,-2.000000000000000164e-05,5.000000000000000000e+00,9.000000000000000000e+00
2.177000000000000000e+04,2.000000000000000164e-05,-5.999999999999999474e-05,-6.999999999999999387e-05,-1.399999999999999877e-04,1.000000000000000082e-05,2.000000000000000096e-04,6.999999999999999387e-05,4.000000000000000327e-05,5.000000000000000000e+00,9.000000000000000000e+00
2.177100000000000000e+04,1.000000000000000048e-04,0.000000000000000000e+00,-6.999999999999999387e-05,1.499999999999999869e-04,-5.999999999999999474e-05,-9.000000000000000567e-05,1.000000000000000082e-05,1.000000000000000082e-05,5.000000000000000000e+00,9.000000000000000000e+00
2.177200000000000000e+04,1.000000000000000048e-04,0.000000000000000000e+00,-6.999999999999999387e-05,1.499999999999999869e-04,-5.999999999999999474e-05,-9.000000000000000567e-05,1.000000000000000082e-05,1.000000000000000082e-05,5.000000000000000000e+00,9.000000000000000000e+00
2.177300000000000000e+04,1.000000000000000048e-04,0.000000000000000000e+00,-6.999999999999999387e-05,1.499999999999999869e-04,-5.999999999999999474e-05,-9.000000000000000567e-05,1.000000000000000082e-05,1.000000000000000082e-05,5.000000000000000000e+00,9.000000000000000000e+00
2.177400000000000000e+04,1.000000000000000048e-04,0.000000000000000000e+00,-6.999999999999999387e-05,1.499999999999999869e-04,-5.999999999999999474e-05,-9.000000000000000567e-05,1.000000000000000082e-05,1.000000000000000082e-05,5.000000000000000000e+00,9.000000000000000000e+00
2.177500000000000000e+04,1.000000000000000048e-04,0.000000000000000000e+00,-6.999999999999999387e-05,1.499999999999999869e-04,-5.999999999999999474e-05,-9.000000000000000567e-05,1.000000000000000082e-05,1.000000000000000082e-05,5.000000000000000000e+00,9.000000000000000000e+00
2.177600000000000000e+04,1.000000000000000048e-04,0.000000000000000000e+00,-6.999999999999999387e-05,1.499999999999999869e-04,-5.999999999999999474e-05,-9.000000000000000567e-05,1.000000000000000082e-05,1.000000000000000082e-05,5.000000000000000000e+00,9.000000000000000000e+00
2.177700000000000000e+04,1.000000000000000048e-04,0.000000000000000000e+00,-6.999999999999999387e-05,1.499999999999999869e-04,-5.999999999999999474e-05,-9.000000000000000567e-05,1.000000000000000082e-05,1.000000000000000082e-05,5.000000000000000000e+00,9.000000000000000000e+00
2.177800000000000000e+04,1.000000000000000048e-04,0.000000000000000000e+00,-6.999999999999999387e-05,1.499999999999999869e-04,-5.999999999999999474e-05,-9.000000000000000567e-05,1.000000000000000082e-05,1.000000000000000082e-05,5.000000000000000000e+00,9.000000000000000000e+00
2.177900000000000000e+04,1.000000000000000048e-04,0.000000000000000000e+00,-6.999999999999999387e-05,1.499999999999999869e-04,-5.999999999999999474e-05,-9.000000000000000567e-05,1.000000000000000082e-05,1.000000000000000082e-05,5.000000000000000000e+00,9.000000000000000000e+00
2.178000000000000000e+04,1.000000000000000048e-04,0.000000000000000000e+00,-6.999999999999999387e-05,1.499999999999999869e-04,-5.999999999999999474e-05,-9.000000000000000567e-05,1.000000000000000082e-05,1.000000000000000082e-05,5.000000000000000000e+00,9.000000000000000000e+00
2.178100000000000000e+04,1.000000000000000048e-04,0.000000000000000000e+00,-6.999999999999999387e-05,1.499999999999999869e-04,-5.999999999999999474e-05,-9.000000000000000567e-05,1.000000000000000082e-05,1.000000000000000082e-05,5.000000000000000000e+00,9.000000000000000000e+00
2.178200000000000000e+04,1.000000000000000048e-04,0.000000000000000000e+00,-6.999999999999999387e-05,1.499999999999999869e-04,-5.999999999999999474e-05,-9.000000000000000567e-05,1.000000000000000082e-05,1.000000000000000082e-05,5.000000000000000000e+00,9.000000000000000000e+00
2.178300000000000000e+04,1.000000000000000048e-04,0.000000000000000000e+00,-6.999999999999999387e-05,1.499999999999999869e-04,-5.999999999999999474e-05,-9.000000000000000567e-05,1.000000000000000082e-05,1.000000000000000082e-05,5.000000000000000000e+00,9.000000000000000000e+00
2.178400000000000000e+04,1.000000000000000048e-04,0.000000000000000000e+00,-6.999999999999999387e-05,1.499999999999999869e-04,-5.999999999999999474e-05,-9.000000000000000567e-05,1.000000000000000082e-05,1.000000000000000082e-05,5.000000000000000000e+00,9.000000000000000000e+00
2.178500000000000000e+04,1.000000000000000048e-04,0.000000000000000000e+00,-6.999999999999999387e-05,1.499999999999999869e-04,-5.999999999999999474e-05,-9.000000000000000567e-05,1.000000000000000082e-05,1.000000000000000082e-05,5.000000000000000000e+00,9.000000000000000000e+00
2.178600000000000000e+04,1.000000000000000048e-04,0.000000000000000000e+00,-6.999999999999999387e-05,1.499999999999999869e-04,-5.999999999999999474e-05,-9.000000000000000567e-05,1.000000000000000082e-05,1.000000000000000082e-05,5.000000000000000000e+00,9.000000000000000000e+00
2.178800000000000000e+04,1.000000000000000048e-04,0.000000000000000000e+00,-6.999999999999999387e-05,1.499999999999999869e-04,-5.999999999999999474e-05,-9.000000000000000567e-05,1.000000000000000082e-05,1.000000000000000082e-05,5.000000000000000000e+00,9.000000000000000000e+00
2.178900000000000000e+04,1.000000000000000048e-04,0.000000000000000000e+00,-6.999999999999999387e-05,1.499999999999999869e-04,-5.999999999999999474e-05,-9.000000000000000567e-05,1.000000000000000082e-05,1.000000000000000082e-05,5.000000000000000000e+00,9.000000000000000000e+00
2.179000000000000000e+04,1.000000000000000048e-04,0.000000000000000000e+00,-6.999999999999999387e-05,1.499999999999999869e-04,-5.999999999999999474e-05,-9.000000000000000567e-05,1.000000000000000082e-05,1.000000000000000082e-05,5.000000000000000000e+00,9.000000000000000000e+00
2.179100000000000000e+04,1.000000000000000048e-04,0.000000000000000000e+00,-6.999999999999999387e-05,1.499999999999999869e-04,-5.999999999999999474e-05,-9.000000000000000567e-05,1.000000000000000082e-05,1.000000000000000082e-05,5.000000000000000000e+00,9.000000000000000000e+00
2.179200000000000000e+04,-4.400000000000000157e-04,-2.200000000000000078e-04,-4.000000000000000327e-05,1.600000000000000131e-04,2.999999999999999737e-05,-1.100000000000000039e-04,-4.000000000000000327e-05,-4.000000000000000327e-05,5.000000000000000000e+00,9.000000000000000000e+00
2.179300000000000000e+04,-8.000000000000000654e-05,2.000000000000000164e-05,-2.000000000000000164e-05,-1.600000000000000131e-04,1.000000000000000082e-05,-4.000000000000000327e-05,-2.999999999999999737e-05,-8.000000000000000654e-05,5.000000000000000000e+00,9.000000000000000000e+00
2.179400000000000000e+04,-2.799999999999999755e-04,-8.000000000000000654e-05,-1.000000000000000082e-05,8.000000000000000654e-05,1.000000000000000082e-05,2.000000000000000164e-05,-5.000000000000000240e-05,-5.000000000000000240e-05,5.000000000000000000e+00,9.000000000000000000e+00
2.179500000000000000e+04,-2.799999999999999755e-04,-8.000000000000000654e-05,-1.000000000000000082e-05,8.000000000000000654e-05,1.000000000000000082e-05,2.000000000000000164e-05,-5.000000000000000240e-05,-5.000000000000000240e-05,5.000000000000000000e+00,9.000000000000000000e+00
2.179600000000000000e+04,-2.799999999999999755e-04,-8.000000000000000654e-05,-1.000000000000000082e-05,8.000000000000000654e-05,1.000000000000000082e-05,2.000000000000000164e-05,-5.000000000000000240e-05,-5.000000000000000240e-05,5.000000000000000000e+00,9.000000000000000000e+00
2.179700000000000000e+04,-2.799999999999999755e-04,-8.000000000000000654e-05,-1.000000000000000082e-05,8.000000000000000654e-05,1.000000000000000082e-05,2.000000000000000164e-05,-5.000000000000000240e-05,-5.000000000000000240e-05,5.000000000000000000e+00,9.000000000000000000e+00
2.179800000000000000e+04,-2.799999999999999755e-04,-8.000000000000000654e-05,-1.000000000000000082e-05,8.000000000000000654e-05,1.000000000000000082e-05,2.000000000000000164e-05,-5.000000000000000240e-05,-5.000000000000000240e-05,5.000000000000000000e+00,9.000000000000000000e+00
2.179900000000000000e+04,-2.799999999999999755e-04,-8.000000000000000654e-05,-1.000000000000000082e-05,8.000000000000000654e-05,1.000000000000000082e-05,2.000000000000000164e-05,-5.000000000000000240e-05,-5.000000000000000240e-05,5.000000000000000000e+00,9.000000000000000000e+00
2.180000000000000000e+04,-2.799999999999999755e-04,-8.000000000000000654e-05,-1.000000000000000082e-05,8.000000000000000654e-05,1.000000000000000082e-05,2.000000000000000164e-05,-5.000000000000000240e-05,-5.000000000000000240e-05,5.000000000000000000e+00,9.000000000000000000e+00
2.180100000000000000e+04,-2.799999999999999755e-04,-8.000000000000000654e-05,-1.000000000000000082e-05,8.000000000000000654e-05,1.000000000000000082e-05,2.000000000000000164e-05,-5.000000000000000240e-05,-5.000000000000000240e-05,5.000000000000000000e+00,9.000000000000000000e+00
2.180200000000000000e+04,-2.799999999999999755e-04,-8.000000000000000654e-05,-1.000000000000000082e-05,8.000000000000000654e-05,1.000000000000000082e-05,2.000000000000000164e-05,-5.000000000000000240e-05,-5.000000000000000240e-05,5.000000000000000000e+00,9.000000000000000000e+00
2.180300000000000000e+04,-2.799999999999999755e-04,-8.000000000000000654e-05,-1.000000000000000082e-05,8.000000000000000654e-05,1.000000000000000082e-05,2.000000000000000164e-05,-5.000000000000000240e-05,-5.000000000000000240e-05,5.000000000000000000e+00,9.000000000000000000e+00
2.180400000000000000e+04,-2.799999999999999755e-04,-8.000000000000000654e-05,-1.000000000000000082e-05,8.000000000000000654e-05,1.000000000000000082e-05,2.000000000000000164e-05,-5.000000000000000240e-05,-5.000000000000000240e-05,5.000000000000000000e+00,9.000000000000000000e+00
2.180500000000000000e+04,-2.799999999999999755e-04,-8.000000000000000654e-05,-1.000000000000000082e-05,8.000000000000000654e-05,1.000000000000000082e-05,2.000000000000000164e-05,-5.000000000000000240e-05,-5.000000000000000240e-05,5.000000000000000000e+00,9.000000000000000000e+00
2.180600000000000000e+04,-2.799999999999999755e-04,-8.000000000000000654e-05,-1.000000000000000082e-05,8.000000000000000654e-05,1.000000000000000082e-05,2.000000000000000164e-05,-5.000000000000000240e-05,-5.000000000000000240e-05,5.000000000000000000e+00,9.000000000000000000e+00
2.180700000000000000e+04,-2.799999999999999755e-04,-8.000000000000000654e-05,-1.000000000000000082e-05,8.000000000000000654e-05,1.000000000000000082e-05,2.000000000000000164e-05,-5.000000000000000240e-05,-5.000000000000000240e-05,5.000000000000000000e+00,9.000000000000000000e+00
2.180800000000000000e+04,-2.799999999999999755e-04,-8.000000000000000654e-05,-1.000000000000000082e-05,8.000000000000000654e-05,1.000000000000000082e-05,2.000000000000000164e-05,-5.000000000000000240e-05,-5.000000000000000240e-05,5.000000000000000000e+00,9.000000000000000000e+00
2.180900000000000000e+04,-2.799999999999999755e-04,-8.000000000000000654e-05,-1.000000000000000082e-05,8.000000000000000654e-05,1.000000000000000082e-05,2.000000000000000164e-05,-5.000000000000000240e-05,-5.000000000000000240e-05,5.000000000000000000e+00,9.000000000000000000e+00
2.181000000000000000e+04,-2.799999999999999755e-04,-8.000000000000000654e-05,-1.000000000000000082e-05,8.000000000000000654e-05,1.000000000000000082e-05,2.000000000000000164e-05,-5.000000000000000240e-05,-5.000000000000000240e-05,5.000000000000000000e+00,9.000000000000000000e+00
2.181100000000000000e+04,-2.799999999999999755e-04,-8.000000000000000654e-05,-1.000000000000000082e-05,8.000000000000000654e-05,1.000000000000000082e-05,2.000000000000000164e-05,-5.000000000000000240e-05,-5.000000000000000240e-05,5.000000000000000000e+00,9.000000000000000000e+00
2.181200000000000000e+04,-2.799999999999999755e-04,-8.000000000000000654e-05,-1.000000000000000082e-05,8.000000000000000654e-05,1.000000000000000082e-05,2.000000000000000164e-05,-5.000000000000000240e-05,-5.000000000000000240e-05,5.000000000000000000e+00,9.000000000000000000e+00
2.181300000000000000e+04,-2.799999999999999755e-04,-8.000000000000000654e-05,-1.000000000000000082e-05,8.000000000000000654e-05,1.000000000000000082e-05,2.000000000000000164e-05,-5.000000000000000240e-05,-5.000000000000000240e-05,5.000000000000000000e+00,9.000000000000000000e+00
2.181400000000000000e+04,-2.799999999999999755e-04,-8.000000000000000654e-05,-1.000000000000000082e-05,8.000000000000000654e-05,1.000000000000000082e-05,2.000000000000000164e-05,-5.000000000000000240e-05,-5.000000000000000240e-05,5.000000000000000000e+00,9.000000000000000000e+00
2.181500000000000000e+04,1.300000000000000157e-04,-2.500000000000000052e-04,5.999999999999999474e-05,1.399999999999999877e-04,0.000000000000000000e+00,6.999999999999999387e-05,6.999999999999999387e-05,1.499999999999999869e-04,5.000000000000000000e+00,9.000000000000000000e+00
2.181600000000000000e+04,-4.000000000000000327e-05,2.000000000000000164e-05,-5.000000000000000240e-05,-4.400000000000000157e-04,-1.000000000000000048e-04,-1.300000000000000157e-04,-2.000000000000000164e-05,1.000000000000000082e-05,5.000000000000000000e+00,9.000000000000000000e+00
2.181700000000000000e+04,2.999999999999999737e-05,1.100000000000000039e-04,4.000000000000000327e-05,2.600000000000000314e-04,2.000000000000000164e-05,-2.600000000000000314e-04,-5.999999999999999474e-05,-5.999999999999999474e-05,5.000000000000000000e+00,9.000000000000000000e+00
2.181800000000000000e+04,2.999999999999999737e-05,1.100000000000000039e-04,4.000000000000000327e-05,2.600000000000000314e-04,2.000000000000000164e-05,-2.600000000000000314e-04,-5.999999999999999474e-05,-5.999999999999999474e-05,5.000000000000000000e+00,9.000000000000000000e+00
2.181900000000000000e+04,2.999999999999999737e-05,1.100000000000000039e-04,4.000000000000000327e-05,2.600000000000000314e-04,2.000000000000000164e-05,-2.600000000000000314e-04,-5.999999999999999474e-05,-5.999999999999999474e-05,5.000000000000000000e+00,9.000000000000000000e+00
2.182000000000000000e+04,2.999999999999999737e-05,1.100000000000000039e-04,4.000000000000000327e-05,2.600000000000000314e-04,2.000000000000000164e-05,-2.600000000000000314e-04,-5.999999999999999474e-05,-5.999999999999999474e-05,5.000000000000000000e+00,9.000000000000000000e+00
2.182100000000000000e+04,2.999999999999999737e-05,1.100000000000000039e-04,4.000000000000000327e-05,2.600000000000000314e-04,2.000000000000000164e-05,-2.600000000000000314e-04,-5.999999999999999474e-05,-5.999999999999999474e-05,5.000000000000000000e+00,9.000000000000000000e+00
2.182200000000000000e+04,2.999999999999999737e-05,1.100000000000000039e-04,4.000000000000000327e-05,2.600000000000000314e-04,2.000000000000000164e-05,-2.600000000000000314e-04,-5.999999999999999474e-05,-5.999999999999999474e-05,5.000000000000000000e+00,9.000000000000000000e+00
2.182300000000000000e+04,2.999999999999999737e-05,1.100000000000000039e-04,4.000000000000000327e-05,2.600000000000000314e-04,2.000000000000000164e-05,-2.600000000000000314e-04,-5.999999999999999474e-05,-5.999999999999999474e-05,5.000000000000000000e+00,9.000000000000000000e+00
2.182400000000000000e+04,2.999999999999999737e-05,1.100000000000000039e-04,4.000000000000000327e-05,2.600000000000000314e-04,2.000000000000000164e-05,-2.600000000000000314e-04,-5.999999999999999474e-05,-5.999999999999999474e-05,5.000000000000000000e+00,9.000000000000000000e+00
2.182500000000000000e+04,2.999999999999999737e-05,1.100000000000000039e-04,4.000000000000000327e-05,2.600000000000000314e-04,2.000000000000000164e-05,-2.600000000000000314e-04,-5.999999999999999474e-05,-5.999999999999999474e-05,5.000000000000000000e+00,9.000000000000000000e+00
2.182600000000000000e+04,2.999999999999999737e-05,1.100000000000000039e-04,4.000000000000000327e-05,2.600000000000000314e-04,2.000000000000000164e-05,-2.600000000000000314e-04,-5.999999999999999474e-05,-5.999999999999999474e-05,5.000000000000000000e+00,9.000000000000000000e+00
2.182700000000000000e+04,2.999999999999999737e-05,1.100000000000000039e-04,4.000000000000000327e-05,2.600000000000000314e-04,2.000000000000000164e-05,-2.600000000000000314e-04,-5.999999999999999474e-05,-5.999999999999999474e-05,5.000000000000000000e+00,9.000000000000000000e+00
2.182800000000000000e+04,2.999999999999999737e-05,1.100000000000000039e-04,4.000000000000000327e-05,2.600000000000000314e-04,2.000000000000000164e-05,-2.600000000000000314e-04,-5.999999999999999474e-05,-5.999999999999999474e-05,5.000000000000000000e+00,9.000000000000000000e+00
2.182900000000000000e+04,2.999999999999999737e-05,1.100000000000000039e-04,4.000000000000000327e-05,2.600000000000000314e-04,2.000000000000000164e-05,-2.600000000000000314e-04,-5.999999999999999474e-05,-5.999999999999999474e-05,5.000000000000000000e+00,9.000000000000000000e+00
2.183000000000000000e+04,3.200000000000000262e-04,1.899999999999999834e-04,2.799999999999999755e-04,8.099999999999999561e-04,-1.300000000000000157e-04,1.499999999999999869e-04,8.000000000000000654e-05,5.999999999999999474e-05,5.000000000000000000e+00,9.000000000000000000e+00
2.183100000000000000e+04,3.200000000000000262e-04,1.899999999999999834e-04,2.799999999999999755e-04,8.099999999999999561e-04,-1.300000000000000157e-04,1.499999999999999869e-04,8.000000000000000654e-05,5.999999999999999474e-05,5.000000000000000000e+00,9.000000000000000000e+00
2.183200000000000000e+04,1.600000000000000131e-04,2.999999999999999737e-05,1.800000000000000113e-04,1.199999999999999895e-04,4.000000000000000327e-05,-2.000000000000000096e-04,-2.000000000000000164e-05,2.999999999999999737e-05,5.000000000000000000e+00,9.000000000000000000e+00
2.183300000000000000e+04,1.600000000000000131e-04,2.999999999999999737e-05,1.800000000000000113e-04,1.199999999999999895e-04,4.000000000000000327e-05,-2.000000000000000096e-04,-2.000000000000000164e-05,2.999999999999999737e-05,5.000000000000000000e+00,9.000000000000000000e+00
2.183400000000000000e+04,1.600000000000000131e-04,2.999999999999999737e-05,1.800000000000000113e-04,1.199999999999999895e-04,4.000000000000000327e-05,-2.000000000000000096e-04,-2.000000000000000164e-05,2.999999999999999737e-05,5.000000000000000000e+00,9.000000000000000000e+00
2.183500000000000000e+04,1.600000000000000131e-04,2.999999999999999737e-05,1.800000000000000113e-04,1.199999999999999895e-04,4.000000000000000327e-05,-2.000000000000000096e-04,-2.000000000000000164e-05,2.999999999999999737e-05,5.000000000000000000e+00,9.000000000000000000e+00
2.183600000000000000e+04,1.600000000000000131e-04,2.999999999999999737e-05,1.800000000000000113e-04,1.199999999999999895e-04,4.000000000000000327e-05,-2.000000000000000096e-04,-2.000000000000000164e-05,2.999999999999999737e-05,5.000000000000000000e+00,9.000000000000000000e+00
2.183800000000000000e+04,1.600000000000000131e-04,2.999999999999999737e-05,1.800000000000000113e-04,1.199999999999999895e-04,4.000000000000000327e-05,-2.000000000000000096e-04,-2.000000000000000164e-05,2.999999999999999737e-05,5.000000000000000000e+00,9.000000000000000000e+00
2.183900000000000000e+04,1.600000000000000131e-04,2.999999999999999737e-05,1.800000000000000113e-04,1.199999999999999895e-04,4.000000000000000327e-05,-2.000000000000000096e-04,-2.000000000000000164e-05,2.999999999999999737e-05,5.000000000000000000e+00,9.000000000000000000e+00
2.184000000000000000e+04,1.600000000000000131e-04,2.999999999999999737e-05,1.800000000000000113e-04,1.199999999999999895e-04,4.000000000000000327e-05,-2.000000000000000096e-04,-2.000000000000000164e-05,2.999999999999999737e-05,5.000000000000000000e+00,9.000000000000000000e+00
2.184100000000000000e+04,1.600000000000000131e-04,2.999999999999999737e-05,1.800000000000000113e-04,1.199999999999999895e-04,4.000000000000000327e-05,-2.000000000000000096e-04,-2.000000000000000164e-05,2.999999999999999737e-05,5.000000000000000000e+00,9.000000000000000000e+00
2.184200000000000000e+04,1.600000000000000131e-04,2.999999999999999737e-05,1.800000000000000113e-04,1.199999999999999895e-04,4.000000000000000327e-05,-2.000000000000000096e-04,-2.000000000000000164e-05,2.999999999999999737e-05,5.000000000000000000e+00,9.000000000000000000e+00
2.184300000000000000e+04,1.600000000000000131e-04,2.999999999999999737e-05,1.800000000000000113e-04,1.199999999999999895e-04,4.000000000000000327e-05,-2.000000000000000096e-04,-2.000000000000000164e-05,2.999999999999999737e-05,5.000000000000000000e+00,9.000000000000000000e+00
2.184400000000000000e+04,1.600000000000000131e-04,2.999999999999999737e-05,1.800000000000000113e-04,1.199999999999999895e-04,4.000000000000000327e-05,-2.000000000000000096e-04,-2.000000000000000164e-05,2.999999999999999737e-05,5.000000000000000000e+00,9.000000000000000000e+00
2.184500000000000000e+04,1.600000000000000131e-04,2.999999999999999737e-05,1.800000000000000113e-04,1.199999999999999895e-04,4.000000000000000327e-05,-2.000000000000000096e-04,-2.000000000000000164e-05,2.999999999999999737e-05,5.000000000000000000e+00,9.000000000000000000e+00
2.184600000000000000e+04,1.600000000000000131e-04,2.999999999999999737e-05,1.800000000000000113e-04,1.199999999999999895e-04,4.000000000000000327e-05,-2.000000000000000096e-04,-2.000000000000000164e-05,2.999999999999999737e-05,5.000000000000000000e+00,9.000000000000000000e+00
2.184700000000000000e+04,1.600000000000000131e-04,2.999999999999999737e-05,1.800000000000000113e-04,1.199999999999999895e-04,4.000000000000000327e-05,-2.000000000000000096e-04,-2.000000000000000164e-05,2.999999999999999737e-05,5.000000000000000000e+00,9.000000000000000000e+00
2.184800000000000000e+04,1.600000000000000131e-04,2.999999999999999737e-05,1.800000000000000113e-04,1.199999999999999895e-04,4.000000000000000327e-05,-2.000000000000000096e-04,-2.000000000000000164e-05,2.999999999999999737e-05,5.000000000000000000e+00,9.000000000000000000e+00
2.184900000000000000e+04,1.600000000000000131e-04,2.999999999999999737e-05,1.800000000000000113e-04,1.199999999999999895e-04,4.000000000000000327e-05,-2.000000000000000096e-04,-2.000000000000000164e-05,2.999999999999999737e-05,5.000000000000000000e+00,9.000000000000000000e+00
2.185000000000000000e+04,1.600000000000000131e-04,2.999999999999999737e-05,1.800000000000000113e-04,1.199999999999999895e-04,4.000000000000000327e-05,-2.000000000000000096e-04,-2.000000000000000164e-05,2.999999999999999737e-05,5.000000000000000000e+00,9.000000000000000000e+00
2.185100000000000000e+04,1.600000000000000131e-04,2.999999999999999737e-05,1.800000000000000113e-04,1.199999999999999895e-04,4.000000000000000327e-05,-2.000000000000000096e-04,-2.000000000000000164e-05,2.999999999999999737e-05,5.000000000000000000e+00,9.000000000000000000e+00
2.185200000000000000e+04,-1.000000000000000082e-05,-5.999999999999999474e-05,-2.299999999999999799e-04,-3.699999999999999947e-04,-1.000000000000000082e-05,1.300000000000000157e-04,5.999999999999999474e-05,6.999999999999999387e-05,5.000000000000000000e+00,9.000000000000000000e+00
2.185300000000000000e+04,4.000000000000000327e-05,1.000000000000000082e-05,0.000000000000000000e+00,4.799999999999999580e-04,-8.000000000000000654e-05,-1.499999999999999869e-04,2.999999999999999737e-05,-1.000000000000000082e-05,5.000000000000000000e+00,9.000000000000000000e+00
2.185400000000000000e+04,-9.000000000000000567e-05,2.000000000000000164e-05,0.000000000000000000e+00,-1.699999999999999851e-04,5.000000000000000240e-05,-8.000000000000000654e-05,-5.999999999999999474e-05,-4.000000000000000327e-05,5.000000000000000000e+00,9.000000000000000000e+00
2.185500000000000000e+04,-9.000000000000000567e-05,2.000000000000000164e-05,0.000000000000000000e+00,-1.699999999999999851e-04,5.000000000000000240e-05,-8.000000000000000654e-05,-5.999999999999999474e-05,-4.000000000000000327e-05,5.000000000000000000e+00,9.000000000000000000e+00
2.185600000000000000e+04,-9.000000000000000567e-05,2.000000000000000164e-05,0.000000000000000000e+00,-1.699999999999999851e-04,5.000000000000000240e-05,-8.000000000000000654e-05,-5.999999999999999474e-05,-4.000000000000000327e-05,5.000000000000000000e+00,9.000000000000000000e+00
2.185700000000000000e+04,-9.000000000000000567e-05,2.000000000000000164e-05,0.000000000000000000e+00,-1.699999999999999851e-04,5.000000000000000240e-05,-8.000000000000000654e-05,-5.999999999999999474e-05,-4.000000000000000327e-05,5.000000000000000000e+00,9.000000000000000000e+00
2.185800000000000000e+04,-9.000000000000000567e-05,2.000000000000000164e-05,0.000000000000000000e+00,-1.699999999999999851e-04,5.000000000000000240e-05,-8.000000000000000654e-05,-5.999999999999999474e-05,-4.000000000000000327e-05,5.000000000000000000e+00,9.000000000000000000e+00
2.185900000000000000e+04,-9.000000000000000567e-05,2.000000000000000164e-05,0.000000000000000000e+00,-1.699999999999999851e-04,5.000000000000000240e-05,-8.000000000000000654e-05,-5.999999999999999474e-05,-4.000000000000000327e-05,5.000000000000000000e+00,9.000000000000000000e+00
2.186000000000000000e+04,-9.000000000000000567e-05,2.000000000000000164e-05,0.000000000000000000e+00,-1.699999999999999851e-04,5.000000000000000240e-05,-8.000000000000000654e-05,-5.999999999999999474e-05,-4.000000000000000327e-05,5.000000000000000000e+00,9.000000000000000000e+00
2.186100000000000000e+04,-9.000000000000000567e-05,2.000000000000000164e-05,0.000000000000000000e+00,-1.699999999999999851e-04,5.000000000000000240e-05,-8.000000000000000654e-05,-5.999999999999999474e-05,-4.000000000000000327e-05,5.000000000000000000e+00,9.000000000000000000e+00
2.186200000000000000e+04,-9.000000000000000567e-05,2.000000000000000164e-05,0.000000000000000000e+00,-1.699999999999999851e-04,5.000000000000000240e-05,-8.000000000000000654e-05,-5.999999999999999474e-05,-4.000000000000000327e-05,5.000000000000000000e+00,9.000000000000000000e+00
2.186300000000000000e+04,-9.000000000000000567e-05,2.000000000000000164e-05,0.000000000000000000e+00,-1.699999999999999851e-04,5.000000000000000240e-05,-8.000000000000000654e-05,-5.999999999999999474e-05,-4.000000000000000327e-05,5.000000000000000000e+00,9.000000000000000000e+00
2.186400000000000000e+04,-9.000000000000000567e-05,2.000000000000000164e-05,0.000000000000000000e+00,-1.699999999999999851e-04,5.000000000000000240e-05,-8.000000000000000654e-05,-5.999999999999999474e-05,-4.000000000000000327e-05,5.000000000000000000e+00,9.000000000000000000e+00
2.186500000000000000e+04,-9.000000000000000567e-05,2.000000000000000164e-05,0.000000000000000000e+00,-1.699999999999999851e-04,5.000000000000000240e-05,-8.000000000000000654e-05,-5.999999999999999474e-05,-4.000000000000000327e-05,5.000000000000000000e+00,9.000000000000000000e+00
2.186600000000000000e+04,-9.000000000000000567e-05,2.000000000000000164e-05,0.000000000000000000e+00,-1.699999999999999851e-04,5.000000000000000240e-05,-8.000000000000000654e-05,-5.999999999999999474e-05,-4.000000000000000327e-05,5.000000000000000000e+00,9.000000000000000000e+00
2.186700000000000000e+04,-9.000000000000000567e-05,2.000000000000000164e-05,0.000000000000000000e+00,-1.699999999999999851e-04,5.000000000000000240e-05,-8.000000000000000654e-05,-5.999999999999999474e-05,-4.000000000000000327e-05,5.000000000000000000e+00,9.000000000000000000e+00
2.186800000000000000e+04,-9.000000000000000567e-05,2.000000000000000164e-05,0.000000000000000000e+00,-1.699999999999999851e-04,5.000000000000000240e-05,-8.000000000000000654e-05,-5.999999999999999474e-05,-4.000000000000000327e-05,5.000000000000000000e+00,9.000000000000000000e+00
2.186900000000000000e+04,-9.000000000000000567e-05,2.000000000000000164e-05,0.000000000000000000e+00,-1.699999999999999851e-04,5.000000000000000240e-05,-8.000000000000000654e-05,-5.999999999999999474e-05,-4.000000000000000327e-05,5.000000000000000000e+00,9.000000000000000000e+00
2.187000000000000000e+04,-9.000000000000000567e-05,2.000000000000000164e-05,0.000000000000000000e+00,-1.699999999999999851e-04,5.000000000000000240e-05,-8.000000000000000654e-05,-5.999999999999999474e-05,-4.000000000000000327e-05,5.000000000000000000e+00,9.000000000000000000e+00
2.187100000000000000e+04,-9.000000000000000567e-05,2.000000000000000164e-05,0.000000000000000000e+00,-1.699999999999999851e-04,5.000000000000000240e-05,-8.000000000000000654e-05,-5.999999999999999474e-05,-4.000000000000000327e-05,5.000000000000000000e+00,9.000000000000000000e+00
2.187200000000000000e+04,-9.000000000000000567e-05,2.000000000000000164e-05,0.000000000000000000e+00,-1.699999999999999851e-04,5.000000000000000240e-05,-8.000000000000000654e-05,-5.999999999999999474e-05,-4.000000000000000327e-05,5.000000000000000000e+00,9.000000000000000000e+00
2.187300000000000000e+04,-9.000000000000000567e-05,2.000000000000000164e-05,0.000000000000000000e+00,-1.699999999999999851e-04,5.000000000000000240e-05,-8.000000000000000654e-05,-5.999999999999999474e-05,-4.000000000000000327e-05,5.000000000000000000e+00,9.000000000000000000e+00
2.187400000000000000e+04,-9.000000000000000567e-05,2.000000000000000164e-05,0.000000000000000000e+00,-1.699999999999999851e-04,5.000000000000000240e-05,-8.000000000000000654e-05,-5.999999999999999474e-05,-4.000000000000000327e-05,5.000000000000000000e+00,9.000000000000000000e+00
2.187500000000000000e+04,-4.000000000000000327e-05,-2.000000000000000164e-05,-1.899999999999999834e-04,-3.799999999999999667e-04,5.000000000000000240e-05,5.000000000000000240e-05,0.000000000000000000e+00,-1.000000000000000082e-05,5.000000000000000000e+00,9.000000000000000000e+00
2.187600000000000000e+04,-4.000000000000000327e-05,-2.000000000000000164e-05,-1.899999999999999834e-04,-3.799999999999999667e-04,5.000000000000000240e-05,5.000000000000000240e-05,0.000000000000000000e+00,-1.000000000000000082e-05,5.000000000000000000e+00,9.000000000000000000e+00
2.187700000000000000e+04,0.000000000000000000e+00,-2.000000000000000164e-05,-2.100000000000000087e-04,-6.999999999999999387e-05,-9.000000000000000567e-05,9.000000000000000567e-05,-1.000000000000000082e-05,1.000000000000000082e-05,5.000000000000000000e+00,9.000000000000000000e+00
2.187800000000000000e+04,0.000000000000000000e+00,-2.000000000000000164e-05,-2.100000000000000087e-04,-6.999999999999999387e-05,-9.000000000000000567e-05,9.000000000000000567e-05,-1.000000000000000082e-05,1.000000000000000082e-05,5.000000000000000000e+00,9.000000000000000000e+00
2.187900000000000000e+04,0.000000000000000000e+00,-2.000000000000000164e-05,-2.100000000000000087e-04,-6.999999999999999387e-05,-9.000000000000000567e-05,9.000000000000000567e-05,-1.000000000000000082e-05,1.000000000000000082e-05,5.000000000000000000e+00,9.000000000000000000e+00
2.188000000000000000e+04,0.000000000000000000e+00,-2.000000000000000164e-05,-2.100000000000000087e-04,-6.999999999999999387e-05,-9.000000000000000567e-05,9.000000000000000567e-05,-1.000000000000000082e-05,1.000000000000000082e-05,5.000000000000000000e+00,9.000000000000000000e+00
2.188100000000000000e+04,0.000000000000000000e+00,-2.000000000000000164e-05,-2.100000000000000087e-04,-6.999999999999999387e-05,-9.000000000000000567e-05,9.000000000000000567e-05,-1.000000000000000082e-05,1.000000000000000082e-05,5.000000000000000000e+00,9.000000000000000000e+00
2.188200000000000000e+04,0.000000000000000000e+00,-2.000000000000000164e-05,-2.100000000000000087e-04,-6.999999999999999387e-05,-9.000000000000000567e-05,9.000000000000000567e-05,-1.000000000000000082e-05,1.000000000000000082e-05,5.000000000000000000e+00,9.000000000000000000e+00
2.188300000000000000e+04,0.000000000000000000e+00,-2.000000000000000164e-05,-2.100000000000000087e-04,-6.999999999999999387e-05,-9.000000000000000567e-05,9.000000000000000567e-05,-1.000000000000000082e-05,1.000000000000000082e-05,5.000000000000000000e+00,9.000000000000000000e+00
2.188400000000000000e+04,0.000000000000000000e+00,-2.000000000000000164e-05,-2.100000000000000087e-04,-6.999999999999999387e-05,-9.000000000000000567e-05,9.000000000000000567e-05,-1.000000000000000082e-05,1.000000000000000082e-05,5.000000000000000000e+00,9.000000000000000000e+00
2.188500000000000000e+04,0.000000000000000000e+00,-2.000000000000000164e-05,-2.100000000000000087e-04,-6.999999999999999387e-05,-9.000000000000000567e-05,9.000000000000000567e-05,-1.000000000000000082e-05,1.000000000000000082e-05,5.000000000000000000e+00,9.000000000000000000e+00
2.188600000000000000e+04,0.000000000000000000e+00,-2.000000000000000164e-05,-2.100000000000000087e-04,-6.999999999999999387e-05,-9.000000000000000567e-05,9.000000000000000567e-05,-1.000000000000000082e-05,1.000000000000000082e-05,5.000000000000000000e+00,9.000000000000000000e+00
2.188800000000000000e+04,0.000000000000000000e+00,-2.000000000000000164e-05,-2.100000000000000087e-04,-6.999999999999999387e-05,-9.000000000000000567e-05,9.000000000000000567e-05,-1.000000000000000082e-05,1.000000000000000082e-05,5.000000000000000000e+00,9.000000000000000000e+00
2.188900000000000000e+04,0.000000000000000000e+00,-2.000000000000000164e-05,-2.100000000000000087e-04,-6.999999999999999387e-05,-9.000000000000000567e-05,9.000000000000000567e-05,-1.000000000000000082e-05,1.000000000000000082e-05,5.000000000000000000e+00,9.000000000000000000e+00
2.189000000000000000e+04,2.000000000000000164e-05,-5.999999999999999474e-05,-6.999999999999999387e-05,-3.600000000000000227e-04,-6.999999999999999387e-05,4.000000000000000327e-05,2.999999999999999737e-05,-2.000000000000000164e-05,5.000000000000000000e+00,9.000000000000000000e+00
2.189100000000000000e+04,2.000000000000000164e-05,-5.999999999999999474e-05,-6.999999999999999387e-05,-3.600000000000000227e-04,-6.999999999999999387e-05,4.000000000000000327e-05,2.999999999999999737e-05,-2.000000000000000164e-05,5.000000000000000000e+00,9.000000000000000000e+00
2.189200000000000000e+04,4.000000000000000327e-05,-5.999999999999999474e-05,-2.000000000000000164e-05,1.800000000000000113e-04,1.000000000000000082e-05,-1.300000000000000157e-04,-1.000000000000000082e-05,2.999999999999999737e-05,5.000000000000000000e+00,9.000000000000000000e+00
2.189300000000000000e+04,-4.599999999999999597e-04,-8.000000000000000654e-05,-6.999999999999999387e-05,-1.899999999999999834e-04,2.000000000000000164e-05,1.000000000000000082e-05,1.000000000000000082e-05,-2.999999999999999737e-05,5.000000000000000000e+00,9.000000000000000000e+00
2.189400000000000000e+04,-4.599999999999999597e-04,-8.000000000000000654e-05,-6.999999999999999387e-05,-1.899999999999999834e-04,2.000000000000000164e-05,1.000000000000000082e-05,1.000000000000000082e-05,-2.999999999999999737e-05,5.000000000000000000e+00,9.000000000000000000e+00
2.189500000000000000e+04,-4.599999999999999597e-04,-8.000000000000000654e-05,-6.999999999999999387e-05,-1.899999999999999834e-04,2.000000000000000164e-05,1.000000000000000082e-05,1.000000000000000082e-05,-2.999999999999999737e-05,5.000000000000000000e+00,9.000000000000000000e+00
2.189600000000000000e+04,-4.599999999999999597e-04,-8.000000000000000654e-05,-6.999999999999999387e-05,-1.899999999999999834e-04,2.000000000000000164e-05,1.000000000000000082e-05,1.000000000000000082e-05,-2.999999999999999737e-05,5.000000000000000000e+00,9.000000000000000000e+00
2.189700000000000000e+04,-4.599999999999999597e-04,-8.000000000000000654e-05,-6.999999999999999387e-05,-1.899999999999999834e-04,2.000000000000000164e-05,1.000000000000000082e-05,1.000000000000000082e-05,-2.999999999999999737e-05,5.000000000000000000e+00,9.000000000000000000e+00
2.189800000000000000e+04,-4.599999999999999597e-04,-8.000000000000000654e-05,-6.999999999999999387e-05,-1.899999999999999834e-04,2.000000000000000164e-05,1.000000000000000082e-05,1.000000000000000082e-05,-2.999999999999999737e-05,5.000000000000000000e+00,9.000000000000000000e+00
2.189900000000000000e+04,-4.599999999999999597e-04,-8.000000000000000654e-05,-6.999999999999999387e-05,-1.899999999999999834e-04,2.000000000000000164e-05,1.000000000000000082e-05,1.000000000000000082e-05,-2.999999999999999737e-05,5.000000000000000000e+00,9.000000000000000000e+00
2.190000000000000000e+04,-4.599999999999999597e-04,-8.000000000000000654e-05,-6.999999999999999387e-05,-1.899999999999999834e-04,2.000000000000000164e-05,1.000000000000000082e-05,1.000000000000000082e-05,-2.999999999999999737e-05,5.000000000000000000e+00,9.000000000000000000e+00
2.190100000000000000e+04,-4.599999999999999597e-04,-8.000000000000000654e-05,-6.999999999999999387e-05,-1.899999999999999834e-04,2.000000000000000164e-05,1.000000000000000082e-05,1.000000000000000082e-05,-2.999999999999999737e-05,5.000000000000000000e+00,9.000000000000000000e+00
2.190200000000000000e+04,-4.599999999999999597e-04,-8.000000000000000654e-05,-6.999999999999999387e-05,-1.899999999999999834e-04,2.000000000000000164e-05,1.000000000000000082e-05,1.000000000000000082e-05,-2.999999999999999737e-05,5.000000000000000000e+00,9.000000000000000000e+00
2.190300000000000000e+04,-4.599999999999999597e-04,-8.000000000000000654e-05,-6.999999999999999387e-05,-1.899999999999999834e-04,2.000000000000000164e-05,1.000000000000000082e-05,1.000000000000000082e-05,-2.999999999999999737e-05,5.000000000000000000e+00,9.000000000000000000e+00
2.190400000000000000e+04,-4.599999999999999597e-04,-8.000000000000000654e-05,-6.999999999999999387e-05,-1.899999999999999834e-04,2.000000000000000164e-05,1.000000000000000082e-05,1.000000000000000082e-05,-2.999999999999999737e-05,5.000000000000000000e+00,9.000000000000000000e+00
2.190500000000000000e+04,-4.599999999999999597e-04,-8.000000000000000654e-05,-6.999999999999999387e-05,-1.899999999999999834e-04,2.000000000000000164e-05,1.000000000000000082e-05,1.000000000000000082e-05,-2.999999999999999737e-05,5.000000000000000000e+00,9.000000000000000000e+00
2.190600000000000000e+04,-4.599999999999999597e-04,-8.000000000000000654e-05,-6.999999999999999387e-05,-1.899999999999999834e-04,2.000000000000000164e-05,1.000000000000000082e-05,1.000000000000000082e-05,-2.999999999999999737e-05,5.000000000000000000e+00,9.000000000000000000e+00
2.190700000000000000e+04,-4.599999999999999597e-04,-8.000000000000000654e-05,-6.999999999999999387e-05,-1.899999999999999834e-04,2.000000000000000164e-05,1.000000000000000082e-05,1.000000000000000082e-05,-2.999999999999999737e-05,5.000000000000000000e+00,9.000000000000000000e+00
2.190800000000000000e+04,-4.599999999999999597e-04,-8.000000000000000654e-05,-6.999999999999999387e-05,-1.899999999999999834e-04,2.000000000000000164e-05,1.000000000000000082e-05,1.000000000000000082e-05,-2.999999999999999737e-05,5.000000000000000000e+00,9.000000000000000000e+00
2.190900000000000000e+04,-4.599999999999999597e-04,-8.000000000000000654e-05,-6.999999999999999387e-05,-1.899999999999999834e-04,2.000000000000000164e-05,1.000000000000000082e-05,1.000000000000000082e-05,-2.999999999999999737e-05,5.000000000000000000e+00,9.000000000000000000e+00
2.191000000000000000e+04,-4.599999999999999597e-04,-8.000000000000000654e-05,-6.999999999999999387e-05,-1.899999999999999834e-04,2.000000000000000164e-05,1.000000000000000082e-05,1.000000000000000082e-05,-2.999999999999999737e-05,5.000000000000000000e+00,9.000000000000000000e+00
2.191100000000000000e+04,-4.599999999999999597e-04,-8.000000000000000654e-05,-6.999999999999999387e-05,-1.899999999999999834e-04,2.000000000000000164e-05,1.000000000000000082e-05,1.000000000000000082e-05,-2.999999999999999737e-05,5.000000000000000000e+00,9.000000000000000000e+00
2.191200000000000000e+04,1.499999999999999869e-04,8.000000000000000654e-05,-2.000000000000000164e-05,3.799999999999999667e-04,-9.000000000000000567e-05,4.799999999999999580e-04,-2.000000000000000164e-05,1.000000000000000082e-05,5.000000000000000000e+00,9.000000000000000000e+00
2.191300000000000000e+04,-1.899999999999999834e-04,-5.000000000000000240e-05,4.000000000000000327e-05,0.000000000000000000e+00,0.000000000000000000e+00,1.199999999999999895e-04,2.000000000000000164e-05,-1.000000000000000082e-05,5.000000000000000000e+00,9.000000000000000000e+00
2.191400000000000000e+04,1.600000000000000131e-04,2.000000000000000164e-05,9.000000000000000567e-05,3.600000000000000227e-04,-2.999999999999999737e-05,1.100000000000000039e-04,-1.000000000000000082e-05,9.000000000000000567e-05,5.000000000000000000e+00,9.000000000000000000e+00
2.191500000000000000e+04,1.600000000000000131e-04,2.000000000000000164e-05,9.000000000000000567e-05,3.600000000000000227e-04,-2.999999999999999737e-05,1.100000000000000039e-04,-1.000000000000000082e-05,9.000000000000000567e-05,5.000000000000000000e+00,9.000000000000000000e+00
2.191600000000000000e+04,1.600000000000000131e-04,2.000000000000000164e-05,9.000000000000000567e-05,3.600000000000000227e-04,-2.999999999999999737e-05,1.100000000000000039e-04,-1.000000000000000082e-05,9.000000000000000567e-05,5.000000000000000000e+00,9.000000000000000000e+00
2.191700000000000000e+04,1.600000000000000131e-04,2.000000000000000164e-05,9.000000000000000567e-05,3.600000000000000227e-04,-2.999999999999999737e-05,1.100000000000000039e-04,-1.000000000000000082e-05,9.000000000000000567e-05,5.000000000000000000e+00,9.000000000000000000e+00
2.191800000000000000e+04,1.600000000000000131e-04,2.000000000000000164e-05,9.000000000000000567e-05,3.600000000000000227e-04,-2.999999999999999737e-05,1.100000000000000039e-04,-1.000000000000000082e-05,9.000000000000000567e-05,5.000000000000000000e+00,9.000000000000000000e+00
2.191900000000000000e+04,1.600000000000000131e-04,2.000000000000000164e-05,9.000000000000000567e-05,3.600000000000000227e-04,-2.999999999999999737e-05,1.100000000000000039e-04,-1.000000000000000082e-05,9.000000000000000567e-05,5.000000000000000000e+00,9.000000000000000000e+00
2.192000000000000000e+04,1.600000000000000131e-04,2.000000000000000164e-05,9.000000000000000567e-05,3.600000000000000227e-04,-2.999999999999999737e-05,1.100000000000000039e-04,-1.000000000000000082e-05,9.000000000000000567e-05,5.000000000000000000e+00,9.000000000000000000e+00
2.192100000000000000e+04,1.600000000000000131e-04,2.000000000000000164e-05,9.000000000000000567e-05,3.600000000000000227e-04,-2.999999999999999737e-05,1.100000000000000039e-04,-1.000000000000000082e-05,9.000000000000000567e-05,5.000000000000000000e+00,9.000000000000000000e+00
2.192200000000000000e+04,1.600000000000000131e-04,2.000000000000000164e-05,9.000000000000000567e-05,3.600000000000000227e-04,-2.999999999999999737e-05,1.100000000000000039e-04,-1.000000000000000082e-05,9.000000000000000567e-05,5.000000000000000000e+00,9.000000000000000000e+00
2.192300000000000000e+04,1.600000000000000131e-04,2.000000000000000164e-05,9.000000000000000567e-05,3.600000000000000227e-04,-2.999999999999999737e-05,1.100000000000000039e-04,-1.000000000000000082e-05,9.000000000000000567e-05,5.000000000000000000e+00,9.000000000000000000e+00
2.192400000000000000e+04,1.600000000000000131e-04,2.000000000000000164e-05,9.000000000000000567e-05,3.600000000000000227e-04,-2.999999999999999737e-05,1.100000000000000039e-04,-1.000000000000000082e-05,9.000000000000000567e-05,5.000000000000000000e+00,9.000000000000000000e+00
2.192500000000000000e+04,1.600000000000000131e-04,2.000000000000000164e-05,9.000000000000000567e-05,3.600000000000000227e-04,-2.999999999999999737e-05,1.100000000000000039e-04,-1.000000000000000082e-05,9.000000000000000567e-05,5.000000000000000000e+00,9.000000000000000000e+00
2.192600000000000000e+04,1.600000000000000131e-04,2.000000000000000164e-05,9.000000000000000567e-05,3.600000000000000227e-04,-2.999999999999999737e-05,1.100000000000000039e-04,-1.000000000000000082e-05,9.000000000000000567e-05,5.000000000000000000e+00,9.000000000000000000e+00
2.192700000000000000e+04,-2.000000000000000164e-05,1.100000000000000039e-04,-2.999999999999999737e-05,-4.200000000000000174e-04,-4.000000000000000327e-05,5.999999999999999474e-05,2.999999999999999737e-05,2.999999999999999737e-05,5.000000000000000000e+00,9.000000000000000000e+00
2.192800000000000000e+04,-2.000000000000000164e-05,1.100000000000000039e-04,-2.999999999999999737e-05,-4.200000000000000174e-04,-4.000000000000000327e-05,5.999999999999999474e-05,2.999999999999999737e-05,2.999999999999999737e-05,5.000000000000000000e+00,9.000000000000000000e+00
2.192900000000000000e+04,-2.000000000000000164e-05,1.100000000000000039e-04,-2.999999999999999737e-05,-4.200000000000000174e-04,-4.000000000000000327e-05,5.999999999999999474e-05,2.999999999999999737e-05,2.999999999999999737e-05,5.000000000000000000e+00,9.000000000000000000e+00
2.193000000000000000e+04,-2.000000000000000164e-05,1.100000000000000039e-04,-2.999999999999999737e-05,-4.200000000000000174e-04,-4.000000000000000327e-05,5.999999999999999474e-05,2.999999999999999737e-05,2.999999999999999737e-05,5.000000000000000000e+00,9.000000000000000000e+00
2.193100000000000000e+04,-2.000000000000000164e-05,1.100000000000000039e-04,-2.999999999999999737e-05,-4.200000000000000174e-04,-4.000000000000000327e-05,5.999999999999999474e-05,2.999999999999999737e-05,2.999999999999999737e-05,5.000000000000000000e+00,9.000000000000000000e+00
2.193200000000000000e+04,-2.000000000000000164e-05,1.100000000000000039e-04,-2.999999999999999737e-05,-4.200000000000000174e-04,-4.000000000000000327e-05,5.999999999999999474e-05,2.999999999999999737e-05,2.999999999999999737e-05,5.000000000000000000e+00,9.000000000000000000e+00
2.193300000000000000e+04,-2.000000000000000164e-05,1.100000000000000039e-04,-2.999999999999999737e-05,-4.200000000000000174e-04,-4.000000000000000327e-05,5.999999999999999474e-05,2.999999999999999737e-05,2.999999999999999737e-05,5.000000000000000000e+00,9.000000000000000000e+00
2.193400000000000000e+04,4.000000000000000327e-05,-1.000000000000000082e-05,6.999999999999999387e-05,2.600000000000000314e-04,-4.000000000000000327e-05,-8.000000000000000654e-05,-1.000000000000000082e-05,-2.000000000000000164e-05,5.000000000000000000e+00,9.000000000000000000e+00
2.193500000000000000e+04,4.000000000000000327e-05,-1.000000000000000082e-05,6.999999999999999387e-05,2.600000000000000314e-04,-4.000000000000000327e-05,-8.000000000000000654e-05,-1.000000000000000082e-05,-2.000000000000000164e-05,5.000000000000000000e+00,9.000000000000000000e+00
2.193600000000000000e+04,4.000000000000000327e-05,-1.000000000000000082e-05,6.999999999999999387e-05,2.600000000000000314e-04,-4.000000000000000327e-05,-8.000000000000000654e-05,-1.000000000000000082e-05,-2.000000000000000164e-05,5.000000000000000000e+00,9.000000000000000000e+00
2.193800000000000000e+04,4.000000000000000327e-05,-1.000000000000000082e-05,6.999999999999999387e-05,2.600000000000000314e-04,-4.000000000000000327e-05,-8.000000000000000654e-05,-1.000000000000000082e-05,-2.000000000000000164e-05,5.000000000000000000e+00,9.000000000000000000e+00
2.193900000000000000e+04,4.000000000000000327e-05,-1.000000000000000082e-05,6.999999999999999387e-05,2.600000000000000314e-04,-4.000000000000000327e-05,-8.000000000000000654e-05,-1.000000000000000082e-05,-2.000000000000000164e-05,5.000000000000000000e+00,9.000000000000000000e+00
2.194000000000000000e+04,4.000000000000000327e-05,-1.000000000000000082e-05,6.999999999999999387e-05,2.600000000000000314e-04,-4.000000000000000327e-05,-8.000000000000000654e-05,-1.000000000000000082e-05,-2.000000000000000164e-05,5.000000000000000000e+00,9.000000000000000000e+00
2.194100000000000000e+04,4.000000000000000327e-05,-1.000000000000000082e-05,6.999999999999999387e-05,2.600000000000000314e-04,-4.000000000000000327e-05,-8.000000000000000654e-05,-1.000000000000000082e-05,-2.000000000000000164e-05,5.000000000000000000e+00,9.000000000000000000e+00
2.194200000000000000e+04,4.000000000000000327e-05,-1.000000000000000082e-05,6.999999999999999387e-05,2.600000000000000314e-04,-4.000000000000000327e-05,-8.000000000000000654e-05,-1.000000000000000082e-05,-2.000000000000000164e-05,5.000000000000000000e+00,9.000000000000000000e+00
