4.139000000000000000e+04,0.000000000000000000e+00,2.000000000000000164e-05,2.999999999999999737e-05,1.899999999999999834e-04,2.000000000000000164e-05,-4.000000000000000327e-05,-2.000000000000000164e-05,-2.000000000000000164e-05,3.000000000000000000e+00,1.700000000000000000e+01
4.139100000000000000e+04,0.000000000000000000e+00,2.000000000000000164e-05,2.999999999999999737e-05,1.899999999999999834e-04,2.000000000000000164e-05,-4.000000000000000327e-05,-2.000000000000000164e-05,-2.000000000000000164e-05,3.000000000000000000e+00,1.700000000000000000e+01
4.139200000000000000e+04,0.000000000000000000e+00,2.000000000000000164e-05,2.999999999999999737e-05,1.899999999999999834e-04,2.000000000000000164e-05,-4.000000000000000327e-05,-2.000000000000000164e-05,-2.000000000000000164e-05,3.000000000000000000e+00,1.700000000000000000e+01
4.139300000000000000e+04,0.000000000000000000e+00,2.000000000000000164e-05,2.999999999999999737e-05,1.899999999999999834e-04,2.000000000000000164e-05,-4.000000000000000327e-05,-2.000000000000000164e-05,-2.000000000000000164e-05,3.000000000000000000e+00,1.700000000000000000e+01
4.139400000000000000e+04,0.000000000000000000e+00,2.000000000000000164e-05,2.999999999999999737e-05,1.899999999999999834e-04,2.000000000000000164e-05,-4.000000000000000327e-05,-2.000000000000000164e-05,-2.000000000000000164e-05,3.000000000000000000e+00,1.700000000000000000e+01
4.139500000000000000e+04,0.000000000000000000e+00,2.000000000000000164e-05,2.999999999999999737e-05,1.899999999999999834e-04,2.000000000000000164e-05,-4.000000000000000327e-05,-2.000000000000000164e-05,-2.000000000000000164e-05,3.000000000000000000e+00,1.700000000000000000e+01
4.139600000000000000e+04,0.000000000000000000e+00,2.000000000000000164e-05,2.999999999999999737e-05,1.899999999999999834e-04,2.000000000000000164e-05,-4.000000000000000327e-05,-2.000000000000000164e-05,-2.000000000000000164e-05,3.000000000000000000e+00,1.700000000000000000e+01
4.139700000000000000e+04,0.000000000000000000e+00,2.000000000000000164e-05,2.999999999999999737e-05,1.899999999999999834e-04,2.000000000000000164e-05,-4.000000000000000327e-05,-2.000000000000000164e-05,-2.000000000000000164e-05,3.000000000000000000e+00,1.700000000000000000e+01
4.139800000000000000e+04,0.000000000000000000e+00,2.000000000000000164e-05,2.999999999999999737e-05,1.899999999999999834e-04,2.000000000000000164e-05,-4.000000000000000327e-05,-2.000000000000000164e-05,-2.000000000000000164e-05,3.000000000000000000e+00,1.700000000000000000e+01
4.139900000000000000e+04,0.000000000000000000e+00,2.000000000000000164e-05,2.999999999999999737e-05,1.899999999999999834e-04,2.000000000000000164e-05,-4.000000000000000327e-05,-2.000000000000000164e-05,-2.000000000000000164e-05,3.000000000000000000e+00,1.700000000000000000e+01
4.140000000000000000e+04,0.000000000000000000e+00,2.000000000000000164e-05,2.999999999999999737e-05,1.899999999999999834e-04,2.000000000000000164e-05,-4.000000000000000327e-05,-2.000000000000000164e-05,-2.000000000000000164e-05,3.000000000000000000e+00,1.700000000000000000e+01
4.140100000000000000e+04,1.000000000000000082e-05,-2.000000000000000164e-05,-1.000000000000000082e-05,5.999999999999999474e-05,2.000000000000000164e-05,-2.999999999999999737e-05,0.000000000000000000e+00,0.000000000000000000e+00,3.000000000000000000e+00,1.700000000000000000e+01
4.140200000000000000e+04,1.000000000000000082e-05,-2.000000000000000164e-05,-1.000000000000000082e-05,5.999999999999999474e-05,2.000000000000000164e-05,-2.999999999999999737e-05,0.000000000000000000e+00,0.000000000000000000e+00,3.000000000000000000e+00,1.700000000000000000e+01
4.140300000000000000e+04,-1.000000000000000082e-05,-1.000000000000000082e-05,-2.999999999999999737e-05,-4.000000000000000327e-05,0.000000000000000000e+00,1.000000000000000048e-04,-1.000000000000000082e-05,-2.000000000000000164e-05,3.000000000000000000e+00,1.700000000000000000e+01
4.140400000000000000e+04,-1.000000000000000082e-05,-1.000000000000000082e-05,-2.999999999999999737e-05,-4.000000000000000327e-05,0.000000000000000000e+00,1.000000000000000048e-04,-1.000000000000000082e-05,-2.000000000000000164e-05,3.000000000000000000e+00,1.700000000000000000e+01
4.140500000000000000e+04,-1.000000000000000082e-05,-1.000000000000000082e-05,-2.999999999999999737e-05,-4.000000000000000327e-05,0.000000000000000000e+00,1.000000000000000048e-04,-1.000000000000000082e-05,-2.000000000000000164e-05,3.000000000000000000e+00,1.700000000000000000e+01
4.140600000000000000e+04,-1.000000000000000082e-05,-1.000000000000000082e-05,-2.999999999999999737e-05,-4.000000000000000327e-05,0.000000000000000000e+00,1.000000000000000048e-04,-1.000000000000000082e-05,-2.000000000000000164e-05,3.000000000000000000e+00,1.700000000000000000e+01
4.140700000000000000e+04,-1.000000000000000082e-05,-1.000000000000000082e-05,-2.999999999999999737e-05,-4.000000000000000327e-05,0.000000000000000000e+00,1.000000000000000048e-04,-1.000000000000000082e-05,-2.000000000000000164e-05,3.000000000000000000e+00,1.700000000000000000e+01
4.140800000000000000e+04,-1.000000000000000082e-05,-1.000000000000000082e-05,-2.999999999999999737e-05,-4.000000000000000327e-05,0.000000000000000000e+00,1.000000000000000048e-04,-1.000000000000000082e-05,-2.000000000000000164e-05,3.000000000000000000e+00,1.700000000000000000e+01
4.140900000000000000e+04,-1.000000000000000082e-05,-1.000000000000000082e-05,-2.999999999999999737e-05,-4.000000000000000327e-05,0.000000000000000000e+00,1.000000000000000048e-04,-1.000000000000000082e-05,-2.000000000000000164e-05,3.000000000000000000e+00,1.700000000000000000e+01
4.141000000000000000e+04,-1.000000000000000082e-05,-1.000000000000000082e-05,-2.999999999999999737e-05,-4.000000000000000327e-05,0.000000000000000000e+00,1.000000000000000048e-04,-1.000000000000000082e-05,-2.000000000000000164e-05,3.000000000000000000e+00,1.700000000000000000e+01
4.141100000000000000e+04,-1.000000000000000082e-05,-1.000000000000000082e-05,-2.999999999999999737e-05,-4.000000000000000327e-05,0.000000000000000000e+00,1.000000000000000048e-04,-1.000000000000000082e-05,-2.000000000000000164e-05,3.000000000000000000e+00,1.700000000000000000e+01
4.141200000000000000e+04,-1.000000000000000082e-05,-1.000000000000000082e-05,-2.999999999999999737e-05,-4.000000000000000327e-05,0.000000000000000000e+00,1.000000000000000048e-04,-1.000000000000000082e-05,-2.000000000000000164e-05,3.000000000000000000e+00,1.700000000000000000e+01
4.141300000000000000e+04,-1.000000000000000082e-05,-1.000000000000000082e-05,-2.999999999999999737e-05,-4.000000000000000327e-05,0.000000000000000000e+00,1.000000000000000048e-04,-1.000000000000000082e-05,-2.000000000000000164e-05,3.000000000000000000e+00,1.700000000000000000e+01
4.141400000000000000e+04,-1.000000000000000082e-05,-1.000000000000000082e-05,-2.999999999999999737e-05,-4.000000000000000327e-05,0.000000000000000000e+00,1.000000000000000048e-04,-1.000000000000000082e-05,-2.000000000000000164e-05,3.000000000000000000e+00,1.700000000000000000e+01
4.141500000000000000e+04,-1.000000000000000082e-05,-2.000000000000000164e-05,-1.000000000000000082e-05,-2.000000000000000164e-05,5.999999999999999474e-05,5.999999999999999474e-05,2.000000000000000164e-05,2.000000000000000164e-05,3.000000000000000000e+00,1.700000000000000000e+01
4.141600000000000000e+04,-1.000000000000000082e-05,-2.000000000000000164e-05,-1.000000000000000082e-05,-2.000000000000000164e-05,5.999999999999999474e-05,5.999999999999999474e-05,2.000000000000000164e-05,2.000000000000000164e-05,3.000000000000000000e+00,1.700000000000000000e+01
4.141700000000000000e+04,-1.000000000000000082e-05,-2.000000000000000164e-05,-1.000000000000000082e-05,-2.000000000000000164e-05,5.999999999999999474e-05,5.999999999999999474e-05,2.000000000000000164e-05,2.000000000000000164e-05,3.000000000000000000e+00,1.700000000000000000e+01
4.141800000000000000e+04,-1.000000000000000082e-05,-2.000000000000000164e-05,-1.000000000000000082e-05,-2.000000000000000164e-05,5.999999999999999474e-05,5.999999999999999474e-05,2.000000000000000164e-05,2.000000000000000164e-05,3.000000000000000000e+00,1.700000000000000000e+01
4.141900000000000000e+04,-1.000000000000000082e-05,-2.000000000000000164e-05,-1.000000000000000082e-05,-2.000000000000000164e-05,5.999999999999999474e-05,5.999999999999999474e-05,2.000000000000000164e-05,2.000000000000000164e-05,3.000000000000000000e+00,1.700000000000000000e+01
4.142000000000000000e+04,-1.000000000000000082e-05,-2.000000000000000164e-05,-1.000000000000000082e-05,-2.000000000000000164e-05,5.999999999999999474e-05,5.999999999999999474e-05,2.000000000000000164e-05,2.000000000000000164e-05,3.000000000000000000e+00,1.700000000000000000e+01
4.142100000000000000e+04,-1.000000000000000082e-05,-2.000000000000000164e-05,-1.000000000000000082e-05,-2.000000000000000164e-05,5.999999999999999474e-05,5.999999999999999474e-05,2.000000000000000164e-05,2.000000000000000164e-05,3.000000000000000000e+00,1.700000000000000000e+01
4.142200000000000000e+04,0.000000000000000000e+00,-1.000000000000000082e-05,-2.999999999999999737e-05,-5.000000000000000240e-05,-5.000000000000000240e-05,-5.299999999999999807e-04,-6.999999999999999387e-05,-2.000000000000000164e-05,3.000000000000000000e+00,1.700000000000000000e+01
4.142300000000000000e+04,0.000000000000000000e+00,-1.000000000000000082e-05,-2.999999999999999737e-05,-5.000000000000000240e-05,-5.000000000000000240e-05,-5.299999999999999807e-04,-6.999999999999999387e-05,-2.000000000000000164e-05,3.000000000000000000e+00,1.700000000000000000e+01
4.142400000000000000e+04,0.000000000000000000e+00,-1.000000000000000082e-05,-2.999999999999999737e-05,-5.000000000000000240e-05,-5.000000000000000240e-05,-5.299999999999999807e-04,-6.999999999999999387e-05,-2.000000000000000164e-05,3.000000000000000000e+00,1.700000000000000000e+01
4.142500000000000000e+04,0.000000000000000000e+00,-1.000000000000000082e-05,-2.999999999999999737e-05,-5.000000000000000240e-05,-5.000000000000000240e-05,-5.299999999999999807e-04,-6.999999999999999387e-05,-2.000000000000000164e-05,3.000000000000000000e+00,1.700000000000000000e+01
4.142600000000000000e+04,0.000000000000000000e+00,-1.000000000000000082e-05,-2.999999999999999737e-05,-5.000000000000000240e-05,-5.000000000000000240e-05,-5.299999999999999807e-04,-6.999999999999999387e-05,-2.000000000000000164e-05,3.000000000000000000e+00,1.700000000000000000e+01
4.142700000000000000e+04,0.000000000000000000e+00,-1.000000000000000082e-05,-2.999999999999999737e-05,-5.000000000000000240e-05,-5.000000000000000240e-05,-5.299999999999999807e-04,-6.999999999999999387e-05,-2.000000000000000164e-05,3.000000000000000000e+00,1.700000000000000000e+01
4.142800000000000000e+04,0.000000000000000000e+00,-1.000000000000000082e-05,-2.999999999999999737e-05,-5.000000000000000240e-05,-5.000000000000000240e-05,-5.299999999999999807e-04,-6.999999999999999387e-05,-2.000000000000000164e-05,3.000000000000000000e+00,1.700000000000000000e+01
4.142900000000000000e+04,0.000000000000000000e+00,-1.000000000000000082e-05,-2.999999999999999737e-05,-5.000000000000000240e-05,-5.000000000000000240e-05,-5.299999999999999807e-04,-6.999999999999999387e-05,-2.000000000000000164e-05,3.000000000000000000e+00,1.700000000000000000e+01
4.143000000000000000e+04,0.000000000000000000e+00,-1.000000000000000082e-05,-2.999999999999999737e-05,-5.000000000000000240e-05,-5.000000000000000240e-05,-5.299999999999999807e-04,-6.999999999999999387e-05,-2.000000000000000164e-05,3.000000000000000000e+00,1.700000000000000000e+01
4.143100000000000000e+04,0.000000000000000000e+00,-1.000000000000000082e-05,-2.999999999999999737e-05,-5.000000000000000240e-05,-5.000000000000000240e-05,-5.299999999999999807e-04,-6.999999999999999387e-05,-2.000000000000000164e-05,3.000000000000000000e+00,1.700000000000000000e+01
4.143200000000000000e+04,0.000000000000000000e+00,-1.000000000000000082e-05,-2.999999999999999737e-05,-5.000000000000000240e-05,-5.000000000000000240e-05,-5.299999999999999807e-04,-6.999999999999999387e-05,-2.000000000000000164e-05,3.000000000000000000e+00,1.700000000000000000e+01
4.143300000000000000e+04,0.000000000000000000e+00,-1.000000000000000082e-05,-2.999999999999999737e-05,-5.000000000000000240e-05,-5.000000000000000240e-05,-5.299999999999999807e-04,-6.999999999999999387e-05,-2.000000000000000164e-05,3.000000000000000000e+00,1.700000000000000000e+01
4.143400000000000000e+04,0.000000000000000000e+00,-1.000000000000000082e-05,-2.999999999999999737e-05,-5.000000000000000240e-05,-5.000000000000000240e-05,-5.299999999999999807e-04,-6.999999999999999387e-05,-2.000000000000000164e-05,3.000000000000000000e+00,1.700000000000000000e+01
4.143500000000000000e+04,0.000000000000000000e+00,-1.000000000000000082e-05,-2.999999999999999737e-05,-5.000000000000000240e-05,-5.000000000000000240e-05,-5.299999999999999807e-04,-6.999999999999999387e-05,-2.000000000000000164e-05,3.000000000000000000e+00,1.700000000000000000e+01
4.143600000000000000e+04,0.000000000000000000e+00,-1.000000000000000082e-05,-2.999999999999999737e-05,-5.000000000000000240e-05,-5.000000000000000240e-05,-5.299999999999999807e-04,-6.999999999999999387e-05,-2.000000000000000164e-05,3.000000000000000000e+00,1.700000000000000000e+01
4.143800000000000000e+04,0.000000000000000000e+00,-1.000000000000000082e-05,-2.999999999999999737e-05,-5.000000000000000240e-05,-5.000000000000000240e-05,-5.299999999999999807e-04,-6.999999999999999387e-05,-2.000000000000000164e-05,3.000000000000000000e+00,1.700000000000000000e+01
4.143900000000000000e+04,-1.000000000000000082e-05,0.000000000000000000e+00,-5.999999999999999474e-05,-2.000000000000000164e-05,-9.000000000000000567e-05,-2.299999999999999799e-04,-5.999999999999999474e-05,-2.000000000000000164e-05,3.000000000000000000e+00,1.700000000000000000e+01
4.144000000000000000e+04,-1.000000000000000082e-05,0.000000000000000000e+00,-5.999999999999999474e-05,-2.000000000000000164e-05,-9.000000000000000567e-05,-2.299999999999999799e-04,-5.999999999999999474e-05,-2.000000000000000164e-05,3.000000000000000000e+00,1.700000000000000000e+01
4.144100000000000000e+04,-2.000000000000000164e-05,-2.999999999999999737e-05,1.000000000000000082e-05,2.000000000000000164e-05,-2.999999999999999737e-05,-1.000000000000000048e-04,-2.000000000000000164e-05,0.000000000000000000e+00,3.000000000000000000e+00,1.700000000000000000e+01
4.144200000000000000e+04,-2.000000000000000164e-05,-2.999999999999999737e-05,1.000000000000000082e-05,2.000000000000000164e-05,-2.999999999999999737e-05,-1.000000000000000048e-04,-2.000000000000000164e-05,0.000000000000000000e+00,3.000000000000000000e+00,1.700000000000000000e+01
4.144300000000000000e+04,-2.000000000000000164e-05,-2.999999999999999737e-05,1.000000000000000082e-05,2.000000000000000164e-05,-2.999999999999999737e-05,-1.000000000000000048e-04,-2.000000000000000164e-05,0.000000000000000000e+00,3.000000000000000000e+00,1.700000000000000000e+01
4.144400000000000000e+04,-2.000000000000000164e-05,-2.999999999999999737e-05,1.000000000000000082e-05,2.000000000000000164e-05,-2.999999999999999737e-05,-1.000000000000000048e-04,-2.000000000000000164e-05,0.000000000000000000e+00,3.000000000000000000e+00,1.700000000000000000e+01
4.144500000000000000e+04,-2.000000000000000164e-05,-2.999999999999999737e-05,1.000000000000000082e-05,2.000000000000000164e-05,-2.999999999999999737e-05,-1.000000000000000048e-04,-2.000000000000000164e-05,0.000000000000000000e+00,3.000000000000000000e+00,1.700000000000000000e+01
4.144600000000000000e+04,-2.000000000000000164e-05,-2.999999999999999737e-05,1.000000000000000082e-05,2.000000000000000164e-05,-2.999999999999999737e-05,-1.000000000000000048e-04,-2.000000000000000164e-05,0.000000000000000000e+00,3.000000000000000000e+00,1.700000000000000000e+01
4.144700000000000000e+04,-2.000000000000000164e-05,-2.999999999999999737e-05,1.000000000000000082e-05,2.000000000000000164e-05,-2.999999999999999737e-05,-1.000000000000000048e-04,-2.000000000000000164e-05,0.000000000000000000e+00,3.000000000000000000e+00,1.700000000000000000e+01
4.144800000000000000e+04,-2.000000000000000164e-05,-2.999999999999999737e-05,1.000000000000000082e-05,2.000000000000000164e-05,-2.999999999999999737e-05,-1.000000000000000048e-04,-2.000000000000000164e-05,0.000000000000000000e+00,3.000000000000000000e+00,1.700000000000000000e+01
4.144900000000000000e+04,-2.000000000000000164e-05,-2.999999999999999737e-05,1.000000000000000082e-05,2.000000000000000164e-05,-2.999999999999999737e-05,-1.000000000000000048e-04,-2.000000000000000164e-05,0.000000000000000000e+00,3.000000000000000000e+00,1.700000000000000000e+01
4.145000000000000000e+04,-2.000000000000000164e-05,-2.999999999999999737e-05,1.000000000000000082e-05,2.000000000000000164e-05,-2.999999999999999737e-05,-1.000000000000000048e-04,-2.000000000000000164e-05,0.000000000000000000e+00,3.000000000000000000e+00,1.700000000000000000e+01
4.145100000000000000e+04,-2.000000000000000164e-05,-2.999999999999999737e-05,1.000000000000000082e-05,2.000000000000000164e-05,-2.999999999999999737e-05,-1.000000000000000048e-04,-2.000000000000000164e-05,0.000000000000000000e+00,3.000000000000000000e+00,1.700000000000000000e+01
4.145200000000000000e+04,-2.000000000000000164e-05,-2.999999999999999737e-05,1.000000000000000082e-05,2.000000000000000164e-05,-2.999999999999999737e-05,-1.000000000000000048e-04,-2.000000000000000164e-05,0.000000000000000000e+00,3.000000000000000000e+00,1.700000000000000000e+01
4.145300000000000000e+04,-2.000000000000000164e-05,-2.999999999999999737e-05,1.000000000000000082e-05,2.000000000000000164e-05,-2.999999999999999737e-05,-1.000000000000000048e-04,-2.000000000000000164e-05,0.000000000000000000e+00,3.000000000000000000e+00,1.700000000000000000e+01
4.145400000000000000e+04,-2.000000000000000164e-05,-2.999999999999999737e-05,1.000000000000000082e-05,2.000000000000000164e-05,-2.999999999999999737e-05,-1.000000000000000048e-04,-2.000000000000000164e-05,0.000000000000000000e+00,3.000000000000000000e+00,1.700000000000000000e+01
4.145500000000000000e+04,-2.000000000000000164e-05,-2.999999999999999737e-05,1.000000000000000082e-05,2.000000000000000164e-05,-2.999999999999999737e-05,-1.000000000000000048e-04,-2.000000000000000164e-05,0.000000000000000000e+00,3.000000000000000000e+00,1.700000000000000000e+01
4.145600000000000000e+04,-2.000000000000000164e-05,-2.999999999999999737e-05,1.000000000000000082e-05,2.000000000000000164e-05,-2.999999999999999737e-05,-1.000000000000000048e-04,-2.000000000000000164e-05,0.000000000000000000e+00,3.000000000000000000e+00,1.700000000000000000e+01
4.145700000000000000e+04,-2.000000000000000164e-05,-2.999999999999999737e-05,1.000000000000000082e-05,2.000000000000000164e-05,-2.999999999999999737e-05,-1.000000000000000048e-04,-2.000000000000000164e-05,0.000000000000000000e+00,3.000000000000000000e+00,1.700000000000000000e+01
4.145800000000000000e+04,-2.000000000000000164e-05,-2.999999999999999737e-05,1.000000000000000082e-05,2.000000000000000164e-05,-2.999999999999999737e-05,-1.000000000000000048e-04,-2.000000000000000164e-05,0.000000000000000000e+00,3.000000000000000000e+00,1.700000000000000000e+01
4.145900000000000000e+04,-2.000000000000000164e-05,-2.999999999999999737e-05,1.000000000000000082e-05,2.000000000000000164e-05,-2.999999999999999737e-05,-1.000000000000000048e-04,-2.000000000000000164e-05,0.000000000000000000e+00,3.000000000000000000e+00,1.700000000000000000e+01
4.146000000000000000e+04,-2.000000000000000164e-05,-2.999999999999999737e-05,1.000000000000000082e-05,2.000000000000000164e-05,-2.999999999999999737e-05,-1.000000000000000048e-04,-2.000000000000000164e-05,0.000000000000000000e+00,3.000000000000000000e+00,1.700000000000000000e+01
4.146100000000000000e+04,-1.000000000000000082e-05,1.000000000000000082e-05,2.000000000000000164e-05,-4.000000000000000327e-05,-4.000000000000000327e-05,1.000000000000000082e-05,-2.000000000000000164e-05,-1.000000000000000082e-05,3.000000000000000000e+00,1.700000000000000000e+01
4.146200000000000000e+04,-1.000000000000000082e-05,1.000000000000000082e-05,2.000000000000000164e-05,-4.000000000000000327e-05,-4.000000000000000327e-05,1.000000000000000082e-05,-2.000000000000000164e-05,-1.000000000000000082e-05,3.000000000000000000e+00,1.700000000000000000e+01
4.146300000000000000e+04,-2.000000000000000164e-05,-2.999999999999999737e-05,-1.000000000000000082e-05,1.000000000000000048e-04,2.000000000000000164e-05,2.999999999999999737e-05,0.000000000000000000e+00,0.000000000000000000e+00,3.000000000000000000e+00,1.700000000000000000e+01
4.146400000000000000e+04,-2.000000000000000164e-05,-2.999999999999999737e-05,-1.000000000000000082e-05,1.000000000000000048e-04,2.000000000000000164e-05,2.999999999999999737e-05,0.000000000000000000e+00,0.000000000000000000e+00,3.000000000000000000e+00,1.700000000000000000e+01
4.146500000000000000e+04,-2.000000000000000164e-05,-2.999999999999999737e-05,-1.000000000000000082e-05,1.000000000000000048e-04,2.000000000000000164e-05,2.999999999999999737e-05,0.000000000000000000e+00,0.000000000000000000e+00,3.000000000000000000e+00,1.700000000000000000e+01
4.146600000000000000e+04,-2.000000000000000164e-05,-2.999999999999999737e-05,-1.000000000000000082e-05,1.000000000000000048e-04,2.000000000000000164e-05,2.999999999999999737e-05,0.000000000000000000e+00,0.000000000000000000e+00,3.000000000000000000e+00,1.700000000000000000e+01
4.146700000000000000e+04,-2.000000000000000164e-05,-2.999999999999999737e-05,-1.000000000000000082e-05,1.000000000000000048e-04,2.000000000000000164e-05,2.999999999999999737e-05,0.000000000000000000e+00,0.000000000000000000e+00,3.000000000000000000e+00,1.700000000000000000e+01
4.146800000000000000e+04,-2.000000000000000164e-05,-2.999999999999999737e-05,-1.000000000000000082e-05,1.000000000000000048e-04,2.000000000000000164e-05,2.999999999999999737e-05,0.000000000000000000e+00,0.000000000000000000e+00,3.000000000000000000e+00,1.700000000000000000e+01
4.146900000000000000e+04,-2.000000000000000164e-05,-2.999999999999999737e-05,-1.000000000000000082e-05,1.000000000000000048e-04,2.000000000000000164e-05,2.999999999999999737e-05,0.000000000000000000e+00,0.000000000000000000e+00,3.000000000000000000e+00,1.700000000000000000e+01
4.147000000000000000e+04,-2.000000000000000164e-05,-2.999999999999999737e-05,-1.000000000000000082e-05,1.000000000000000048e-04,2.000000000000000164e-05,2.999999999999999737e-05,0.000000000000000000e+00,0.000000000000000000e+00,3.000000000000000000e+00,1.700000000000000000e+01
4.147100000000000000e+04,-2.000000000000000164e-05,-2.999999999999999737e-05,-1.000000000000000082e-05,1.000000000000000048e-04,2.000000000000000164e-05,2.999999999999999737e-05,0.000000000000000000e+00,0.000000000000000000e+00,3.000000000000000000e+00,1.700000000000000000e+01
4.147200000000000000e+04,-2.000000000000000164e-05,-2.999999999999999737e-05,-1.000000000000000082e-05,1.000000000000000048e-04,2.000000000000000164e-05,2.999999999999999737e-05,0.000000000000000000e+00,0.000000000000000000e+00,3.000000000000000000e+00,1.700000000000000000e+01
4.147300000000000000e+04,-2.000000000000000164e-05,-2.999999999999999737e-05,-1.000000000000000082e-05,1.000000000000000048e-04,2.000000000000000164e-05,2.999999999999999737e-05,0.000000000000000000e+00,0.000000000000000000e+00,3.000000000000000000e+00,1.700000000000000000e+01
4.147400000000000000e+04,-2.000000000000000164e-05,-2.999999999999999737e-05,-1.000000000000000082e-05,1.000000000000000048e-04,2.000000000000000164e-05,2.999999999999999737e-05,0.000000000000000000e+00,0.000000000000000000e+00,3.000000000000000000e+00,1.700000000000000000e+01
4.147500000000000000e+04,-2.000000000000000164e-05,-2.999999999999999737e-05,-1.000000000000000082e-05,1.000000000000000048e-04,2.000000000000000164e-05,2.999999999999999737e-05,0.000000000000000000e+00,0.000000000000000000e+00,3.000000000000000000e+00,1.700000000000000000e+01
4.147600000000000000e+04,-2.000000000000000164e-05,-2.999999999999999737e-05,-1.000000000000000082e-05,1.000000000000000048e-04,2.000000000000000164e-05,2.999999999999999737e-05,0.000000000000000000e+00,0.000000000000000000e+00,3.000000000000000000e+00,1.700000000000000000e+01
4.147700000000000000e+04,-2.000000000000000164e-05,-2.999999999999999737e-05,-1.000000000000000082e-05,1.000000000000000048e-04,2.000000000000000164e-05,2.999999999999999737e-05,0.000000000000000000e+00,0.000000000000000000e+00,3.000000000000000000e+00,1.700000000000000000e+01
4.147800000000000000e+04,-2.000000000000000164e-05,-2.999999999999999737e-05,-1.000000000000000082e-05,1.000000000000000048e-04,2.000000000000000164e-05,2.999999999999999737e-05,0.000000000000000000e+00,0.000000000000000000e+00,3.000000000000000000e+00,1.700000000000000000e+01
4.147900000000000000e+04,-2.000000000000000164e-05,-2.999999999999999737e-05,-1.000000000000000082e-05,1.000000000000000048e-04,2.000000000000000164e-05,2.999999999999999737e-05,0.000000000000000000e+00,0.000000000000000000e+00,3.000000000000000000e+00,1.700000000000000000e+01
4.148000000000000000e+04,-2.000000000000000164e-05,-2.999999999999999737e-05,-1.000000000000000082e-05,1.000000000000000048e-04,2.000000000000000164e-05,2.999999999999999737e-05,0.000000000000000000e+00,0.000000000000000000e+00,3.000000000000000000e+00,1.700000000000000000e+01
4.148100000000000000e+04,-2.000000000000000164e-05,-2.999999999999999737e-05,-1.000000000000000082e-05,1.000000000000000048e-04,2.000000000000000164e-05,2.999999999999999737e-05,0.000000000000000000e+00,0.000000000000000000e+00,3.000000000000000000e+00,1.700000000000000000e+01
4.148200000000000000e+04,-2.000000000000000164e-05,-2.999999999999999737e-05,-1.000000000000000082e-05,1.000000000000000048e-04,2.000000000000000164e-05,2.999999999999999737e-05,0.000000000000000000e+00,0.000000000000000000e+00,3.000000000000000000e+00,1.700000000000000000e+01
4.148300000000000000e+04,-1.000000000000000082e-05,0.000000000000000000e+00,1.000000000000000082e-05,5.000000000000000240e-05,-2.999999999999999737e-05,5.000000000000000240e-05,0.000000000000000000e+00,-2.000000000000000164e-05,3.000000000000000000e+00,1.700000000000000000e+01
4.148400000000000000e+04,-1.000000000000000082e-05,0.000000000000000000e+00,1.000000000000000082e-05,5.000000000000000240e-05,-2.999999999999999737e-05,5.000000000000000240e-05,0.000000000000000000e+00,-2.000000000000000164e-05,3.000000000000000000e+00,1.700000000000000000e+01
4.148500000000000000e+04,0.000000000000000000e+00,2.000000000000000164e-05,5.999999999999999474e-05,2.000000000000000164e-05,-2.000000000000000164e-05,1.000000000000000048e-04,2.999999999999999737e-05,-1.000000000000000082e-05,3.000000000000000000e+00,1.700000000000000000e+01
4.148600000000000000e+04,0.000000000000000000e+00,2.000000000000000164e-05,5.999999999999999474e-05,2.000000000000000164e-05,-2.000000000000000164e-05,1.000000000000000048e-04,2.999999999999999737e-05,-1.000000000000000082e-05,3.000000000000000000e+00,1.700000000000000000e+01
4.148900000000000000e+04,0.000000000000000000e+00,2.000000000000000164e-05,5.999999999999999474e-05,2.000000000000000164e-05,-2.000000000000000164e-05,1.000000000000000048e-04,2.999999999999999737e-05,-1.000000000000000082e-05,3.000000000000000000e+00,1.700000000000000000e+01
4.149000000000000000e+04,0.000000000000000000e+00,2.000000000000000164e-05,5.999999999999999474e-05,2.000000000000000164e-05,-2.000000000000000164e-05,1.000000000000000048e-04,2.999999999999999737e-05,-1.000000000000000082e-05,3.000000000000000000e+00,1.700000000000000000e+01
4.149100000000000000e+04,0.000000000000000000e+00,2.000000000000000164e-05,5.999999999999999474e-05,2.000000000000000164e-05,-2.000000000000000164e-05,1.000000000000000048e-04,2.999999999999999737e-05,-1.000000000000000082e-05,3.000000000000000000e+00,1.700000000000000000e+01
4.149200000000000000e+04,0.000000000000000000e+00,2.000000000000000164e-05,5.999999999999999474e-05,2.000000000000000164e-05,-2.000000000000000164e-05,1.000000000000000048e-04,2.999999999999999737e-05,-1.000000000000000082e-05,3.000000000000000000e+00,1.700000000000000000e+01
4.149300000000000000e+04,0.000000000000000000e+00,2.000000000000000164e-05,5.999999999999999474e-05,2.000000000000000164e-05,-2.000000000000000164e-05,1.000000000000000048e-04,2.999999999999999737e-05,-1.000000000000000082e-05,3.000000000000000000e+00,1.700000000000000000e+01
4.149400000000000000e+04,0.000000000000000000e+00,2.000000000000000164e-05,5.999999999999999474e-05,2.000000000000000164e-05,-2.000000000000000164e-05,1.000000000000000048e-04,2.999999999999999737e-05,-1.000000000000000082e-05,3.000000000000000000e+00,1.700000000000000000e+01
4.149500000000000000e+04,0.000000000000000000e+00,2.000000000000000164e-05,5.999999999999999474e-05,2.000000000000000164e-05,-2.000000000000000164e-05,1.000000000000000048e-04,2.999999999999999737e-05,-1.000000000000000082e-05,3.000000000000000000e+00,1.700000000000000000e+01
4.149600000000000000e+04,0.000000000000000000e+00,2.000000000000000164e-05,5.999999999999999474e-05,2.000000000000000164e-05,-2.000000000000000164e-05,1.000000000000000048e-04,2.999999999999999737e-05,-1.000000000000000082e-05,3.000000000000000000e+00,1.700000000000000000e+01
4.149700000000000000e+04,0.000000000000000000e+00,2.000000000000000164e-05,5.999999999999999474e-05,2.000000000000000164e-05,-2.000000000000000164e-05,1.000000000000000048e-04,2.999999999999999737e-05,-1.000000000000000082e-05,3.000000000000000000e+00,1.700000000000000000e+01
4.149800000000000000e+04,-2.999999999999999737e-05,-5.000000000000000240e-05,-8.000000000000000654e-05,-2.999999999999999737e-05,-5.999999999999999474e-05,-1.000000000000000048e-04,0.000000000000000000e+00,0.000000000000000000e+00,3.000000000000000000e+00,1.700000000000000000e+01
4.149900000000000000e+04,-2.999999999999999737e-05,-5.000000000000000240e-05,-8.000000000000000654e-05,-2.999999999999999737e-05,-5.999999999999999474e-05,-1.000000000000000048e-04,0.000000000000000000e+00,0.000000000000000000e+00,3.000000000000000000e+00,1.700000000000000000e+01
4.150000000000000000e+04,0.000000000000000000e+00,1.000000000000000082e-05,-4.000000000000000327e-05,-4.000000000000000327e-05,-1.000000000000000082e-05,5.999999999999999474e-05,0.000000000000000000e+00,-1.000000000000000082e-05,3.000000000000000000e+00,1.700000000000000000e+01
4.150100000000000000e+04,0.000000000000000000e+00,1.000000000000000082e-05,-4.000000000000000327e-05,-4.000000000000000327e-05,-1.000000000000000082e-05,5.999999999999999474e-05,0.000000000000000000e+00,-1.000000000000000082e-05,3.000000000000000000e+00,1.700000000000000000e+01
4.150200000000000000e+04,0.000000000000000000e+00,1.000000000000000082e-05,-4.000000000000000327e-05,-4.000000000000000327e-05,-1.000000000000000082e-05,5.999999999999999474e-05,0.000000000000000000e+00,-1.000000000000000082e-05,3.000000000000000000e+00,1.700000000000000000e+01
4.150300000000000000e+04,0.000000000000000000e+00,1.000000000000000082e-05,-4.000000000000000327e-05,-4.000000000000000327e-05,-1.000000000000000082e-05,5.999999999999999474e-05,0.000000000000000000e+00,-1.000000000000000082e-05,3.000000000000000000e+00,1.700000000000000000e+01
4.150400000000000000e+04,0.000000000000000000e+00,1.000000000000000082e-05,-4.000000000000000327e-05,-4.000000000000000327e-05,-1.000000000000000082e-05,5.999999999999999474e-05,0.000000000000000000e+00,-1.000000000000000082e-05,3.000000000000000000e+00,1.700000000000000000e+01
4.150500000000000000e+04,0.000000000000000000e+00,1.000000000000000082e-05,-4.000000000000000327e-05,-4.000000000000000327e-05,-1.000000000000000082e-05,5.999999999999999474e-05,0.000000000000000000e+00,-1.000000000000000082e-05,3.000000000000000000e+00,1.700000000000000000e+01
4.150600000000000000e+04,0.000000000000000000e+00,1.000000000000000082e-05,-4.000000000000000327e-05,-4.000000000000000327e-05,-1.000000000000000082e-05,5.999999999999999474e-05,0.000000000000000000e+00,-1.000000000000000082e-05,3.000000000000000000e+00,1.700000000000000000e+01
4.150700000000000000e+04,0.000000000000000000e+00,1.000000000000000082e-05,-4.000000000000000327e-05,-4.000000000000000327e-05,-1.000000000000000082e-05,5.999999999999999474e-05,0.000000000000000000e+00,-1.000000000000000082e-05,3.000000000000000000e+00,1.700000000000000000e+01
4.150800000000000000e+04,0.000000000000000000e+00,1.000000000000000082e-05,-4.000000000000000327e-05,-4.000000000000000327e-05,-1.000000000000000082e-05,5.999999999999999474e-05,0.000000000000000000e+00,-1.000000000000000082e-05,3.000000000000000000e+00,1.700000000000000000e+01
4.150900000000000000e+04,0.000000000000000000e+00,1.000000000000000082e-05,-4.000000000000000327e-05,-4.000000000000000327e-05,-1.000000000000000082e-05,5.999999999999999474e-05,0.000000000000000000e+00,-1.000000000000000082e-05,3.000000000000000000e+00,1.700000000000000000e+01
4.151000000000000000e+04,0.000000000000000000e+00,1.000000000000000082e-05,-4.000000000000000327e-05,-4.000000000000000327e-05,-1.000000000000000082e-05,5.999999999999999474e-05,0.000000000000000000e+00,-1.000000000000000082e-05,3.000000000000000000e+00,1.700000000000000000e+01
4.151100000000000000e+04,0.000000000000000000e+00,1.000000000000000082e-05,-4.000000000000000327e-05,-4.000000000000000327e-05,-1.000000000000000082e-05,5.999999999999999474e-05,0.000000000000000000e+00,-1.000000000000000082e-05,3.000000000000000000e+00,1.700000000000000000e+01
4.151200000000000000e+04,0.000000000000000000e+00,1.000000000000000082e-05,-4.000000000000000327e-05,-4.000000000000000327e-05,-1.000000000000000082e-05,5.999999999999999474e-05,0.000000000000000000e+00,-1.000000000000000082e-05,3.000000000000000000e+00,1.700000000000000000e+01
4.151300000000000000e+04,0.000000000000000000e+00,1.000000000000000082e-05,-4.000000000000000327e-05,-4.000000000000000327e-05,-1.000000000000000082e-05,5.999999999999999474e-05,0.000000000000000000e+00,-1.000000000000000082e-05,3.000000000000000000e+00,1.700000000000000000e+01
4.151400000000000000e+04,0.000000000000000000e+00,1.000000000000000082e-05,-4.000000000000000327e-05,-4.000000000000000327e-05,-1.000000000000000082e-05,5.999999999999999474e-05,0.000000000000000000e+00,-1.000000000000000082e-05,3.000000000000000000e+00,1.700000000000000000e+01
4.151500000000000000e+04,0.000000000000000000e+00,1.000000000000000082e-05,-4.000000000000000327e-05,-4.000000000000000327e-05,-1.000000000000000082e-05,5.999999999999999474e-05,0.000000000000000000e+00,-1.000000000000000082e-05,3.000000000000000000e+00,1.700000000000000000e+01
4.151600000000000000e+04,0.000000000000000000e+00,1.000000000000000082e-05,-4.000000000000000327e-05,-4.000000000000000327e-05,-1.000000000000000082e-05,5.999999999999999474e-05,0.000000000000000000e+00,-1.000000000000000082e-05,3.000000000000000000e+00,1.700000000000000000e+01
4.151700000000000000e+04,0.000000000000000000e+00,1.000000000000000082e-05,-4.000000000000000327e-05,-4.000000000000000327e-05,-1.000000000000000082e-05,5.999999999999999474e-05,0.000000000000000000e+00,-1.000000000000000082e-05,3.000000000000000000e+00,1.700000000000000000e+01
4.151800000000000000e+04,0.000000000000000000e+00,1.000000000000000082e-05,-4.000000000000000327e-05,-4.000000000000000327e-05,-1.000000000000000082e-05,5.999999999999999474e-05,0.000000000000000000e+00,-1.000000000000000082e-05,3.000000000000000000e+00,1.700000000000000000e+01
4.151900000000000000e+04,0.000000000000000000e+00,1.000000000000000082e-05,-4.000000000000000327e-05,-4.000000000000000327e-05,-1.000000000000000082e-05,5.999999999999999474e-05,0.000000000000000000e+00,-1.000000000000000082e-05,3.000000000000000000e+00,1.700000000000000000e+01
4.152000000000000000e+04,0.000000000000000000e+00,1.000000000000000082e-05,-4.000000000000000327e-05,-4.000000000000000327e-05,-1.000000000000000082e-05,5.999999999999999474e-05,0.000000000000000000e+00,-1.000000000000000082e-05,3.000000000000000000e+00,1.700000000000000000e+01
4.152100000000000000e+04,-1.000000000000000082e-05,-1.000000000000000082e-05,5.000000000000000240e-05,5.000000000000000240e-05,-2.999999999999999737e-05,-5.999999999999999474e-05,-5.000000000000000240e-05,-2.000000000000000164e-05,3.000000000000000000e+00,1.700000000000000000e+01
4.152200000000000000e+04,2.000000000000000164e-05,1.000000000000000082e-05,-1.000000000000000082e-05,-1.100000000000000039e-04,-2.000000000000000164e-05,-5.000000000000000240e-05,2.000000000000000164e-05,-1.000000000000000082e-05,3.000000000000000000e+00,1.700000000000000000e+01
4.152300000000000000e+04,-2.000000000000000164e-05,-2.999999999999999737e-05,1.000000000000000082e-05,5.000000000000000240e-05,-1.000000000000000082e-05,1.499999999999999869e-04,0.000000000000000000e+00,0.000000000000000000e+00,3.000000000000000000e+00,1.700000000000000000e+01
4.152400000000000000e+04,-2.000000000000000164e-05,-2.999999999999999737e-05,1.000000000000000082e-05,5.000000000000000240e-05,-1.000000000000000082e-05,1.499999999999999869e-04,0.000000000000000000e+00,0.000000000000000000e+00,3.000000000000000000e+00,1.700000000000000000e+01
4.152500000000000000e+04,-2.000000000000000164e-05,-2.999999999999999737e-05,1.000000000000000082e-05,5.000000000000000240e-05,-1.000000000000000082e-05,1.499999999999999869e-04,0.000000000000000000e+00,0.000000000000000000e+00,3.000000000000000000e+00,1.700000000000000000e+01
4.152600000000000000e+04,-2.000000000000000164e-05,-2.999999999999999737e-05,1.000000000000000082e-05,5.000000000000000240e-05,-1.000000000000000082e-05,1.499999999999999869e-04,0.000000000000000000e+00,0.000000000000000000e+00,3.000000000000000000e+00,1.700000000000000000e+01
4.152700000000000000e+04,-2.000000000000000164e-05,-2.999999999999999737e-05,1.000000000000000082e-05,5.000000000000000240e-05,-1.000000000000000082e-05,1.499999999999999869e-04,0.000000000000000000e+00,0.000000000000000000e+00,3.000000000000000000e+00,1.700000000000000000e+01
4.152800000000000000e+04,-2.000000000000000164e-05,-2.999999999999999737e-05,1.000000000000000082e-05,5.000000000000000240e-05,-1.000000000000000082e-05,1.499999999999999869e-04,0.000000000000000000e+00,0.000000000000000000e+00,3.000000000000000000e+00,1.700000000000000000e+01
4.152900000000000000e+04,-2.000000000000000164e-05,-2.999999999999999737e-05,1.000000000000000082e-05,5.000000000000000240e-05,-1.000000000000000082e-05,1.499999999999999869e-04,0.000000000000000000e+00,0.000000000000000000e+00,3.000000000000000000e+00,1.700000000000000000e+01
4.153000000000000000e+04,-2.000000000000000164e-05,-2.999999999999999737e-05,1.000000000000000082e-05,5.000000000000000240e-05,-1.000000000000000082e-05,1.499999999999999869e-04,0.000000000000000000e+00,0.000000000000000000e+00,3.000000000000000000e+00,1.700000000000000000e+01
4.153100000000000000e+04,-2.000000000000000164e-05,-2.999999999999999737e-05,1.000000000000000082e-05,5.000000000000000240e-05,-1.000000000000000082e-05,1.499999999999999869e-04,0.000000000000000000e+00,0.000000000000000000e+00,3.000000000000000000e+00,1.700000000000000000e+01
4.153200000000000000e+04,-2.000000000000000164e-05,-2.999999999999999737e-05,1.000000000000000082e-05,5.000000000000000240e-05,-1.000000000000000082e-05,1.499999999999999869e-04,0.000000000000000000e+00,0.000000000000000000e+00,3.000000000000000000e+00,1.700000000000000000e+01
4.153300000000000000e+04,-2.000000000000000164e-05,-2.999999999999999737e-05,1.000000000000000082e-05,5.000000000000000240e-05,-1.000000000000000082e-05,1.499999999999999869e-04,0.000000000000000000e+00,0.000000000000000000e+00,3.000000000000000000e+00,1.700000000000000000e+01
4.153400000000000000e+04,-2.000000000000000164e-05,-2.999999999999999737e-05,1.000000000000000082e-05,5.000000000000000240e-05,-1.000000000000000082e-05,1.499999999999999869e-04,0.000000000000000000e+00,0.000000000000000000e+00,3.000000000000000000e+00,1.700000000000000000e+01
4.153500000000000000e+04,-1.000000000000000082e-05,-2.000000000000000164e-05,-5.999999999999999474e-05,-2.000000000000000096e-04,0.000000000000000000e+00,5.000000000000000240e-05,2.000000000000000164e-05,0.000000000000000000e+00,3.000000000000000000e+00,1.700000000000000000e+01
4.153700000000000000e+04,-1.000000000000000082e-05,-2.000000000000000164e-05,-5.999999999999999474e-05,-2.000000000000000096e-04,0.000000000000000000e+00,5.000000000000000240e-05,2.000000000000000164e-05,0.000000000000000000e+00,3.000000000000000000e+00,1.700000000000000000e+01
4.153900000000000000e+04,-1.000000000000000082e-05,-2.000000000000000164e-05,-5.999999999999999474e-05,-2.000000000000000096e-04,0.000000000000000000e+00,5.000000000000000240e-05,2.000000000000000164e-05,0.000000000000000000e+00,3.000000000000000000e+00,1.700000000000000000e+01
4.154000000000000000e+04,-1.000000000000000082e-05,-2.000000000000000164e-05,-5.999999999999999474e-05,-2.000000000000000096e-04,0.000000000000000000e+00,5.000000000000000240e-05,2.000000000000000164e-05,0.000000000000000000e+00,3.000000000000000000e+00,1.700000000000000000e+01
4.154100000000000000e+04,-1.000000000000000082e-05,-2.000000000000000164e-05,-5.999999999999999474e-05,-2.000000000000000096e-04,0.000000000000000000e+00,5.000000000000000240e-05,2.000000000000000164e-05,0.000000000000000000e+00,3.000000000000000000e+00,1.700000000000000000e+01
4.154200000000000000e+04,0.000000000000000000e+00,0.000000000000000000e+00,1.000000000000000082e-05,4.000000000000000327e-05,-2.000000000000000164e-05,-2.000000000000000096e-04,-2.000000000000000164e-05,0.000000000000000000e+00,3.000000000000000000e+00,1.700000000000000000e+01
4.154300000000000000e+04,0.000000000000000000e+00,0.000000000000000000e+00,1.000000000000000082e-05,4.000000000000000327e-05,-2.000000000000000164e-05,-2.000000000000000096e-04,-2.000000000000000164e-05,0.000000000000000000e+00,3.000000000000000000e+00,1.700000000000000000e+01
4.154400000000000000e+04,0.000000000000000000e+00,0.000000000000000000e+00,1.000000000000000082e-05,4.000000000000000327e-05,-2.000000000000000164e-05,-2.000000000000000096e-04,-2.000000000000000164e-05,0.000000000000000000e+00,3.000000000000000000e+00,1.700000000000000000e+01
4.154500000000000000e+04,0.000000000000000000e+00,0.000000000000000000e+00,1.000000000000000082e-05,4.000000000000000327e-05,-2.000000000000000164e-05,-2.000000000000000096e-04,-2.000000000000000164e-05,0.000000000000000000e+00,3.000000000000000000e+00,1.700000000000000000e+01
4.154600000000000000e+04,0.000000000000000000e+00,0.000000000000000000e+00,1.000000000000000082e-05,4.000000000000000327e-05,-2.000000000000000164e-05,-2.000000000000000096e-04,-2.000000000000000164e-05,0.000000000000000000e+00,3.000000000000000000e+00,1.700000000000000000e+01
4.154700000000000000e+04,0.000000000000000000e+00,0.000000000000000000e+00,1.000000000000000082e-05,4.000000000000000327e-05,-2.000000000000000164e-05,-2.000000000000000096e-04,-2.000000000000000164e-05,0.000000000000000000e+00,3.000000000000000000e+00,1.700000000000000000e+01
4.154800000000000000e+04,0.000000000000000000e+00,0.000000000000000000e+00,1.000000000000000082e-05,4.000000000000000327e-05,-2.000000000000000164e-05,-2.000000000000000096e-04,-2.000000000000000164e-05,0.000000000000000000e+00,3.000000000000000000e+00,1.700000000000000000e+01
4.154900000000000000e+04,0.000000000000000000e+00,0.000000000000000000e+00,1.000000000000000082e-05,4.000000000000000327e-05,-2.000000000000000164e-05,-2.000000000000000096e-04,-2.000000000000000164e-05,0.000000000000000000e+00,3.000000000000000000e+00,1.700000000000000000e+01
4.155000000000000000e+04,0.000000000000000000e+00,0.000000000000000000e+00,1.000000000000000082e-05,4.000000000000000327e-05,-2.000000000000000164e-05,-2.000000000000000096e-04,-2.000000000000000164e-05,0.000000000000000000e+00,3.000000000000000000e+00,1.700000000000000000e+01
4.155100000000000000e+04,0.000000000000000000e+00,0.000000000000000000e+00,1.000000000000000082e-05,4.000000000000000327e-05,-2.000000000000000164e-05,-2.000000000000000096e-04,-2.000000000000000164e-05,0.000000000000000000e+00,3.000000000000000000e+00,1.700000000000000000e+01
4.155200000000000000e+04,0.000000000000000000e+00,0.000000000000000000e+00,1.000000000000000082e-05,4.000000000000000327e-05,-2.000000000000000164e-05,-2.000000000000000096e-04,-2.000000000000000164e-05,0.000000000000000000e+00,3.000000000000000000e+00,1.700000000000000000e+01
4.155300000000000000e+04,0.000000000000000000e+00,0.000000000000000000e+00,1.000000000000000082e-05,4.000000000000000327e-05,-2.000000000000000164e-05,-2.000000000000000096e-04,-2.000000000000000164e-05,0.000000000000000000e+00,3.000000000000000000e+00,1.700000000000000000e+01
4.155400000000000000e+04,0.000000000000000000e+00,0.000000000000000000e+00,1.000000000000000082e-05,4.000000000000000327e-05,-2.000000000000000164e-05,-2.000000000000000096e-04,-2.000000000000000164e-05,0.000000000000000000e+00,3.000000000000000000e+00,1.700000000000000000e+01
4.155500000000000000e+04,0.000000000000000000e+00,0.000000000000000000e+00,1.000000000000000082e-05,4.000000000000000327e-05,-2.000000000000000164e-05,-2.000000000000000096e-04,-2.000000000000000164e-05,0.000000000000000000e+00,3.000000000000000000e+00,1.700000000000000000e+01
4.155600000000000000e+04,0.000000000000000000e+00,0.000000000000000000e+00,1.000000000000000082e-05,4.000000000000000327e-05,-2.000000000000000164e-05,-2.000000000000000096e-04,-2.000000000000000164e-05,0.000000000000000000e+00,3.000000000000000000e+00,1.700000000000000000e+01
4.155700000000000000e+04,0.000000000000000000e+00,0.000000000000000000e+00,1.000000000000000082e-05,4.000000000000000327e-05,-2.000000000000000164e-05,-2.000000000000000096e-04,-2.000000000000000164e-05,0.000000000000000000e+00,3.000000000000000000e+00,1.700000000000000000e+01
4.155800000000000000e+04,0.000000000000000000e+00,0.000000000000000000e+00,-2.000000000000000164e-05,1.100000000000000039e-04,-2.000000000000000164e-05,3.899999999999999929e-04,2.999999999999999737e-05,-2.000000000000000164e-05,3.000000000000000000e+00,1.700000000000000000e+01
4.155900000000000000e+04,-1.000000000000000082e-05,-1.000000000000000082e-05,0.000000000000000000e+00,-4.000000000000000327e-05,1.000000000000000082e-05,-6.999999999999999387e-05,0.000000000000000000e+00,-2.000000000000000164e-05,3.000000000000000000e+00,1.700000000000000000e+01
4.156000000000000000e+04,-1.000000000000000082e-05,0.000000000000000000e+00,1.000000000000000082e-05,1.000000000000000082e-05,0.000000000000000000e+00,-1.100000000000000039e-04,-1.000000000000000082e-05,0.000000000000000000e+00,3.000000000000000000e+00,1.700000000000000000e+01
4.156100000000000000e+04,-1.000000000000000082e-05,0.000000000000000000e+00,1.000000000000000082e-05,1.000000000000000082e-05,0.000000000000000000e+00,-1.100000000000000039e-04,-1.000000000000000082e-05,0.000000000000000000e+00,3.000000000000000000e+00,1.700000000000000000e+01
4.156200000000000000e+04,-1.000000000000000082e-05,0.000000000000000000e+00,1.000000000000000082e-05,1.000000000000000082e-05,0.000000000000000000e+00,-1.100000000000000039e-04,-1.000000000000000082e-05,0.000000000000000000e+00,3.000000000000000000e+00,1.700000000000000000e+01
4.156300000000000000e+04,-1.000000000000000082e-05,0.000000000000000000e+00,1.000000000000000082e-05,1.000000000000000082e-05,0.000000000000000000e+00,-1.100000000000000039e-04,-1.000000000000000082e-05,0.000000000000000000e+00,3.000000000000000000e+00,1.700000000000000000e+01
4.156400000000000000e+04,-1.000000000000000082e-05,0.000000000000000000e+00,1.000000000000000082e-05,1.000000000000000082e-05,0.000000000000000000e+00,-1.100000000000000039e-04,-1.000000000000000082e-05,0.000000000000000000e+00,3.000000000000000000e+00,1.700000000000000000e+01
4.156500000000000000e+04,-1.000000000000000082e-05,0.000000000000000000e+00,1.000000000000000082e-05,1.000000000000000082e-05,0.000000000000000000e+00,-1.100000000000000039e-04,-1.000000000000000082e-05,0.000000000000000000e+00,3.000000000000000000e+00,1.700000000000000000e+01
4.156600000000000000e+04,-1.000000000000000082e-05,0.000000000000000000e+00,1.000000000000000082e-05,1.000000000000000082e-05,0.000000000000000000e+00,-1.100000000000000039e-04,-1.000000000000000082e-05,0.000000000000000000e+00,3.000000000000000000e+00,1.700000000000000000e+01
4.156700000000000000e+04,-1.000000000000000082e-05,0.000000000000000000e+00,1.000000000000000082e-05,1.000000000000000082e-05,0.000000000000000000e+00,-1.100000000000000039e-04,-1.000000000000000082e-05,0.000000000000000000e+00,3.000000000000000000e+00,1.700000000000000000e+01
4.156800000000000000e+04,-1.000000000000000082e-05,0.000000000000000000e+00,1.000000000000000082e-05,1.000000000000000082e-05,0.000000000000000000e+00,-1.100000000000000039e-04,-1.000000000000000082e-05,0.000000000000000000e+00,3.000000000000000000e+00,1.700000000000000000e+01
4.157000000000000000e+04,-1.000000000000000082e-05,0.000000000000000000e+00,1.000000000000000082e-05,1.000000000000000082e-05,0.000000000000000000e+00,-1.100000000000000039e-04,-1.000000000000000082e-05,0.000000000000000000e+00,3.000000000000000000e+00,1.700000000000000000e+01
4.157100000000000000e+04,-1.000000000000000082e-05,0.000000000000000000e+00,1.000000000000000082e-05,1.000000000000000082e-05,0.000000000000000000e+00,-1.100000000000000039e-04,-1.000000000000000082e-05,0.000000000000000000e+00,3.000000000000000000e+00,1.700000000000000000e+01
4.157200000000000000e+04,-1.000000000000000082e-05,0.000000000000000000e+00,1.000000000000000082e-05,1.000000000000000082e-05,0.000000000000000000e+00,-1.100000000000000039e-04,-1.000000000000000082e-05,0.000000000000000000e+00,3.000000000000000000e+00,1.700000000000000000e+01
4.157300000000000000e+04,-1.000000000000000082e-05,0.000000000000000000e+00,1.000000000000000082e-05,1.000000000000000082e-05,0.000000000000000000e+00,-1.100000000000000039e-04,-1.000000000000000082e-05,0.000000000000000000e+00,3.000000000000000000e+00,1.700000000000000000e+01
4.157400000000000000e+04,-1.000000000000000082e-05,0.000000000000000000e+00,1.000000000000000082e-05,1.000000000000000082e-05,0.000000000000000000e+00,-1.100000000000000039e-04,-1.000000000000000082e-05,0.000000000000000000e+00,3.000000000000000000e+00,1.700000000000000000e+01
4.157500000000000000e+04,-1.000000000000000082e-05,0.000000000000000000e+00,1.000000000000000082e-05,1.000000000000000082e-05,0.000000000000000000e+00,-1.100000000000000039e-04,-1.000000000000000082e-05,0.000000000000000000e+00,3.000000000000000000e+00,1.700000000000000000e+01
4.157600000000000000e+04,-1.000000000000000082e-05,0.000000000000000000e+00,1.000000000000000082e-05,1.000000000000000082e-05,0.000000000000000000e+00,-1.100000000000000039e-04,-1.000000000000000082e-05,0.000000000000000000e+00,3.000000000000000000e+00,1.700000000000000000e+01
4.157700000000000000e+04,-1.000000000000000082e-05,0.000000000000000000e+00,1.000000000000000082e-05,1.000000000000000082e-05,0.000000000000000000e+00,-1.100000000000000039e-04,-1.000000000000000082e-05,0.000000000000000000e+00,3.000000000000000000e+00,1.700000000000000000e+01
4.157800000000000000e+04,-1.000000000000000082e-05,0.000000000000000000e+00,1.000000000000000082e-05,1.000000000000000082e-05,0.000000000000000000e+00,-1.100000000000000039e-04,-1.000000000000000082e-05,0.000000000000000000e+00,3.000000000000000000e+00,1.700000000000000000e+01
4.157900000000000000e+04,-1.000000000000000082e-05,0.000000000000000000e+00,1.000000000000000082e-05,1.000000000000000082e-05,0.000000000000000000e+00,-1.100000000000000039e-04,-1.000000000000000082e-05,0.000000000000000000e+00,3.000000000000000000e+00,1.700000000000000000e+01
4.158000000000000000e+04,-1.000000000000000082e-05,0.000000000000000000e+00,1.000000000000000082e-05,1.000000000000000082e-05,0.000000000000000000e+00,-1.100000000000000039e-04,-1.000000000000000082e-05,0.000000000000000000e+00,3.000000000000000000e+00,1.700000000000000000e+01
4.158100000000000000e+04,0.000000000000000000e+00,-1.000000000000000082e-05,-1.000000000000000082e-05,-1.800000000000000113e-04,2.000000000000000164e-05,2.000000000000000164e-05,1.000000000000000082e-05,-1.000000000000000082e-05,3.000000000000000000e+00,1.700000000000000000e+01
4.158200000000000000e+04,-2.000000000000000164e-05,-1.000000000000000082e-05,-2.000000000000000164e-05,-2.999999999999999737e-05,0.000000000000000000e+00,1.800000000000000113e-04,0.000000000000000000e+00,-2.000000000000000164e-05,3.000000000000000000e+00,1.700000000000000000e+01
4.158400000000000000e+04,-2.000000000000000164e-05,-1.000000000000000082e-05,-2.000000000000000164e-05,-2.999999999999999737e-05,0.000000000000000000e+00,1.800000000000000113e-04,0.000000000000000000e+00,-2.000000000000000164e-05,3.000000000000000000e+00,1.700000000000000000e+01
4.158500000000000000e+04,-2.000000000000000164e-05,-1.000000000000000082e-05,-2.000000000000000164e-05,-2.999999999999999737e-05,0.000000000000000000e+00,1.800000000000000113e-04,0.000000000000000000e+00,-2.000000000000000164e-05,3.000000000000000000e+00,1.700000000000000000e+01
4.158700000000000000e+04,-2.000000000000000164e-05,-1.000000000000000082e-05,-2.000000000000000164e-05,-2.999999999999999737e-05,0.000000000000000000e+00,1.800000000000000113e-04,0.000000000000000000e+00,-2.000000000000000164e-05,3.000000000000000000e+00,1.700000000000000000e+01
4.158900000000000000e+04,-2.000000000000000164e-05,-1.000000000000000082e-05,-2.000000000000000164e-05,-2.999999999999999737e-05,0.000000000000000000e+00,1.800000000000000113e-04,0.000000000000000000e+00,-2.000000000000000164e-05,3.000000000000000000e+00,1.700000000000000000e+01
4.159000000000000000e+04,-2.000000000000000164e-05,-1.000000000000000082e-05,-2.000000000000000164e-05,-2.999999999999999737e-05,0.000000000000000000e+00,1.800000000000000113e-04,0.000000000000000000e+00,-2.000000000000000164e-05,3.000000000000000000e+00,1.700000000000000000e+01
4.159100000000000000e+04,-2.000000000000000164e-05,-1.000000000000000082e-05,-2.000000000000000164e-05,-2.999999999999999737e-05,0.000000000000000000e+00,1.800000000000000113e-04,0.000000000000000000e+00,-2.000000000000000164e-05,3.000000000000000000e+00,1.700000000000000000e+01
4.159200000000000000e+04,-2.000000000000000164e-05,-1.000000000000000082e-05,-2.000000000000000164e-05,-2.999999999999999737e-05,0.000000000000000000e+00,1.800000000000000113e-04,0.000000000000000000e+00,-2.000000000000000164e-05,3.000000000000000000e+00,1.700000000000000000e+01
4.159300000000000000e+04,-2.000000000000000164e-05,-1.000000000000000082e-05,-2.000000000000000164e-05,-2.999999999999999737e-05,0.000000000000000000e+00,1.800000000000000113e-04,0.000000000000000000e+00,-2.000000000000000164e-05,3.000000000000000000e+00,1.700000000000000000e+01
4.159400000000000000e+04,-2.000000000000000164e-05,-1.000000000000000082e-05,-2.000000000000000164e-05,-2.999999999999999737e-05,0.000000000000000000e+00,1.800000000000000113e-04,0.000000000000000000e+00,-2.000000000000000164e-05,3.000000000000000000e+00,1.700000000000000000e+01
4.159500000000000000e+04,-1.000000000000000082e-05,2.000000000000000164e-05,1.000000000000000082e-05,1.000000000000000082e-05,-2.000000000000000164e-05,1.000000000000000048e-04,-2.999999999999999737e-05,1.000000000000000082e-05,3.000000000000000000e+00,1.700000000000000000e+01
4.159600000000000000e+04,-1.000000000000000082e-05,2.000000000000000164e-05,1.000000000000000082e-05,1.000000000000000082e-05,-2.000000000000000164e-05,1.000000000000000048e-04,-2.999999999999999737e-05,1.000000000000000082e-05,3.000000000000000000e+00,1.700000000000000000e+01
4.159700000000000000e+04,-1.000000000000000082e-05,2.000000000000000164e-05,1.000000000000000082e-05,1.000000000000000082e-05,-2.000000000000000164e-05,1.000000000000000048e-04,-2.999999999999999737e-05,1.000000000000000082e-05,3.000000000000000000e+00,1.700000000000000000e+01
4.159800000000000000e+04,-1.000000000000000082e-05,2.000000000000000164e-05,1.000000000000000082e-05,1.000000000000000082e-05,-2.000000000000000164e-05,1.000000000000000048e-04,-2.999999999999999737e-05,1.000000000000000082e-05,3.000000000000000000e+00,1.700000000000000000e+01
4.159900000000000000e+04,-1.000000000000000082e-05,2.000000000000000164e-05,1.000000000000000082e-05,1.000000000000000082e-05,-2.000000000000000164e-05,1.000000000000000048e-04,-2.999999999999999737e-05,1.000000000000000082e-05,3.000000000000000000e+00,1.700000000000000000e+01
4.160000000000000000e+04,-1.000000000000000082e-05,2.000000000000000164e-05,1.000000000000000082e-05,1.000000000000000082e-05,-2.000000000000000164e-05,1.000000000000000048e-04,-2.999999999999999737e-05,1.000000000000000082e-05,3.000000000000000000e+00,1.700000000000000000e+01
4.160100000000000000e+04,-1.000000000000000082e-05,2.000000000000000164e-05,1.000000000000000082e-05,1.000000000000000082e-05,-2.000000000000000164e-05,1.000000000000000048e-04,-2.999999999999999737e-05,1.000000000000000082e-05,3.000000000000000000e+00,1.700000000000000000e+01
4.160200000000000000e+04,-1.000000000000000082e-05,-1.000000000000000082e-05,-8.000000000000000654e-05,-1.000000000000000048e-04,-2.000000000000000164e-05,-2.200000000000000078e-04,-2.000000000000000164e-05,-1.000000000000000082e-05,3.000000000000000000e+00,1.700000000000000000e+01
4.160300000000000000e+04,-1.000000000000000082e-05,-1.000000000000000082e-05,-8.000000000000000654e-05,-1.000000000000000048e-04,-2.000000000000000164e-05,-2.200000000000000078e-04,-2.000000000000000164e-05,-1.000000000000000082e-05,3.000000000000000000e+00,1.700000000000000000e+01
4.160400000000000000e+04,-1.000000000000000082e-05,-1.000000000000000082e-05,-8.000000000000000654e-05,-1.000000000000000048e-04,-2.000000000000000164e-05,-2.200000000000000078e-04,-2.000000000000000164e-05,-1.000000000000000082e-05,3.000000000000000000e+00,1.700000000000000000e+01
4.160500000000000000e+04,-1.000000000000000082e-05,-1.000000000000000082e-05,-8.000000000000000654e-05,-1.000000000000000048e-04,-2.000000000000000164e-05,-2.200000000000000078e-04,-2.000000000000000164e-05,-1.000000000000000082e-05,3.000000000000000000e+00,1.700000000000000000e+01
4.160600000000000000e+04,-1.000000000000000082e-05,-1.000000000000000082e-05,-8.000000000000000654e-05,-1.000000000000000048e-04,-2.000000000000000164e-05,-2.200000000000000078e-04,-2.000000000000000164e-05,-1.000000000000000082e-05,3.000000000000000000e+00,1.700000000000000000e+01
4.160700000000000000e+04,-1.000000000000000082e-05,-1.000000000000000082e-05,-8.000000000000000654e-05,-1.000000000000000048e-04,-2.000000000000000164e-05,-2.200000000000000078e-04,-2.000000000000000164e-05,-1.000000000000000082e-05,3.000000000000000000e+00,1.700000000000000000e+01
4.160800000000000000e+04,-1.000000000000000082e-05,-1.000000000000000082e-05,-8.000000000000000654e-05,-1.000000000000000048e-04,-2.000000000000000164e-05,-2.200000000000000078e-04,-2.000000000000000164e-05,-1.000000000000000082e-05,3.000000000000000000e+00,1.700000000000000000e+01
4.160900000000000000e+04,-1.000000000000000082e-05,-1.000000000000000082e-05,-8.000000000000000654e-05,-1.000000000000000048e-04,-2.000000000000000164e-05,-2.200000000000000078e-04,-2.000000000000000164e-05,-1.000000000000000082e-05,3.000000000000000000e+00,1.700000000000000000e+01
4.161000000000000000e+04,-1.000000000000000082e-05,-1.000000000000000082e-05,-8.000000000000000654e-05,-1.000000000000000048e-04,-2.000000000000000164e-05,-2.200000000000000078e-04,-2.000000000000000164e-05,-1.000000000000000082e-05,3.000000000000000000e+00,1.700000000000000000e+01
4.161100000000000000e+04,-1.000000000000000082e-05,-1.000000000000000082e-05,-8.000000000000000654e-05,-1.000000000000000048e-04,-2.000000000000000164e-05,-2.200000000000000078e-04,-2.000000000000000164e-05,-1.000000000000000082e-05,3.000000000000000000e+00,1.700000000000000000e+01
4.161200000000000000e+04,-1.000000000000000082e-05,-1.000000000000000082e-05,-8.000000000000000654e-05,-1.000000000000000048e-04,-2.000000000000000164e-05,-2.200000000000000078e-04,-2.000000000000000164e-05,-1.000000000000000082e-05,3.000000000000000000e+00,1.700000000000000000e+01
4.161300000000000000e+04,-1.000000000000000082e-05,-1.000000000000000082e-05,-8.000000000000000654e-05,-1.000000000000000048e-04,-2.000000000000000164e-05,-2.200000000000000078e-04,-2.000000000000000164e-05,-1.000000000000000082e-05,3.000000000000000000e+00,1.700000000000000000e+01
4.161400000000000000e+04,-1.000000000000000082e-05,-1.000000000000000082e-05,-8.000000000000000654e-05,-1.000000000000000048e-04,-2.000000000000000164e-05,-2.200000000000000078e-04,-2.000000000000000164e-05,-1.000000000000000082e-05,3.000000000000000000e+00,1.700000000000000000e+01
4.161500000000000000e+04,-1.000000000000000082e-05,-1.000000000000000082e-05,-8.000000000000000654e-05,-1.000000000000000048e-04,-2.000000000000000164e-05,-2.200000000000000078e-04,-2.000000000000000164e-05,-1.000000000000000082e-05,3.000000000000000000e+00,1.700000000000000000e+01
4.161600000000000000e+04,-1.000000000000000082e-05,-1.000000000000000082e-05,-8.000000000000000654e-05,-1.000000000000000048e-04,-2.000000000000000164e-05,-2.200000000000000078e-04,-2.000000000000000164e-05,-1.000000000000000082e-05,3.000000000000000000e+00,1.700000000000000000e+01
4.161700000000000000e+04,-1.000000000000000082e-05,-1.000000000000000082e-05,-8.000000000000000654e-05,-1.000000000000000048e-04,-2.000000000000000164e-05,-2.200000000000000078e-04,-2.000000000000000164e-05,-1.000000000000000082e-05,3.000000000000000000e+00,1.700000000000000000e+01
4.161800000000000000e+04,1.000000000000000082e-05,-1.000000000000000082e-05,-2.000000000000000164e-05,-9.000000000000000567e-05,-2.999999999999999737e-05,-6.999999999999999387e-05,0.000000000000000000e+00,-1.000000000000000082e-05,3.000000000000000000e+00,1.700000000000000000e+01
4.161900000000000000e+04,1.000000000000000082e-05,-1.000000000000000082e-05,-2.000000000000000164e-05,-9.000000000000000567e-05,-2.999999999999999737e-05,-6.999999999999999387e-05,0.000000000000000000e+00,-1.000000000000000082e-05,3.000000000000000000e+00,1.700000000000000000e+01
4.162000000000000000e+04,-2.999999999999999737e-05,-2.999999999999999737e-05,-2.000000000000000164e-05,2.999999999999999737e-05,-6.999999999999999387e-05,-6.999999999999999387e-05,0.000000000000000000e+00,-1.000000000000000082e-05,3.000000000000000000e+00,1.700000000000000000e+01
4.162100000000000000e+04,-2.000000000000000164e-05,0.000000000000000000e+00,0.000000000000000000e+00,-1.000000000000000082e-05,6.999999999999999387e-05,1.300000000000000157e-04,2.999999999999999737e-05,0.000000000000000000e+00,3.000000000000000000e+00,1.700000000000000000e+01
4.162200000000000000e+04,-2.000000000000000164e-05,0.000000000000000000e+00,0.000000000000000000e+00,-1.000000000000000082e-05,6.999999999999999387e-05,1.300000000000000157e-04,2.999999999999999737e-05,0.000000000000000000e+00,3.000000000000000000e+00,1.700000000000000000e+01
4.162300000000000000e+04,-2.000000000000000164e-05,0.000000000000000000e+00,0.000000000000000000e+00,-1.000000000000000082e-05,6.999999999999999387e-05,1.300000000000000157e-04,2.999999999999999737e-05,0.000000000000000000e+00,3.000000000000000000e+00,1.700000000000000000e+01
4.162400000000000000e+04,-2.000000000000000164e-05,0.000000000000000000e+00,0.000000000000000000e+00,-1.000000000000000082e-05,6.999999999999999387e-05,1.300000000000000157e-04,2.999999999999999737e-05,0.000000000000000000e+00,3.000000000000000000e+00,1.700000000000000000e+01
4.162500000000000000e+04,-2.000000000000000164e-05,0.000000000000000000e+00,0.000000000000000000e+00,-1.000000000000000082e-05,6.999999999999999387e-05,1.300000000000000157e-04,2.999999999999999737e-05,0.000000000000000000e+00,3.000000000000000000e+00,1.700000000000000000e+01
4.162600000000000000e+04,-2.000000000000000164e-05,0.000000000000000000e+00,0.000000000000000000e+00,-1.000000000000000082e-05,6.999999999999999387e-05,1.300000000000000157e-04,2.999999999999999737e-05,0.000000000000000000e+00,3.000000000000000000e+00,1.700000000000000000e+01
4.162700000000000000e+04,-2.000000000000000164e-05,0.000000000000000000e+00,0.000000000000000000e+00,-1.000000000000000082e-05,6.999999999999999387e-05,1.300000000000000157e-04,2.999999999999999737e-05,0.000000000000000000e+00,3.000000000000000000e+00,1.700000000000000000e+01
4.162800000000000000e+04,-2.000000000000000164e-05,0.000000000000000000e+00,0.000000000000000000e+00,-1.000000000000000082e-05,6.999999999999999387e-05,1.300000000000000157e-04,2.999999999999999737e-05,0.000000000000000000e+00,3.000000000000000000e+00,1.700000000000000000e+01
4.162900000000000000e+04,-2.000000000000000164e-05,0.000000000000000000e+00,0.000000000000000000e+00,-1.000000000000000082e-05,6.999999999999999387e-05,1.300000000000000157e-04,2.999999999999999737e-05,0.000000000000000000e+00,3.000000000000000000e+00,1.700000000000000000e+01
4.163000000000000000e+04,-2.000000000000000164e-05,0.000000000000000000e+00,0.000000000000000000e+00,-1.000000000000000082e-05,6.999999999999999387e-05,1.300000000000000157e-04,2.999999999999999737e-05,0.000000000000000000e+00,3.000000000000000000e+00,1.700000000000000000e+01
4.163100000000000000e+04,-2.000000000000000164e-05,0.000000000000000000e+00,0.000000000000000000e+00,-1.000000000000000082e-05,6.999999999999999387e-05,1.300000000000000157e-04,2.999999999999999737e-05,0.000000000000000000e+00,3.000000000000000000e+00,1.700000000000000000e+01
4.163200000000000000e+04,-2.000000000000000164e-05,0.000000000000000000e+00,0.000000000000000000e+00,-1.000000000000000082e-05,6.999999999999999387e-05,1.300000000000000157e-04,2.999999999999999737e-05,0.000000000000000000e+00,3.000000000000000000e+00,1.700000000000000000e+01
4.163300000000000000e+04,-2.000000000000000164e-05,0.000000000000000000e+00,0.000000000000000000e+00,-1.000000000000000082e-05,6.999999999999999387e-05,1.300000000000000157e-04,2.999999999999999737e-05,0.000000000000000000e+00,3.000000000000000000e+00,1.700000000000000000e+01
4.163400000000000000e+04,-2.000000000000000164e-05,0.000000000000000000e+00,0.000000000000000000e+00,-1.000000000000000082e-05,6.999999999999999387e-05,1.300000000000000157e-04,2.999999999999999737e-05,0.000000000000000000e+00,3.000000000000000000e+00,1.700000000000000000e+01
4.163500000000000000e+04,-2.000000000000000164e-05,0.000000000000000000e+00,0.000000000000000000e+00,-1.000000000000000082e-05,6.999999999999999387e-05,1.300000000000000157e-04,2.999999999999999737e-05,0.000000000000000000e+00,3.000000000000000000e+00,1.700000000000000000e+01
4.163700000000000000e+04,-2.000000000000000164e-05,0.000000000000000000e+00,0.000000000000000000e+00,-1.000000000000000082e-05,6.999999999999999387e-05,1.300000000000000157e-04,2.999999999999999737e-05,0.000000000000000000e+00,3.000000000000000000e+00,1.700000000000000000e+01
4.163900000000000000e+04,-2.000000000000000164e-05,0.000000000000000000e+00,0.000000000000000000e+00,-1.000000000000000082e-05,6.999999999999999387e-05,1.300000000000000157e-04,2.999999999999999737e-05,0.000000000000000000e+00,3.000000000000000000e+00,1.700000000000000000e+01
4.164000000000000000e+04,-2.000000000000000164e-05,0.000000000000000000e+00,0.000000000000000000e+00,-1.000000000000000082e-05,6.999999999999999387e-05,1.300000000000000157e-04,2.999999999999999737e-05,0.000000000000000000e+00,3.000000000000000000e+00,1.700000000000000000e+01
4.164100000000000000e+04,-1.000000000000000082e-05,-2.000000000000000164e-05,0.000000000000000000e+00,2.999999999999999737e-05,-1.000000000000000082e-05,2.000000000000000164e-05,-2.000000000000000164e-05,-1.000000000000000082e-05,3.000000000000000000e+00,1.700000000000000000e+01
4.164200000000000000e+04,0.000000000000000000e+00,-1.000000000000000082e-05,2.000000000000000164e-05,2.000000000000000164e-05,-2.000000000000000164e-05,-6.999999999999999387e-05,-2.999999999999999737e-05,-2.999999999999999737e-05,3.000000000000000000e+00,1.700000000000000000e+01
4.164300000000000000e+04,1.000000000000000082e-05,-1.000000000000000082e-05,1.000000000000000082e-05,1.300000000000000157e-04,2.000000000000000164e-05,1.600000000000000131e-04,-1.000000000000000082e-05,0.000000000000000000e+00,3.000000000000000000e+00,1.700000000000000000e+01
4.164400000000000000e+04,1.000000000000000082e-05,-1.000000000000000082e-05,1.000000000000000082e-05,1.300000000000000157e-04,2.000000000000000164e-05,1.600000000000000131e-04,-1.000000000000000082e-05,0.000000000000000000e+00,3.000000000000000000e+00,1.700000000000000000e+01
4.164500000000000000e+04,1.000000000000000082e-05,-1.000000000000000082e-05,1.000000000000000082e-05,1.300000000000000157e-04,2.000000000000000164e-05,1.600000000000000131e-04,-1.000000000000000082e-05,0.000000000000000000e+00,3.000000000000000000e+00,1.700000000000000000e+01
4.164600000000000000e+04,1.000000000000000082e-05,-1.000000000000000082e-05,1.000000000000000082e-05,1.300000000000000157e-04,2.000000000000000164e-05,1.600000000000000131e-04,-1.000000000000000082e-05,0.000000000000000000e+00,3.000000000000000000e+00,1.700000000000000000e+01
4.164700000000000000e+04,1.000000000000000082e-05,-1.000000000000000082e-05,1.000000000000000082e-05,1.300000000000000157e-04,2.000000000000000164e-05,1.600000000000000131e-04,-1.000000000000000082e-05,0.000000000000000000e+00,3.000000000000000000e+00,1.700000000000000000e+01
4.164800000000000000e+04,1.000000000000000082e-05,-1.000000000000000082e-05,1.000000000000000082e-05,1.300000000000000157e-04,2.000000000000000164e-05,1.600000000000000131e-04,-1.000000000000000082e-05,0.000000000000000000e+00,3.000000000000000000e+00,1.700000000000000000e+01
4.164900000000000000e+04,1.000000000000000082e-05,-1.000000000000000082e-05,1.000000000000000082e-05,1.300000000000000157e-04,2.000000000000000164e-05,1.600000000000000131e-04,-1.000000000000000082e-05,0.000000000000000000e+00,3.000000000000000000e+00,1.700000000000000000e+01
4.165000000000000000e+04,1.000000000000000082e-05,-1.000000000000000082e-05,1.000000000000000082e-05,1.300000000000000157e-04,2.000000000000000164e-05,1.600000000000000131e-04,-1.000000000000000082e-05,0.000000000000000000e+00,3.000000000000000000e+00,1.700000000000000000e+01
4.165100000000000000e+04,1.000000000000000082e-05,-1.000000000000000082e-05,1.000000000000000082e-05,1.300000000000000157e-04,2.000000000000000164e-05,1.600000000000000131e-04,-1.000000000000000082e-05,0.000000000000000000e+00,3.000000000000000000e+00,1.700000000000000000e+01
4.165200000000000000e+04,1.000000000000000082e-05,-1.000000000000000082e-05,1.000000000000000082e-05,1.300000000000000157e-04,2.000000000000000164e-05,1.600000000000000131e-04,-1.000000000000000082e-05,0.000000000000000000e+00,3.000000000000000000e+00,1.700000000000000000e+01
4.165300000000000000e+04,1.000000000000000082e-05,-1.000000000000000082e-05,1.000000000000000082e-05,1.300000000000000157e-04,2.000000000000000164e-05,1.600000000000000131e-04,-1.000000000000000082e-05,0.000000000000000000e+00,3.000000000000000000e+00,1.700000000000000000e+01
4.165400000000000000e+04,1.000000000000000082e-05,-1.000000000000000082e-05,1.000000000000000082e-05,1.300000000000000157e-04,2.000000000000000164e-05,1.600000000000000131e-04,-1.000000000000000082e-05,0.000000000000000000e+00,3.000000000000000000e+00,1.700000000000000000e+01
4.165500000000000000e+04,1.000000000000000082e-05,-1.000000000000000082e-05,1.000000000000000082e-05,1.300000000000000157e-04,2.000000000000000164e-05,1.600000000000000131e-04,-1.000000000000000082e-05,0.000000000000000000e+00,3.000000000000000000e+00,1.700000000000000000e+01
4.165600000000000000e+04,1.000000000000000082e-05,-1.000000000000000082e-05,1.000000000000000082e-05,1.300000000000000157e-04,2.000000000000000164e-05,1.600000000000000131e-04,-1.000000000000000082e-05,0.000000000000000000e+00,3.000000000000000000e+00,1.700000000000000000e+01
4.165700000000000000e+04,1.000000000000000082e-05,-1.000000000000000082e-05,1.000000000000000082e-05,1.300000000000000157e-04,2.000000000000000164e-05,1.600000000000000131e-04,-1.000000000000000082e-05,0.000000000000000000e+00,3.000000000000000000e+00,1.700000000000000000e+01
4.165800000000000000e+04,1.000000000000000082e-05,-1.000000000000000082e-05,1.000000000000000082e-05,1.300000000000000157e-04,2.000000000000000164e-05,1.600000000000000131e-04,-1.000000000000000082e-05,0.000000000000000000e+00,3.000000000000000000e+00,1.700000000000000000e+01
4.165900000000000000e+04,1.000000000000000082e-05,-1.000000000000000082e-05,1.000000000000000082e-05,1.300000000000000157e-04,2.000000000000000164e-05,1.600000000000000131e-04,-1.000000000000000082e-05,0.000000000000000000e+00,3.000000000000000000e+00,1.700000000000000000e+01
4.166000000000000000e+04,1.000000000000000082e-05,-1.000000000000000082e-05,1.000000000000000082e-05,1.300000000000000157e-04,2.000000000000000164e-05,1.600000000000000131e-04,-1.000000000000000082e-05,0.000000000000000000e+00,3.000000000000000000e+00,1.700000000000000000e+01
4.166100000000000000e+04,1.000000000000000082e-05,-1.000000000000000082e-05,1.000000000000000082e-05,1.300000000000000157e-04,2.000000000000000164e-05,1.600000000000000131e-04,-1.000000000000000082e-05,0.000000000000000000e+00,3.000000000000000000e+00,1.700000000000000000e+01
4.166200000000000000e+04,1.000000000000000082e-05,-1.000000000000000082e-05,1.000000000000000082e-05,1.300000000000000157e-04,2.000000000000000164e-05,1.600000000000000131e-04,-1.000000000000000082e-05,0.000000000000000000e+00,3.000000000000000000e+00,1.700000000000000000e+01
4.166300000000000000e+04,-1.000000000000000082e-05,-2.999999999999999737e-05,-1.000000000000000082e-05,1.000000000000000082e-05,-1.000000000000000082e-05,2.299999999999999799e-04,1.000000000000000082e-05,0.000000000000000000e+00,3.000000000000000000e+00,1.700000000000000000e+01
4.166400000000000000e+04,-1.000000000000000082e-05,-2.999999999999999737e-05,-1.000000000000000082e-05,1.000000000000000082e-05,-1.000000000000000082e-05,2.299999999999999799e-04,1.000000000000000082e-05,0.000000000000000000e+00,3.000000000000000000e+00,1.700000000000000000e+01
4.166500000000000000e+04,-1.000000000000000082e-05,-2.999999999999999737e-05,2.999999999999999737e-05,-1.000000000000000048e-04,-5.000000000000000240e-05,3.099999999999999999e-04,0.000000000000000000e+00,-1.000000000000000082e-05,3.000000000000000000e+00,1.700000000000000000e+01
4.166600000000000000e+04,-1.000000000000000082e-05,-2.999999999999999737e-05,2.999999999999999737e-05,-1.000000000000000048e-04,-5.000000000000000240e-05,3.099999999999999999e-04,0.000000000000000000e+00,-1.000000000000000082e-05,3.000000000000000000e+00,1.700000000000000000e+01
4.166700000000000000e+04,-1.000000000000000082e-05,-2.999999999999999737e-05,2.999999999999999737e-05,-1.000000000000000048e-04,-5.000000000000000240e-05,3.099999999999999999e-04,0.000000000000000000e+00,-1.000000000000000082e-05,3.000000000000000000e+00,1.700000000000000000e+01
4.166800000000000000e+04,-1.000000000000000082e-05,-2.999999999999999737e-05,2.999999999999999737e-05,-1.000000000000000048e-04,-5.000000000000000240e-05,3.099999999999999999e-04,0.000000000000000000e+00,-1.000000000000000082e-05,3.000000000000000000e+00,1.700000000000000000e+01
4.166900000000000000e+04,-1.000000000000000082e-05,-2.999999999999999737e-05,2.999999999999999737e-05,-1.000000000000000048e-04,-5.000000000000000240e-05,3.099999999999999999e-04,0.000000000000000000e+00,-1.000000000000000082e-05,3.000000000000000000e+00,1.700000000000000000e+01
4.167000000000000000e+04,-1.000000000000000082e-05,-2.999999999999999737e-05,2.999999999999999737e-05,-1.000000000000000048e-04,-5.000000000000000240e-05,3.099999999999999999e-04,0.000000000000000000e+00,-1.000000000000000082e-05,3.000000000000000000e+00,1.700000000000000000e+01
4.167100000000000000e+04,-1.000000000000000082e-05,-2.999999999999999737e-05,2.999999999999999737e-05,-1.000000000000000048e-04,-5.000000000000000240e-05,3.099999999999999999e-04,0.000000000000000000e+00,-1.000000000000000082e-05,3.000000000000000000e+00,1.700000000000000000e+01
4.167200000000000000e+04,-1.000000000000000082e-05,-2.999999999999999737e-05,2.999999999999999737e-05,-1.000000000000000048e-04,-5.000000000000000240e-05,3.099999999999999999e-04,0.000000000000000000e+00,-1.000000000000000082e-05,3.000000000000000000e+00,1.700000000000000000e+01
4.167300000000000000e+04,-1.000000000000000082e-05,-2.999999999999999737e-05,2.999999999999999737e-05,-1.000000000000000048e-04,-5.000000000000000240e-05,3.099999999999999999e-04,0.000000000000000000e+00,-1.000000000000000082e-05,3.000000000000000000e+00,1.700000000000000000e+01
4.167400000000000000e+04,-1.000000000000000082e-05,-2.999999999999999737e-05,2.999999999999999737e-05,-1.000000000000000048e-04,-5.000000000000000240e-05,3.099999999999999999e-04,0.000000000000000000e+00,-1.000000000000000082e-05,3.000000000000000000e+00,1.700000000000000000e+01
4.167500000000000000e+04,-1.000000000000000082e-05,-2.999999999999999737e-05,2.999999999999999737e-05,-1.000000000000000048e-04,-5.000000000000000240e-05,3.099999999999999999e-04,0.000000000000000000e+00,-1.000000000000000082e-05,3.000000000000000000e+00,1.700000000000000000e+01
4.167600000000000000e+04,-1.000000000000000082e-05,-2.999999999999999737e-05,2.999999999999999737e-05,-1.000000000000000048e-04,-5.000000000000000240e-05,3.099999999999999999e-04,0.000000000000000000e+00,-1.000000000000000082e-05,3.000000000000000000e+00,1.700000000000000000e+01
4.167700000000000000e+04,-1.000000000000000082e-05,-2.999999999999999737e-05,2.999999999999999737e-05,-1.000000000000000048e-04,-5.000000000000000240e-05,3.099999999999999999e-04,0.000000000000000000e+00,-1.000000000000000082e-05,3.000000000000000000e+00,1.700000000000000000e+01
4.167800000000000000e+04,0.000000000000000000e+00,0.000000000000000000e+00,-1.000000000000000082e-05,5.999999999999999474e-05,-2.000000000000000164e-05,-5.999999999999999474e-05,-2.000000000000000164e-05,-2.000000000000000164e-05,3.000000000000000000e+00,1.700000000000000000e+01
4.167900000000000000e+04,0.000000000000000000e+00,1.000000000000000082e-05,1.000000000000000082e-05,2.000000000000000164e-05,0.000000000000000000e+00,-5.000000000000000240e-05,0.000000000000000000e+00,-2.000000000000000164e-05,3.000000000000000000e+00,1.700000000000000000e+01
4.168000000000000000e+04,-2.999999999999999737e-05,-2.000000000000000164e-05,-4.000000000000000327e-05,2.000000000000000164e-05,-2.999999999999999737e-05,-5.000000000000000240e-05,0.000000000000000000e+00,-2.000000000000000164e-05,3.000000000000000000e+00,1.700000000000000000e+01
4.168100000000000000e+04,-2.999999999999999737e-05,-2.000000000000000164e-05,-4.000000000000000327e-05,2.000000000000000164e-05,-2.999999999999999737e-05,-5.000000000000000240e-05,0.000000000000000000e+00,-2.000000000000000164e-05,3.000000000000000000e+00,1.700000000000000000e+01
4.168200000000000000e+04,-2.999999999999999737e-05,-2.000000000000000164e-05,-4.000000000000000327e-05,2.000000000000000164e-05,-2.999999999999999737e-05,-5.000000000000000240e-05,0.000000000000000000e+00,-2.000000000000000164e-05,3.000000000000000000e+00,1.700000000000000000e+01
4.168300000000000000e+04,-2.999999999999999737e-05,-2.000000000000000164e-05,-4.000000000000000327e-05,2.000000000000000164e-05,-2.999999999999999737e-05,-5.000000000000000240e-05,0.000000000000000000e+00,-2.000000000000000164e-05,3.000000000000000000e+00,1.700000000000000000e+01
4.168400000000000000e+04,-2.999999999999999737e-05,-2.000000000000000164e-05,-4.000000000000000327e-05,2.000000000000000164e-05,-2.999999999999999737e-05,-5.000000000000000240e-05,0.000000000000000000e+00,-2.000000000000000164e-05,3.000000000000000000e+00,1.700000000000000000e+01
4.168500000000000000e+04,-2.999999999999999737e-05,-2.000000000000000164e-05,-4.000000000000000327e-05,2.000000000000000164e-05,-2.999999999999999737e-05,-5.000000000000000240e-05,0.000000000000000000e+00,-2.000000000000000164e-05,3.000000000000000000e+00,1.700000000000000000e+01
4.168600000000000000e+04,-2.999999999999999737e-05,-2.000000000000000164e-05,-4.000000000000000327e-05,2.000000000000000164e-05,-2.999999999999999737e-05,-5.000000000000000240e-05,0.000000000000000000e+00,-2.000000000000000164e-05,3.000000000000000000e+00,1.700000000000000000e+01
4.168800000000000000e+04,-2.999999999999999737e-05,-2.000000000000000164e-05,-4.000000000000000327e-05,2.000000000000000164e-05,-2.999999999999999737e-05,-5.000000000000000240e-05,0.000000000000000000e+00,-2.000000000000000164e-05,3.000000000000000000e+00,1.700000000000000000e+01
4.168900000000000000e+04,-2.999999999999999737e-05,-2.000000000000000164e-05,-4.000000000000000327e-05,2.000000000000000164e-05,-2.999999999999999737e-05,-5.000000000000000240e-05,0.000000000000000000e+00,-2.000000000000000164e-05,3.000000000000000000e+00,1.700000000000000000e+01
4.169000000000000000e+04,-2.999999999999999737e-05,-2.000000000000000164e-05,-4.000000000000000327e-05,2.000000000000000164e-05,-2.999999999999999737e-05,-5.000000000000000240e-05,0.000000000000000000e+00,-2.000000000000000164e-05,3.000000000000000000e+00,1.700000000000000000e+01
4.169100000000000000e+04,-2.999999999999999737e-05,-2.000000000000000164e-05,-4.000000000000000327e-05,2.000000000000000164e-05,-2.999999999999999737e-05,-5.000000000000000240e-05,0.000000000000000000e+00,-2.000000000000000164e-05,3.000000000000000000e+00,1.700000000000000000e+01
4.169200000000000000e+04,-2.999999999999999737e-05,-2.000000000000000164e-05,-4.000000000000000327e-05,2.000000000000000164e-05,-2.999999999999999737e-05,-5.000000000000000240e-05,0.000000000000000000e+00,-2.000000000000000164e-05,3.000000000000000000e+00,1.700000000000000000e+01
4.169300000000000000e+04,-2.999999999999999737e-05,-2.000000000000000164e-05,-4.000000000000000327e-05,2.000000000000000164e-05,-2.999999999999999737e-05,-5.000000000000000240e-05,0.000000000000000000e+00,-2.000000000000000164e-05,3.000000000000000000e+00,1.700000000000000000e+01
4.169400000000000000e+04,-2.999999999999999737e-05,-2.000000000000000164e-05,-4.000000000000000327e-05,2.000000000000000164e-05,-2.999999999999999737e-05,-5.000000000000000240e-05,0.000000000000000000e+00,-2.000000000000000164e-05,3.000000000000000000e+00,1.700000000000000000e+01
4.169500000000000000e+04,-2.999999999999999737e-05,-2.000000000000000164e-05,-4.000000000000000327e-05,2.000000000000000164e-05,-2.999999999999999737e-05,-5.000000000000000240e-05,0.000000000000000000e+00,-2.000000000000000164e-05,3.000000000000000000e+00,1.700000000000000000e+01
4.169600000000000000e+04,-2.999999999999999737e-05,-2.000000000000000164e-05,-4.000000000000000327e-05,2.000000000000000164e-05,-2.999999999999999737e-05,-5.000000000000000240e-05,0.000000000000000000e+00,-2.000000000000000164e-05,3.000000000000000000e+00,1.700000000000000000e+01
4.169700000000000000e+04,-2.999999999999999737e-05,-2.000000000000000164e-05,-4.000000000000000327e-05,2.000000000000000164e-05,-2.999999999999999737e-05,-5.000000000000000240e-05,0.000000000000000000e+00,-2.000000000000000164e-05,3.000000000000000000e+00,1.700000000000000000e+01
4.169800000000000000e+04,-2.999999999999999737e-05,-2.000000000000000164e-05,-4.000000000000000327e-05,2.000000000000000164e-05,-2.999999999999999737e-05,-5.000000000000000240e-05,0.000000000000000000e+00,-2.000000000000000164e-05,3.000000000000000000e+00,1.700000000000000000e+01
4.169900000000000000e+04,-2.999999999999999737e-05,-2.000000000000000164e-05,-4.000000000000000327e-05,2.000000000000000164e-05,-2.999999999999999737e-05,-5.000000000000000240e-05,0.000000000000000000e+00,-2.000000000000000164e-05,3.000000000000000000e+00,1.700000000000000000e+01
4.170000000000000000e+04,-2.999999999999999737e-05,-2.000000000000000164e-05,-4.000000000000000327e-05,2.000000000000000164e-05,-2.999999999999999737e-05,-5.000000000000000240e-05,0.000000000000000000e+00,-2.000000000000000164e-05,3.000000000000000000e+00,1.700000000000000000e+01
4.170100000000000000e+04,1.000000000000000082e-05,-2.000000000000000164e-05,1.000000000000000082e-05,1.100000000000000039e-04,5.000000000000000240e-05,0.000000000000000000e+00,0.000000000000000000e+00,0.000000000000000000e+00,3.000000000000000000e+00,1.700000000000000000e+01
4.170200000000000000e+04,1.000000000000000082e-05,-2.000000000000000164e-05,1.000000000000000082e-05,1.100000000000000039e-04,5.000000000000000240e-05,0.000000000000000000e+00,0.000000000000000000e+00,0.000000000000000000e+00,3.000000000000000000e+00,1.700000000000000000e+01
4.170300000000000000e+04,0.000000000000000000e+00,-1.000000000000000082e-05,-1.000000000000000082e-05,-5.000000000000000240e-05,1.000000000000000082e-05,-1.100000000000000039e-04,-2.000000000000000164e-05,-1.000000000000000082e-05,3.000000000000000000e+00,1.700000000000000000e+01
4.170400000000000000e+04,0.000000000000000000e+00,-1.000000000000000082e-05,-1.000000000000000082e-05,-5.000000000000000240e-05,1.000000000000000082e-05,-1.100000000000000039e-04,-2.000000000000000164e-05,-1.000000000000000082e-05,3.000000000000000000e+00,1.700000000000000000e+01
4.170500000000000000e+04,0.000000000000000000e+00,-1.000000000000000082e-05,-1.000000000000000082e-05,-5.000000000000000240e-05,1.000000000000000082e-05,-1.100000000000000039e-04,-2.000000000000000164e-05,-1.000000000000000082e-05,3.000000000000000000e+00,1.700000000000000000e+01
4.170600000000000000e+04,0.000000000000000000e+00,-1.000000000000000082e-05,-1.000000000000000082e-05,-5.000000000000000240e-05,1.000000000000000082e-05,-1.100000000000000039e-04,-2.000000000000000164e-05,-1.000000000000000082e-05,3.000000000000000000e+00,1.700000000000000000e+01
4.170700000000000000e+04,0.000000000000000000e+00,-1.000000000000000082e-05,-1.000000000000000082e-05,-5.000000000000000240e-05,1.000000000000000082e-05,-1.100000000000000039e-04,-2.000000000000000164e-05,-1.000000000000000082e-05,3.000000000000000000e+00,1.700000000000000000e+01
4.170800000000000000e+04,0.000000000000000000e+00,-1.000000000000000082e-05,-1.000000000000000082e-05,-5.000000000000000240e-05,1.000000000000000082e-05,-1.100000000000000039e-04,-2.000000000000000164e-05,-1.000000000000000082e-05,3.000000000000000000e+00,1.700000000000000000e+01
4.170900000000000000e+04,0.000000000000000000e+00,-1.000000000000000082e-05,-1.000000000000000082e-05,-5.000000000000000240e-05,1.000000000000000082e-05,-1.100000000000000039e-04,-2.000000000000000164e-05,-1.000000000000000082e-05,3.000000000000000000e+00,1.700000000000000000e+01
4.171000000000000000e+04,0.000000000000000000e+00,-1.000000000000000082e-05,-1.000000000000000082e-05,-5.000000000000000240e-05,1.000000000000000082e-05,-1.100000000000000039e-04,-2.000000000000000164e-05,-1.000000000000000082e-05,3.000000000000000000e+00,1.700000000000000000e+01
4.171100000000000000e+04,0.000000000000000000e+00,-1.000000000000000082e-05,-1.000000000000000082e-05,-5.000000000000000240e-05,1.000000000000000082e-05,-1.100000000000000039e-04,-2.000000000000000164e-05,-1.000000000000000082e-05,3.000000000000000000e+00,1.700000000000000000e+01
4.171200000000000000e+04,0.000000000000000000e+00,-1.000000000000000082e-05,-1.000000000000000082e-05,-5.000000000000000240e-05,1.000000000000000082e-05,-1.100000000000000039e-04,-2.000000000000000164e-05,-1.000000000000000082e-05,3.000000000000000000e+00,1.700000000000000000e+01
4.171300000000000000e+04,0.000000000000000000e+00,-1.000000000000000082e-05,-1.000000000000000082e-05,-5.000000000000000240e-05,1.000000000000000082e-05,-1.100000000000000039e-04,-2.000000000000000164e-05,-1.000000000000000082e-05,3.000000000000000000e+00,1.700000000000000000e+01
4.171400000000000000e+04,0.000000000000000000e+00,-1.000000000000000082e-05,-1.000000000000000082e-05,-5.000000000000000240e-05,1.000000000000000082e-05,-1.100000000000000039e-04,-2.000000000000000164e-05,-1.000000000000000082e-05,3.000000000000000000e+00,1.700000000000000000e+01
4.171500000000000000e+04,0.000000000000000000e+00,2.000000000000000164e-05,0.000000000000000000e+00,5.999999999999999474e-05,-4.000000000000000327e-05,-1.100000000000000039e-04,-1.000000000000000082e-05,-1.000000000000000082e-05,3.000000000000000000e+00,1.700000000000000000e+01
4.171600000000000000e+04,0.000000000000000000e+00,2.000000000000000164e-05,0.000000000000000000e+00,5.999999999999999474e-05,-4.000000000000000327e-05,-1.100000000000000039e-04,-1.000000000000000082e-05,-1.000000000000000082e-05,3.000000000000000000e+00,1.700000000000000000e+01
4.171700000000000000e+04,0.000000000000000000e+00,2.000000000000000164e-05,0.000000000000000000e+00,5.999999999999999474e-05,-4.000000000000000327e-05,-1.100000000000000039e-04,-1.000000000000000082e-05,-1.000000000000000082e-05,3.000000000000000000e+00,1.700000000000000000e+01
4.171800000000000000e+04,0.000000000000000000e+00,2.000000000000000164e-05,0.000000000000000000e+00,5.999999999999999474e-05,-4.000000000000000327e-05,-1.100000000000000039e-04,-1.000000000000000082e-05,-1.000000000000000082e-05,3.000000000000000000e+00,1.700000000000000000e+01
4.171900000000000000e+04,0.000000000000000000e+00,2.000000000000000164e-05,0.000000000000000000e+00,5.999999999999999474e-05,-4.000000000000000327e-05,-1.100000000000000039e-04,-1.000000000000000082e-05,-1.000000000000000082e-05,3.000000000000000000e+00,1.700000000000000000e+01
4.172000000000000000e+04,0.000000000000000000e+00,2.000000000000000164e-05,0.000000000000000000e+00,5.999999999999999474e-05,-4.000000000000000327e-05,-1.100000000000000039e-04,-1.000000000000000082e-05,-1.000000000000000082e-05,3.000000000000000000e+00,1.700000000000000000e+01
4.172100000000000000e+04,0.000000000000000000e+00,2.000000000000000164e-05,0.000000000000000000e+00,5.999999999999999474e-05,-4.000000000000000327e-05,-1.100000000000000039e-04,-1.000000000000000082e-05,-1.000000000000000082e-05,3.000000000000000000e+00,1.700000000000000000e+01
4.172200000000000000e+04,0.000000000000000000e+00,-1.000000000000000082e-05,0.000000000000000000e+00,-9.000000000000000567e-05,0.000000000000000000e+00,-1.000000000000000082e-05,-2.000000000000000164e-05,-2.999999999999999737e-05,3.000000000000000000e+00,1.700000000000000000e+01
4.172300000000000000e+04,0.000000000000000000e+00,-1.000000000000000082e-05,0.000000000000000000e+00,-9.000000000000000567e-05,0.000000000000000000e+00,-1.000000000000000082e-05,-2.000000000000000164e-05,-2.999999999999999737e-05,3.000000000000000000e+00,1.700000000000000000e+01
4.172400000000000000e+04,0.000000000000000000e+00,-1.000000000000000082e-05,0.000000000000000000e+00,-9.000000000000000567e-05,0.000000000000000000e+00,-1.000000000000000082e-05,-2.000000000000000164e-05,-2.999999999999999737e-05,3.000000000000000000e+00,1.700000000000000000e+01
4.172500000000000000e+04,0.000000000000000000e+00,-1.000000000000000082e-05,0.000000000000000000e+00,-9.000000000000000567e-05,0.000000000000000000e+00,-1.000000000000000082e-05,-2.000000000000000164e-05,-2.999999999999999737e-05,3.000000000000000000e+00,1.700000000000000000e+01
4.172600000000000000e+04,0.000000000000000000e+00,-1.000000000000000082e-05,0.000000000000000000e+00,-9.000000000000000567e-05,0.000000000000000000e+00,-1.000000000000000082e-05,-2.000000000000000164e-05,-2.999999999999999737e-05,3.000000000000000000e+00,1.700000000000000000e+01
4.172700000000000000e+04,0.000000000000000000e+00,-1.000000000000000082e-05,0.000000000000000000e+00,-9.000000000000000567e-05,0.000000000000000000e+00,-1.000000000000000082e-05,-2.000000000000000164e-05,-2.999999999999999737e-05,3.000000000000000000e+00,1.700000000000000000e+01
4.172800000000000000e+04,0.000000000000000000e+00,-1.000000000000000082e-05,0.000000000000000000e+00,-9.000000000000000567e-05,0.000000000000000000e+00,-1.000000000000000082e-05,-2.000000000000000164e-05,-2.999999999999999737e-05,3.000000000000000000e+00,1.700000000000000000e+01
4.172900000000000000e+04,0.000000000000000000e+00,-1.000000000000000082e-05,0.000000000000000000e+00,-9.000000000000000567e-05,0.000000000000000000e+00,-1.000000000000000082e-05,-2.000000000000000164e-05,-2.999999999999999737e-05,3.000000000000000000e+00,1.700000000000000000e+01
4.173000000000000000e+04,0.000000000000000000e+00,-1.000000000000000082e-05,0.000000000000000000e+00,-9.000000000000000567e-05,0.000000000000000000e+00,-1.000000000000000082e-05,-2.000000000000000164e-05,-2.999999999999999737e-05,3.000000000000000000e+00,1.700000000000000000e+01
4.173100000000000000e+04,0.000000000000000000e+00,-1.000000000000000082e-05,0.000000000000000000e+00,-9.000000000000000567e-05,0.000000000000000000e+00,-1.000000000000000082e-05,-2.000000000000000164e-05,-2.999999999999999737e-05,3.000000000000000000e+00,1.700000000000000000e+01
4.173200000000000000e+04,0.000000000000000000e+00,-1.000000000000000082e-05,0.000000000000000000e+00,-9.000000000000000567e-05,0.000000000000000000e+00,-1.000000000000000082e-05,-2.000000000000000164e-05,-2.999999999999999737e-05,3.000000000000000000e+00,1.700000000000000000e+01
4.173300000000000000e+04,0.000000000000000000e+00,-1.000000000000000082e-05,0.000000000000000000e+00,-9.000000000000000567e-05,0.000000000000000000e+00,-1.000000000000000082e-05,-2.000000000000000164e-05,-2.999999999999999737e-05,3.000000000000000000e+00,1.700000000000000000e+01
4.173400000000000000e+04,0.000000000000000000e+00,-1.000000000000000082e-05,0.000000000000000000e+00,-9.000000000000000567e-05,0.000000000000000000e+00,-1.000000000000000082e-05,-2.000000000000000164e-05,-2.999999999999999737e-05,3.000000000000000000e+00,1.700000000000000000e+01
4.173500000000000000e+04,0.000000000000000000e+00,-1.000000000000000082e-05,0.000000000000000000e+00,-9.000000000000000567e-05,0.000000000000000000e+00,-1.000000000000000082e-05,-2.000000000000000164e-05,-2.999999999999999737e-05,3.000000000000000000e+00,1.700000000000000000e+01
4.173600000000000000e+04,0.000000000000000000e+00,-1.000000000000000082e-05,0.000000000000000000e+00,-9.000000000000000567e-05,0.000000000000000000e+00,-1.000000000000000082e-05,-2.000000000000000164e-05,-2.999999999999999737e-05,3.000000000000000000e+00,1.700000000000000000e+01
4.173800000000000000e+04,0.000000000000000000e+00,-1.000000000000000082e-05,0.000000000000000000e+00,-9.000000000000000567e-05,0.000000000000000000e+00,-1.000000000000000082e-05,-2.000000000000000164e-05,-2.999999999999999737e-05,3.000000000000000000e+00,1.700000000000000000e+01
4.173900000000000000e+04,0.000000000000000000e+00,-1.000000000000000082e-05,-1.000000000000000082e-05,-2.000000000000000164e-05,-2.999999999999999737e-05,-2.999999999999999737e-05,0.000000000000000000e+00,-1.000000000000000082e-05,3.000000000000000000e+00,1.700000000000000000e+01
4.174000000000000000e+04,0.000000000000000000e+00,-1.000000000000000082e-05,-1.000000000000000082e-05,-2.000000000000000164e-05,-2.999999999999999737e-05,-2.999999999999999737e-05,0.000000000000000000e+00,-1.000000000000000082e-05,3.000000000000000000e+00,1.700000000000000000e+01
4.174100000000000000e+04,0.000000000000000000e+00,-1.000000000000000082e-05,-1.000000000000000082e-05,-2.000000000000000164e-05,-2.999999999999999737e-05,-2.999999999999999737e-05,0.000000000000000000e+00,-1.000000000000000082e-05,3.000000000000000000e+00,1.700000000000000000e+01
4.174200000000000000e+04,0.000000000000000000e+00,-1.000000000000000082e-05,-1.000000000000000082e-05,-2.000000000000000164e-05,-2.999999999999999737e-05,-2.999999999999999737e-05,0.000000000000000000e+00,-1.000000000000000082e-05,3.000000000000000000e+00,1.700000000000000000e+01
4.174300000000000000e+04,0.000000000000000000e+00,-1.000000000000000082e-05,-1.000000000000000082e-05,-2.000000000000000164e-05,-2.999999999999999737e-05,-2.999999999999999737e-05,0.000000000000000000e+00,-1.000000000000000082e-05,3.000000000000000000e+00,1.700000000000000000e+01
4.174400000000000000e+04,-1.000000000000000082e-05,-2.000000000000000164e-05,0.000000000000000000e+00,-1.399999999999999877e-04,-5.999999999999999474e-05,-2.000000000000000164e-05,-2.000000000000000164e-05,0.000000000000000000e+00,3.000000000000000000e+00,1.700000000000000000e+01
4.174500000000000000e+04,-1.000000000000000082e-05,-2.000000000000000164e-05,0.000000000000000000e+00,-1.399999999999999877e-04,-5.999999999999999474e-05,-2.000000000000000164e-05,-2.000000000000000164e-05,0.000000000000000000e+00,3.000000000000000000e+00,1.700000000000000000e+01
4.174600000000000000e+04,-1.000000000000000082e-05,-2.000000000000000164e-05,0.000000000000000000e+00,-1.399999999999999877e-04,-5.999999999999999474e-05,-2.000000000000000164e-05,-2.000000000000000164e-05,0.000000000000000000e+00,3.000000000000000000e+00,1.700000000000000000e+01
4.174700000000000000e+04,-1.000000000000000082e-05,-2.000000000000000164e-05,0.000000000000000000e+00,-1.399999999999999877e-04,-5.999999999999999474e-05,-2.000000000000000164e-05,-2.000000000000000164e-05,0.000000000000000000e+00,3.000000000000000000e+00,1.700000000000000000e+01
4.174800000000000000e+04,-1.000000000000000082e-05,-2.000000000000000164e-05,0.000000000000000000e+00,-1.399999999999999877e-04,-5.999999999999999474e-05,-2.000000000000000164e-05,-2.000000000000000164e-05,0.000000000000000000e+00,3.000000000000000000e+00,1.700000000000000000e+01
4.174900000000000000e+04,-1.000000000000000082e-05,-2.000000000000000164e-05,0.000000000000000000e+00,-1.399999999999999877e-04,-5.999999999999999474e-05,-2.000000000000000164e-05,-2.000000000000000164e-05,0.000000000000000000e+00,3.000000000000000000e+00,1.700000000000000000e+01
4.175000000000000000e+04,-1.000000000000000082e-05,-2.000000000000000164e-05,0.000000000000000000e+00,-1.399999999999999877e-04,-5.999999999999999474e-05,-2.000000000000000164e-05,-2.000000000000000164e-05,0.000000000000000000e+00,3.000000000000000000e+00,1.700000000000000000e+01
4.175100000000000000e+04,-1.000000000000000082e-05,-2.000000000000000164e-05,0.000000000000000000e+00,-1.399999999999999877e-04,-5.999999999999999474e-05,-2.000000000000000164e-05,-2.000000000000000164e-05,0.000000000000000000e+00,3.000000000000000000e+00,1.700000000000000000e+01
4.175200000000000000e+04,-1.000000000000000082e-05,-2.000000000000000164e-05,0.000000000000000000e+00,-1.399999999999999877e-04,-5.999999999999999474e-05,-2.000000000000000164e-05,-2.000000000000000164e-05,0.000000000000000000e+00,3.000000000000000000e+00,1.700000000000000000e+01
4.175300000000000000e+04,-1.000000000000000082e-05,-2.000000000000000164e-05,0.000000000000000000e+00,-1.399999999999999877e-04,-5.999999999999999474e-05,-2.000000000000000164e-05,-2.000000000000000164e-05,0.000000000000000000e+00,3.000000000000000000e+00,1.700000000000000000e+01
4.175400000000000000e+04,-1.000000000000000082e-05,-2.000000000000000164e-05,0.000000000000000000e+00,-1.399999999999999877e-04,-5.999999999999999474e-05,-2.000000000000000164e-05,-2.000000000000000164e-05,0.000000000000000000e+00,3.000000000000000000e+00,1.700000000000000000e+01
4.175500000000000000e+04,-1.000000000000000082e-05,-2.000000000000000164e-05,0.000000000000000000e+00,-1.399999999999999877e-04,-5.999999999999999474e-05,-2.000000000000000164e-05,-2.000000000000000164e-05,0.000000000000000000e+00,3.000000000000000000e+00,1.700000000000000000e+01
4.175600000000000000e+04,-1.000000000000000082e-05,-2.000000000000000164e-05,0.000000000000000000e+00,-1.399999999999999877e-04,-5.999999999999999474e-05,-2.000000000000000164e-05,-2.000000000000000164e-05,0.000000000000000000e+00,3.000000000000000000e+00,1.700000000000000000e+01
4.175700000000000000e+04,-1.000000000000000082e-05,-2.000000000000000164e-05,0.000000000000000000e+00,-1.399999999999999877e-04,-5.999999999999999474e-05,-2.000000000000000164e-05,-2.000000000000000164e-05,0.000000000000000000e+00,3.000000000000000000e+00,1.700000000000000000e+01
4.175800000000000000e+04,-1.000000000000000082e-05,-2.000000000000000164e-05,0.000000000000000000e+00,-1.399999999999999877e-04,-5.999999999999999474e-05,-2.000000000000000164e-05,-2.000000000000000164e-05,0.000000000000000000e+00,3.000000000000000000e+00,1.700000000000000000e+01
4.175900000000000000e+04,-1.000000000000000082e-05,-2.000000000000000164e-05,0.000000000000000000e+00,-1.399999999999999877e-04,-5.999999999999999474e-05,-2.000000000000000164e-05,-2.000000000000000164e-05,0.000000000000000000e+00,3.000000000000000000e+00,1.700000000000000000e+01
4.176000000000000000e+04,-1.000000000000000082e-05,-2.000000000000000164e-05,0.000000000000000000e+00,-1.399999999999999877e-04,-5.999999999999999474e-05,-2.000000000000000164e-05,-2.000000000000000164e-05,0.000000000000000000e+00,3.000000000000000000e+00,1.700000000000000000e+01
4.176100000000000000e+04,-2.000000000000000164e-05,-1.000000000000000082e-05,-1.000000000000000082e-05,-4.000000000000000327e-05,0.000000000000000000e+00,-1.000000000000000048e-04,-2.000000000000000164e-05,-1.000000000000000082e-05,3.000000000000000000e+00,1.700000000000000000e+01
4.176200000000000000e+04,-1.000000000000000082e-05,-2.000000000000000164e-05,0.000000000000000000e+00,8.000000000000000654e-05,1.000000000000000082e-05,-5.000000000000000240e-05,-1.000000000000000082e-05,0.000000000000000000e+00,3.000000000000000000e+00,1.700000000000000000e+01
4.176300000000000000e+04,-1.000000000000000082e-05,-2.000000000000000164e-05,0.000000000000000000e+00,8.000000000000000654e-05,1.000000000000000082e-05,-5.000000000000000240e-05,-1.000000000000000082e-05,0.000000000000000000e+00,3.000000000000000000e+00,1.700000000000000000e+01
4.176400000000000000e+04,-1.000000000000000082e-05,-2.000000000000000164e-05,0.000000000000000000e+00,8.000000000000000654e-05,1.000000000000000082e-05,-5.000000000000000240e-05,-1.000000000000000082e-05,0.000000000000000000e+00,3.000000000000000000e+00,1.700000000000000000e+01
4.176500000000000000e+04,-1.000000000000000082e-05,-2.000000000000000164e-05,0.000000000000000000e+00,8.000000000000000654e-05,1.000000000000000082e-05,-5.000000000000000240e-05,-1.000000000000000082e-05,0.000000000000000000e+00,3.000000000000000000e+00,1.700000000000000000e+01
4.176600000000000000e+04,-1.000000000000000082e-05,-2.000000000000000164e-05,0.000000000000000000e+00,8.000000000000000654e-05,1.000000000000000082e-05,-5.000000000000000240e-05,-1.000000000000000082e-05,0.000000000000000000e+00,3.000000000000000000e+00,1.700000000000000000e+01
4.176700000000000000e+04,-1.000000000000000082e-05,-2.000000000000000164e-05,0.000000000000000000e+00,8.000000000000000654e-05,1.000000000000000082e-05,-5.000000000000000240e-05,-1.000000000000000082e-05,0.000000000000000000e+00,3.000000000000000000e+00,1.700000000000000000e+01
4.176800000000000000e+04,-1.000000000000000082e-05,-2.000000000000000164e-05,0.000000000000000000e+00,8.000000000000000654e-05,1.000000000000000082e-05,-5.000000000000000240e-05,-1.000000000000000082e-05,0.000000000000000000e+00,3.000000000000000000e+00,1.700000000000000000e+01
4.176900000000000000e+04,-1.000000000000000082e-05,-2.000000000000000164e-05,0.000000000000000000e+00,8.000000000000000654e-05,1.000000000000000082e-05,-5.000000000000000240e-05,-1.000000000000000082e-05,0.000000000000000000e+00,3.000000000000000000e+00,1.700000000000000000e+01
4.177000000000000000e+04,-1.000000000000000082e-05,-2.000000000000000164e-05,0.000000000000000000e+00,8.000000000000000654e-05,1.000000000000000082e-05,-5.000000000000000240e-05,-1.000000000000000082e-05,0.000000000000000000e+00,3.000000000000000000e+00,1.700000000000000000e+01
4.177100000000000000e+04,-1.000000000000000082e-05,-2.000000000000000164e-05,0.000000000000000000e+00,8.000000000000000654e-05,1.000000000000000082e-05,-5.000000000000000240e-05,-1.000000000000000082e-05,0.000000000000000000e+00,3.000000000000000000e+00,1.700000000000000000e+01
4.177200000000000000e+04,-1.000000000000000082e-05,-2.000000000000000164e-05,0.000000000000000000e+00,8.000000000000000654e-05,1.000000000000000082e-05,-5.000000000000000240e-05,-1.000000000000000082e-05,0.000000000000000000e+00,3.000000000000000000e+00,1.700000000000000000e+01
4.177300000000000000e+04,-1.000000000000000082e-05,-2.000000000000000164e-05,0.000000000000000000e+00,8.000000000000000654e-05,1.000000000000000082e-05,-5.000000000000000240e-05,-1.000000000000000082e-05,0.000000000000000000e+00,3.000000000000000000e+00,1.700000000000000000e+01
4.177400000000000000e+04,-1.000000000000000082e-05,-2.000000000000000164e-05,0.000000000000000000e+00,8.000000000000000654e-05,1.000000000000000082e-05,-5.000000000000000240e-05,-1.000000000000000082e-05,0.000000000000000000e+00,3.000000000000000000e+00,1.700000000000000000e+01
4.177500000000000000e+04,-2.000000000000000164e-05,-5.000000000000000240e-05,-5.000000000000000240e-05,5.999999999999999474e-05,1.000000000000000082e-05,-4.000000000000000327e-05,-2.000000000000000164e-05,-1.000000000000000082e-05,3.000000000000000000e+00,1.700000000000000000e+01
4.177600000000000000e+04,-2.000000000000000164e-05,-5.000000000000000240e-05,-5.000000000000000240e-05,5.999999999999999474e-05,1.000000000000000082e-05,-4.000000000000000327e-05,-2.000000000000000164e-05,-1.000000000000000082e-05,3.000000000000000000e+00,1.700000000000000000e+01
4.177700000000000000e+04,-2.000000000000000164e-05,-5.000000000000000240e-05,-5.000000000000000240e-05,5.999999999999999474e-05,1.000000000000000082e-05,-4.000000000000000327e-05,-2.000000000000000164e-05,-1.000000000000000082e-05,3.000000000000000000e+00,1.700000000000000000e+01
4.177800000000000000e+04,-2.000000000000000164e-05,-5.000000000000000240e-05,-5.000000000000000240e-05,5.999999999999999474e-05,1.000000000000000082e-05,-4.000000000000000327e-05,-2.000000000000000164e-05,-1.000000000000000082e-05,3.000000000000000000e+00,1.700000000000000000e+01
4.177900000000000000e+04,-2.000000000000000164e-05,-5.000000000000000240e-05,-5.000000000000000240e-05,5.999999999999999474e-05,1.000000000000000082e-05,-4.000000000000000327e-05,-2.000000000000000164e-05,-1.000000000000000082e-05,3.000000000000000000e+00,1.700000000000000000e+01
4.178000000000000000e+04,-2.000000000000000164e-05,-5.000000000000000240e-05,-5.000000000000000240e-05,5.999999999999999474e-05,1.000000000000000082e-05,-4.000000000000000327e-05,-2.000000000000000164e-05,-1.000000000000000082e-05,3.000000000000000000e+00,1.700000000000000000e+01
4.178100000000000000e+04,-2.000000000000000164e-05,-5.000000000000000240e-05,-5.000000000000000240e-05,5.999999999999999474e-05,1.000000000000000082e-05,-4.000000000000000327e-05,-2.000000000000000164e-05,-1.000000000000000082e-05,3.000000000000000000e+00,1.700000000000000000e+01
4.178200000000000000e+04,-2.000000000000000164e-05,-5.000000000000000240e-05,-5.000000000000000240e-05,5.999999999999999474e-05,1.000000000000000082e-05,-4.000000000000000327e-05,-2.000000000000000164e-05,-1.000000000000000082e-05,3.000000000000000000e+00,1.700000000000000000e+01
4.178300000000000000e+04,0.000000000000000000e+00,0.000000000000000000e+00,-5.000000000000000240e-05,-1.100000000000000039e-04,-1.000000000000000082e-05,-1.000000000000000082e-05,-1.000000000000000082e-05,-1.000000000000000082e-05,3.000000000000000000e+00,1.700000000000000000e+01
4.178400000000000000e+04,0.000000000000000000e+00,0.000000000000000000e+00,-5.000000000000000240e-05,-1.100000000000000039e-04,-1.000000000000000082e-05,-1.000000000000000082e-05,-1.000000000000000082e-05,-1.000000000000000082e-05,3.000000000000000000e+00,1.700000000000000000e+01
4.178500000000000000e+04,0.000000000000000000e+00,0.000000000000000000e+00,-5.000000000000000240e-05,-1.100000000000000039e-04,-1.000000000000000082e-05,-1.000000000000000082e-05,-1.000000000000000082e-05,-1.000000000000000082e-05,3.000000000000000000e+00,1.700000000000000000e+01
4.178600000000000000e+04,0.000000000000000000e+00,0.000000000000000000e+00,-5.000000000000000240e-05,-1.100000000000000039e-04,-1.000000000000000082e-05,-1.000000000000000082e-05,-1.000000000000000082e-05,-1.000000000000000082e-05,3.000000000000000000e+00,1.700000000000000000e+01
4.178800000000000000e+04,0.000000000000000000e+00,0.000000000000000000e+00,-5.000000000000000240e-05,-1.100000000000000039e-04,-1.000000000000000082e-05,-1.000000000000000082e-05,-1.000000000000000082e-05,-1.000000000000000082e-05,3.000000000000000000e+00,1.700000000000000000e+01
4.178900000000000000e+04,0.000000000000000000e+00,0.000000000000000000e+00,-5.000000000000000240e-05,-1.100000000000000039e-04,-1.000000000000000082e-05,-1.000000000000000082e-05,-1.000000000000000082e-05,-1.000000000000000082e-05,3.000000000000000000e+00,1.700000000000000000e+01
4.179000000000000000e+04,0.000000000000000000e+00,0.000000000000000000e+00,-5.000000000000000240e-05,-1.100000000000000039e-04,-1.000000000000000082e-05,-1.000000000000000082e-05,-1.000000000000000082e-05,-1.000000000000000082e-05,3.000000000000000000e+00,1.700000000000000000e+01
4.179100000000000000e+04,0.000000000000000000e+00,0.000000000000000000e+00,-5.000000000000000240e-05,-1.100000000000000039e-04,-1.000000000000000082e-05,-1.000000000000000082e-05,-1.000000000000000082e-05,-1.000000000000000082e-05,3.000000000000000000e+00,1.700000000000000000e+01
4.179200000000000000e+04,0.000000000000000000e+00,0.000000000000000000e+00,-5.000000000000000240e-05,-1.100000000000000039e-04,-1.000000000000000082e-05,-1.000000000000000082e-05,-1.000000000000000082e-05,-1.000000000000000082e-05,3.000000000000000000e+00,1.700000000000000000e+01
4.179300000000000000e+04,0.000000000000000000e+00,0.000000000000000000e+00,-5.000000000000000240e-05,-1.100000000000000039e-04,-1.000000000000000082e-05,-1.000000000000000082e-05,-1.000000000000000082e-05,-1.000000000000000082e-05,3.000000000000000000e+00,1.700000000000000000e+01
4.179400000000000000e+04,0.000000000000000000e+00,0.000000000000000000e+00,-5.000000000000000240e-05,-1.100000000000000039e-04,-1.000000000000000082e-05,-1.000000000000000082e-05,-1.000000000000000082e-05,-1.000000000000000082e-05,3.000000000000000000e+00,1.700000000000000000e+01
4.179500000000000000e+04,0.000000000000000000e+00,0.000000000000000000e+00,-5.000000000000000240e-05,-1.100000000000000039e-04,-1.000000000000000082e-05,-1.000000000000000082e-05,-1.000000000000000082e-05,-1.000000000000000082e-05,3.000000000000000000e+00,1.700000000000000000e+01
4.179600000000000000e+04,0.000000000000000000e+00,0.000000000000000000e+00,-5.000000000000000240e-05,-1.100000000000000039e-04,-1.000000000000000082e-05,-1.000000000000000082e-05,-1.000000000000000082e-05,-1.000000000000000082e-05,3.000000000000000000e+00,1.700000000000000000e+01
4.179700000000000000e+04,0.000000000000000000e+00,0.000000000000000000e+00,-5.000000000000000240e-05,-1.100000000000000039e-04,-1.000000000000000082e-05,-1.000000000000000082e-05,-1.000000000000000082e-05,-1.000000000000000082e-05,3.000000000000000000e+00,1.700000000000000000e+01
4.179800000000000000e+04,-2.999999999999999737e-05,0.000000000000000000e+00,1.199999999999999895e-04,1.600000000000000131e-04,-2.999999999999999737e-05,-9.000000000000000567e-05,0.000000000000000000e+00,-1.000000000000000082e-05,3.000000000000000000e+00,1.700000000000000000e+01
4.179900000000000000e+04,-2.999999999999999737e-05,0.000000000000000000e+00,1.199999999999999895e-04,1.600000000000000131e-04,-2.999999999999999737e-05,-9.000000000000000567e-05,0.000000000000000000e+00,-1.000000000000000082e-05,3.000000000000000000e+00,1.700000000000000000e+01
4.180000000000000000e+04,-1.000000000000000082e-05,-4.000000000000000327e-05,-1.199999999999999895e-04,-1.100000000000000039e-04,1.000000000000000082e-05,-1.000000000000000082e-05,2.000000000000000164e-05,-1.000000000000000082e-05,3.000000000000000000e+00,1.700000000000000000e+01
4.180100000000000000e+04,-1.000000000000000082e-05,-4.000000000000000327e-05,-1.199999999999999895e-04,-1.100000000000000039e-04,1.000000000000000082e-05,-1.000000000000000082e-05,2.000000000000000164e-05,-1.000000000000000082e-05,3.000000000000000000e+00,1.700000000000000000e+01
4.180200000000000000e+04,-1.000000000000000082e-05,-4.000000000000000327e-05,-1.199999999999999895e-04,-1.100000000000000039e-04,1.000000000000000082e-05,-1.000000000000000082e-05,2.000000000000000164e-05,-1.000000000000000082e-05,3.000000000000000000e+00,1.700000000000000000e+01
4.180300000000000000e+04,-1.000000000000000082e-05,-4.000000000000000327e-05,-1.199999999999999895e-04,-1.100000000000000039e-04,1.000000000000000082e-05,-1.000000000000000082e-05,2.000000000000000164e-05,-1.000000000000000082e-05,3.000000000000000000e+00,1.700000000000000000e+01
4.180400000000000000e+04,-1.000000000000000082e-05,-4.000000000000000327e-05,-1.199999999999999895e-04,-1.100000000000000039e-04,1.000000000000000082e-05,-1.000000000000000082e-05,2.000000000000000164e-05,-1.000000000000000082e-05,3.000000000000000000e+00,1.700000000000000000e+01
4.180500000000000000e+04,-1.000000000000000082e-05,-4.000000000000000327e-05,-1.199999999999999895e-04,-1.100000000000000039e-04,1.000000000000000082e-05,-1.000000000000000082e-05,2.000000000000000164e-05,-1.000000000000000082e-05,3.000000000000000000e+00,1.700000000000000000e+01
4.180600000000000000e+04,-1.000000000000000082e-05,-4.000000000000000327e-05,-1.199999999999999895e-04,-1.100000000000000039e-04,1.000000000000000082e-05,-1.000000000000000082e-05,2.000000000000000164e-05,-1.000000000000000082e-05,3.000000000000000000e+00,1.700000000000000000e+01
4.180700000000000000e+04,-1.000000000000000082e-05,-4.000000000000000327e-05,-1.199999999999999895e-04,-1.100000000000000039e-04,1.000000000000000082e-05,-1.000000000000000082e-05,2.000000000000000164e-05,-1.000000000000000082e-05,3.000000000000000000e+00,1.700000000000000000e+01
4.180800000000000000e+04,-1.000000000000000082e-05,-4.000000000000000327e-05,-1.199999999999999895e-04,-1.100000000000000039e-04,1.000000000000000082e-05,-1.000000000000000082e-05,2.000000000000000164e-05,-1.000000000000000082e-05,3.000000000000000000e+00,1.700000000000000000e+01
4.180900000000000000e+04,-1.000000000000000082e-05,-4.000000000000000327e-05,-1.199999999999999895e-04,-1.100000000000000039e-04,1.000000000000000082e-05,-1.000000000000000082e-05,2.000000000000000164e-05,-1.000000000000000082e-05,3.000000000000000000e+00,1.700000000000000000e+01
4.181000000000000000e+04,-1.000000000000000082e-05,-4.000000000000000327e-05,-1.199999999999999895e-04,-1.100000000000000039e-04,1.000000000000000082e-05,-1.000000000000000082e-05,2.000000000000000164e-05,-1.000000000000000082e-05,3.000000000000000000e+00,1.700000000000000000e+01
4.181100000000000000e+04,-1.000000000000000082e-05,-4.000000000000000327e-05,-1.199999999999999895e-04,-1.100000000000000039e-04,1.000000000000000082e-05,-1.000000000000000082e-05,2.000000000000000164e-05,-1.000000000000000082e-05,3.000000000000000000e+00,1.700000000000000000e+01
4.181200000000000000e+04,-1.000000000000000082e-05,-4.000000000000000327e-05,-1.199999999999999895e-04,-1.100000000000000039e-04,1.000000000000000082e-05,-1.000000000000000082e-05,2.000000000000000164e-05,-1.000000000000000082e-05,3.000000000000000000e+00,1.700000000000000000e+01
4.181300000000000000e+04,-1.000000000000000082e-05,-4.000000000000000327e-05,-1.199999999999999895e-04,-1.100000000000000039e-04,1.000000000000000082e-05,-1.000000000000000082e-05,2.000000000000000164e-05,-1.000000000000000082e-05,3.000000000000000000e+00,1.700000000000000000e+01
4.181400000000000000e+04,-1.000000000000000082e-05,-4.000000000000000327e-05,-1.199999999999999895e-04,-1.100000000000000039e-04,1.000000000000000082e-05,-1.000000000000000082e-05,2.000000000000000164e-05,-1.000000000000000082e-05,3.000000000000000000e+00,1.700000000000000000e+01
4.181500000000000000e+04,-1.000000000000000082e-05,-4.000000000000000327e-05,-1.199999999999999895e-04,-1.100000000000000039e-04,1.000000000000000082e-05,-1.000000000000000082e-05,2.000000000000000164e-05,-1.000000000000000082e-05,3.000000000000000000e+00,1.700000000000000000e+01
4.181700000000000000e+04,-1.000000000000000082e-05,-4.000000000000000327e-05,-1.199999999999999895e-04,-1.100000000000000039e-04,1.000000000000000082e-05,-1.000000000000000082e-05,2.000000000000000164e-05,-1.000000000000000082e-05,3.000000000000000000e+00,1.700000000000000000e+01
4.181800000000000000e+04,-1.000000000000000082e-05,-4.000000000000000327e-05,-1.199999999999999895e-04,-1.100000000000000039e-04,1.000000000000000082e-05,-1.000000000000000082e-05,2.000000000000000164e-05,-1.000000000000000082e-05,3.000000000000000000e+00,1.700000000000000000e+01
4.181900000000000000e+04,-1.000000000000000082e-05,-4.000000000000000327e-05,-1.199999999999999895e-04,-1.100000000000000039e-04,1.000000000000000082e-05,-1.000000000000000082e-05,2.000000000000000164e-05,-1.000000000000000082e-05,3.000000000000000000e+00,1.700000000000000000e+01
4.182000000000000000e+04,-1.000000000000000082e-05,-4.000000000000000327e-05,-1.199999999999999895e-04,-1.100000000000000039e-04,1.000000000000000082e-05,-1.000000000000000082e-05,2.000000000000000164e-05,-1.000000000000000082e-05,3.000000000000000000e+00,1.700000000000000000e+01
4.182100000000000000e+04,-1.000000000000000082e-05,-4.000000000000000327e-05,-1.199999999999999895e-04,-1.100000000000000039e-04,1.000000000000000082e-05,-1.000000000000000082e-05,2.000000000000000164e-05,-1.000000000000000082e-05,3.000000000000000000e+00,1.700000000000000000e+01
4.182200000000000000e+04,1.000000000000000082e-05,0.000000000000000000e+00,5.999999999999999474e-05,1.000000000000000048e-04,9.000000000000000567e-05,9.000000000000000567e-05,0.000000000000000000e+00,-1.000000000000000082e-05,3.000000000000000000e+00,1.700000000000000000e+01
4.182300000000000000e+04,-1.000000000000000082e-05,1.000000000000000082e-05,0.000000000000000000e+00,-1.000000000000000082e-05,-4.000000000000000327e-05,-5.000000000000000240e-05,-1.000000000000000082e-05,-1.000000000000000082e-05,3.000000000000000000e+00,1.700000000000000000e+01
4.182400000000000000e+04,-1.000000000000000082e-05,1.000000000000000082e-05,0.000000000000000000e+00,-1.000000000000000082e-05,-4.000000000000000327e-05,-5.000000000000000240e-05,-1.000000000000000082e-05,-1.000000000000000082e-05,3.000000000000000000e+00,1.700000000000000000e+01
4.182500000000000000e+04,-1.000000000000000082e-05,1.000000000000000082e-05,0.000000000000000000e+00,-1.000000000000000082e-05,-4.000000000000000327e-05,-5.000000000000000240e-05,-1.000000000000000082e-05,-1.000000000000000082e-05,3.000000000000000000e+00,1.700000000000000000e+01
4.182600000000000000e+04,-1.000000000000000082e-05,1.000000000000000082e-05,0.000000000000000000e+00,-1.000000000000000082e-05,-4.000000000000000327e-05,-5.000000000000000240e-05,-1.000000000000000082e-05,-1.000000000000000082e-05,3.000000000000000000e+00,1.700000000000000000e+01
4.182700000000000000e+04,-1.000000000000000082e-05,1.000000000000000082e-05,0.000000000000000000e+00,-1.000000000000000082e-05,-4.000000000000000327e-05,-5.000000000000000240e-05,-1.000000000000000082e-05,-1.000000000000000082e-05,3.000000000000000000e+00,1.700000000000000000e+01
4.182800000000000000e+04,-1.000000000000000082e-05,1.000000000000000082e-05,0.000000000000000000e+00,-1.000000000000000082e-05,-4.000000000000000327e-05,-5.000000000000000240e-05,-1.000000000000000082e-05,-1.000000000000000082e-05,3.000000000000000000e+00,1.700000000000000000e+01
4.182900000000000000e+04,-1.000000000000000082e-05,1.000000000000000082e-05,0.000000000000000000e+00,-1.000000000000000082e-05,-4.000000000000000327e-05,-5.000000000000000240e-05,-1.000000000000000082e-05,-1.000000000000000082e-05,3.000000000000000000e+00,1.700000000000000000e+01
4.183000000000000000e+04,-1.000000000000000082e-05,1.000000000000000082e-05,0.000000000000000000e+00,-1.000000000000000082e-05,-4.000000000000000327e-05,-5.000000000000000240e-05,-1.000000000000000082e-05,-1.000000000000000082e-05,3.000000000000000000e+00,1.700000000000000000e+01
4.183100000000000000e+04,-1.000000000000000082e-05,1.000000000000000082e-05,0.000000000000000000e+00,-1.000000000000000082e-05,-4.000000000000000327e-05,-5.000000000000000240e-05,-1.000000000000000082e-05,-1.000000000000000082e-05,3.000000000000000000e+00,1.700000000000000000e+01
4.183200000000000000e+04,-1.000000000000000082e-05,1.000000000000000082e-05,0.000000000000000000e+00,-1.000000000000000082e-05,-4.000000000000000327e-05,-5.000000000000000240e-05,-1.000000000000000082e-05,-1.000000000000000082e-05,3.000000000000000000e+00,1.700000000000000000e+01
4.183300000000000000e+04,-1.000000000000000082e-05,1.000000000000000082e-05,0.000000000000000000e+00,-1.000000000000000082e-05,-4.000000000000000327e-05,-5.000000000000000240e-05,-1.000000000000000082e-05,-1.000000000000000082e-05,3.000000000000000000e+00,1.700000000000000000e+01
