5.384700000000000000e+04,-5.000000000000000240e-05,-1.000000000000000048e-04,-2.600000000000000314e-04,-3.699999999999999947e-04,1.399999999999999877e-04,-6.999999999999999387e-05,-5.999999999999999474e-05,-4.000000000000000327e-05,5.000000000000000000e+00,2.100000000000000000e+01
5.384800000000000000e+04,-5.000000000000000240e-05,-1.000000000000000048e-04,-2.600000000000000314e-04,-3.699999999999999947e-04,1.399999999999999877e-04,-6.999999999999999387e-05,-5.999999999999999474e-05,-4.000000000000000327e-05,5.000000000000000000e+00,2.100000000000000000e+01
5.384900000000000000e+04,-5.000000000000000240e-05,-1.000000000000000048e-04,-2.600000000000000314e-04,-3.699999999999999947e-04,1.399999999999999877e-04,-6.999999999999999387e-05,-5.999999999999999474e-05,-4.000000000000000327e-05,5.000000000000000000e+00,2.100000000000000000e+01
5.385000000000000000e+04,-5.000000000000000240e-05,-1.000000000000000048e-04,-2.600000000000000314e-04,-3.699999999999999947e-04,1.399999999999999877e-04,-6.999999999999999387e-05,-5.999999999999999474e-05,-4.000000000000000327e-05,5.000000000000000000e+00,2.100000000000000000e+01
5.385100000000000000e+04,-5.000000000000000240e-05,-1.000000000000000048e-04,-2.600000000000000314e-04,-3.699999999999999947e-04,1.399999999999999877e-04,-6.999999999999999387e-05,-5.999999999999999474e-05,-4.000000000000000327e-05,5.000000000000000000e+00,2.100000000000000000e+01
5.385200000000000000e+04,-5.000000000000000240e-05,-1.000000000000000048e-04,-2.600000000000000314e-04,-3.699999999999999947e-04,1.399999999999999877e-04,-6.999999999999999387e-05,-5.999999999999999474e-05,-4.000000000000000327e-05,5.000000000000000000e+00,2.100000000000000000e+01
5.385300000000000000e+04,-5.000000000000000240e-05,-1.000000000000000048e-04,-2.600000000000000314e-04,-3.699999999999999947e-04,1.399999999999999877e-04,-6.999999999999999387e-05,-5.999999999999999474e-05,-4.000000000000000327e-05,5.000000000000000000e+00,2.100000000000000000e+01
5.385400000000000000e+04,-5.000000000000000240e-05,-1.000000000000000048e-04,-2.600000000000000314e-04,-3.699999999999999947e-04,1.399999999999999877e-04,-6.999999999999999387e-05,-5.999999999999999474e-05,-4.000000000000000327e-05,5.000000000000000000e+00,2.100000000000000000e+01
5.385500000000000000e+04,-5.000000000000000240e-05,-1.000000000000000048e-04,-2.600000000000000314e-04,-3.699999999999999947e-04,1.399999999999999877e-04,-6.999999999999999387e-05,-5.999999999999999474e-05,-4.000000000000000327e-05,5.000000000000000000e+00,2.100000000000000000e+01
5.385600000000000000e+04,-5.000000000000000240e-05,-1.000000000000000048e-04,-2.600000000000000314e-04,-3.699999999999999947e-04,1.399999999999999877e-04,-6.999999999999999387e-05,-5.999999999999999474e-05,-4.000000000000000327e-05,5.000000000000000000e+00,2.100000000000000000e+01
5.385700000000000000e+04,-5.000000000000000240e-05,-1.000000000000000048e-04,-2.600000000000000314e-04,-3.699999999999999947e-04,1.399999999999999877e-04,-6.999999999999999387e-05,-5.999999999999999474e-05,-4.000000000000000327e-05,5.000000000000000000e+00,2.100000000000000000e+01
5.385800000000000000e+04,-5.000000000000000240e-05,-1.000000000000000048e-04,-2.600000000000000314e-04,-3.699999999999999947e-04,1.399999999999999877e-04,-6.999999999999999387e-05,-5.999999999999999474e-05,-4.000000000000000327e-05,5.000000000000000000e+00,2.100000000000000000e+01
5.385900000000000000e+04,-5.000000000000000240e-05,-1.000000000000000048e-04,-2.600000000000000314e-04,-3.699999999999999947e-04,1.399999999999999877e-04,-6.999999999999999387e-05,-5.999999999999999474e-05,-4.000000000000000327e-05,5.000000000000000000e+00,2.100000000000000000e+01
5.386000000000000000e+04,0.000000000000000000e+00,0.000000000000000000e+00,0.000000000000000000e+00,-5.999999999999999474e-05,-2.999999999999999737e-05,-5.999999999999999474e-05,0.000000000000000000e+00,1.000000000000000082e-05,5.000000000000000000e+00,2.100000000000000000e+01
5.386100000000000000e+04,1.000000000000000082e-05,-5.999999999999999474e-05,-4.000000000000000327e-05,-2.000000000000000164e-05,-5.800000000000000034e-04,-1.499999999999999869e-04,-5.999999999999999474e-05,-2.999999999999999737e-05,5.000000000000000000e+00,2.100000000000000000e+01
5.386200000000000000e+04,1.000000000000000082e-05,-5.999999999999999474e-05,-4.000000000000000327e-05,-2.000000000000000164e-05,-5.800000000000000034e-04,-1.499999999999999869e-04,-5.999999999999999474e-05,-2.999999999999999737e-05,5.000000000000000000e+00,2.100000000000000000e+01
5.386300000000000000e+04,1.000000000000000082e-05,-5.999999999999999474e-05,-4.000000000000000327e-05,-2.000000000000000164e-05,-5.800000000000000034e-04,-1.499999999999999869e-04,-5.999999999999999474e-05,-2.999999999999999737e-05,5.000000000000000000e+00,2.100000000000000000e+01
5.386400000000000000e+04,1.000000000000000082e-05,-5.999999999999999474e-05,-4.000000000000000327e-05,-2.000000000000000164e-05,-5.800000000000000034e-04,-1.499999999999999869e-04,-5.999999999999999474e-05,-2.999999999999999737e-05,5.000000000000000000e+00,2.100000000000000000e+01
5.386500000000000000e+04,1.000000000000000082e-05,-5.999999999999999474e-05,-4.000000000000000327e-05,-2.000000000000000164e-05,-5.800000000000000034e-04,-1.499999999999999869e-04,-5.999999999999999474e-05,-2.999999999999999737e-05,5.000000000000000000e+00,2.100000000000000000e+01
5.386600000000000000e+04,1.000000000000000082e-05,-5.999999999999999474e-05,-4.000000000000000327e-05,-2.000000000000000164e-05,-5.800000000000000034e-04,-1.499999999999999869e-04,-5.999999999999999474e-05,-2.999999999999999737e-05,5.000000000000000000e+00,2.100000000000000000e+01
5.386700000000000000e+04,1.000000000000000082e-05,-5.999999999999999474e-05,-4.000000000000000327e-05,-2.000000000000000164e-05,-5.800000000000000034e-04,-1.499999999999999869e-04,-5.999999999999999474e-05,-2.999999999999999737e-05,5.000000000000000000e+00,2.100000000000000000e+01
5.386800000000000000e+04,1.000000000000000082e-05,-5.999999999999999474e-05,-4.000000000000000327e-05,-2.000000000000000164e-05,-5.800000000000000034e-04,-1.499999999999999869e-04,-5.999999999999999474e-05,-2.999999999999999737e-05,5.000000000000000000e+00,2.100000000000000000e+01
5.386900000000000000e+04,1.000000000000000082e-05,-5.999999999999999474e-05,-4.000000000000000327e-05,-2.000000000000000164e-05,-5.800000000000000034e-04,-1.499999999999999869e-04,-5.999999999999999474e-05,-2.999999999999999737e-05,5.000000000000000000e+00,2.100000000000000000e+01
5.387000000000000000e+04,1.000000000000000082e-05,-5.999999999999999474e-05,-4.000000000000000327e-05,-2.000000000000000164e-05,-5.800000000000000034e-04,-1.499999999999999869e-04,-5.999999999999999474e-05,-2.999999999999999737e-05,5.000000000000000000e+00,2.100000000000000000e+01
5.387100000000000000e+04,1.000000000000000082e-05,-5.999999999999999474e-05,-4.000000000000000327e-05,-2.000000000000000164e-05,-5.800000000000000034e-04,-1.499999999999999869e-04,-5.999999999999999474e-05,-2.999999999999999737e-05,5.000000000000000000e+00,2.100000000000000000e+01
5.387200000000000000e+04,1.000000000000000082e-05,-5.999999999999999474e-05,-4.000000000000000327e-05,-2.000000000000000164e-05,-5.800000000000000034e-04,-1.499999999999999869e-04,-5.999999999999999474e-05,-2.999999999999999737e-05,5.000000000000000000e+00,2.100000000000000000e+01
5.387300000000000000e+04,1.000000000000000082e-05,-5.999999999999999474e-05,-4.000000000000000327e-05,-2.000000000000000164e-05,-5.800000000000000034e-04,-1.499999999999999869e-04,-5.999999999999999474e-05,-2.999999999999999737e-05,5.000000000000000000e+00,2.100000000000000000e+01
5.387400000000000000e+04,1.000000000000000082e-05,-5.999999999999999474e-05,-4.000000000000000327e-05,-2.000000000000000164e-05,-5.800000000000000034e-04,-1.499999999999999869e-04,-5.999999999999999474e-05,-2.999999999999999737e-05,5.000000000000000000e+00,2.100000000000000000e+01
5.387500000000000000e+04,1.000000000000000082e-05,-5.999999999999999474e-05,-4.000000000000000327e-05,-2.000000000000000164e-05,-5.800000000000000034e-04,-1.499999999999999869e-04,-5.999999999999999474e-05,-2.999999999999999737e-05,5.000000000000000000e+00,2.100000000000000000e+01
5.387600000000000000e+04,1.000000000000000082e-05,-5.999999999999999474e-05,-4.000000000000000327e-05,-2.000000000000000164e-05,-5.800000000000000034e-04,-1.499999999999999869e-04,-5.999999999999999474e-05,-2.999999999999999737e-05,5.000000000000000000e+00,2.100000000000000000e+01
5.387700000000000000e+04,1.000000000000000082e-05,-5.999999999999999474e-05,-4.000000000000000327e-05,-2.000000000000000164e-05,-5.800000000000000034e-04,-1.499999999999999869e-04,-5.999999999999999474e-05,-2.999999999999999737e-05,5.000000000000000000e+00,2.100000000000000000e+01
5.387800000000000000e+04,1.000000000000000082e-05,-5.999999999999999474e-05,-4.000000000000000327e-05,-2.000000000000000164e-05,-5.800000000000000034e-04,-1.499999999999999869e-04,-5.999999999999999474e-05,-2.999999999999999737e-05,5.000000000000000000e+00,2.100000000000000000e+01
5.387900000000000000e+04,1.000000000000000082e-05,-5.999999999999999474e-05,-4.000000000000000327e-05,-2.000000000000000164e-05,-5.800000000000000034e-04,-1.499999999999999869e-04,-5.999999999999999474e-05,-2.999999999999999737e-05,5.000000000000000000e+00,2.100000000000000000e+01
5.388000000000000000e+04,1.000000000000000082e-05,-5.999999999999999474e-05,-4.000000000000000327e-05,-2.000000000000000164e-05,-5.800000000000000034e-04,-1.499999999999999869e-04,-5.999999999999999474e-05,-2.999999999999999737e-05,5.000000000000000000e+00,2.100000000000000000e+01
5.388100000000000000e+04,1.000000000000000082e-05,-5.999999999999999474e-05,-4.000000000000000327e-05,-2.000000000000000164e-05,-5.800000000000000034e-04,-1.499999999999999869e-04,-5.999999999999999474e-05,-2.999999999999999737e-05,5.000000000000000000e+00,2.100000000000000000e+01
5.388200000000000000e+04,2.000000000000000164e-05,-5.999999999999999474e-05,-1.499999999999999869e-04,1.000000000000000082e-05,1.000000000000000082e-05,-2.999999999999999737e-05,-1.000000000000000082e-05,-2.000000000000000164e-05,5.000000000000000000e+00,2.100000000000000000e+01
5.388300000000000000e+04,2.000000000000000164e-05,-5.999999999999999474e-05,-1.499999999999999869e-04,1.000000000000000082e-05,1.000000000000000082e-05,-2.999999999999999737e-05,-1.000000000000000082e-05,-2.000000000000000164e-05,5.000000000000000000e+00,2.100000000000000000e+01
5.388400000000000000e+04,-8.000000000000000654e-05,-5.000000000000000240e-05,-1.199999999999999895e-04,4.400000000000000157e-04,5.299999999999999807e-04,6.999999999999999387e-05,0.000000000000000000e+00,0.000000000000000000e+00,5.000000000000000000e+00,2.100000000000000000e+01
5.388500000000000000e+04,-8.000000000000000654e-05,-5.000000000000000240e-05,-1.199999999999999895e-04,4.400000000000000157e-04,5.299999999999999807e-04,6.999999999999999387e-05,0.000000000000000000e+00,0.000000000000000000e+00,5.000000000000000000e+00,2.100000000000000000e+01
5.388600000000000000e+04,-8.000000000000000654e-05,-5.000000000000000240e-05,-1.199999999999999895e-04,4.400000000000000157e-04,5.299999999999999807e-04,6.999999999999999387e-05,0.000000000000000000e+00,0.000000000000000000e+00,5.000000000000000000e+00,2.100000000000000000e+01
5.388800000000000000e+04,-8.000000000000000654e-05,-5.000000000000000240e-05,-1.199999999999999895e-04,4.400000000000000157e-04,5.299999999999999807e-04,6.999999999999999387e-05,0.000000000000000000e+00,0.000000000000000000e+00,5.000000000000000000e+00,2.100000000000000000e+01
5.388900000000000000e+04,-8.000000000000000654e-05,-5.000000000000000240e-05,-1.199999999999999895e-04,4.400000000000000157e-04,5.299999999999999807e-04,6.999999999999999387e-05,0.000000000000000000e+00,0.000000000000000000e+00,5.000000000000000000e+00,2.100000000000000000e+01
5.389000000000000000e+04,-8.000000000000000654e-05,-5.000000000000000240e-05,-1.199999999999999895e-04,4.400000000000000157e-04,5.299999999999999807e-04,6.999999999999999387e-05,0.000000000000000000e+00,0.000000000000000000e+00,5.000000000000000000e+00,2.100000000000000000e+01
5.389100000000000000e+04,-8.000000000000000654e-05,-5.000000000000000240e-05,-1.199999999999999895e-04,4.400000000000000157e-04,5.299999999999999807e-04,6.999999999999999387e-05,0.000000000000000000e+00,0.000000000000000000e+00,5.000000000000000000e+00,2.100000000000000000e+01
5.389200000000000000e+04,-8.000000000000000654e-05,-5.000000000000000240e-05,-1.199999999999999895e-04,4.400000000000000157e-04,5.299999999999999807e-04,6.999999999999999387e-05,0.000000000000000000e+00,0.000000000000000000e+00,5.000000000000000000e+00,2.100000000000000000e+01
5.389300000000000000e+04,-8.000000000000000654e-05,-5.000000000000000240e-05,-1.199999999999999895e-04,4.400000000000000157e-04,5.299999999999999807e-04,6.999999999999999387e-05,0.000000000000000000e+00,0.000000000000000000e+00,5.000000000000000000e+00,2.100000000000000000e+01
5.389400000000000000e+04,-8.000000000000000654e-05,-5.000000000000000240e-05,-1.199999999999999895e-04,4.400000000000000157e-04,5.299999999999999807e-04,6.999999999999999387e-05,0.000000000000000000e+00,0.000000000000000000e+00,5.000000000000000000e+00,2.100000000000000000e+01
5.389500000000000000e+04,-8.000000000000000654e-05,-5.000000000000000240e-05,-1.199999999999999895e-04,4.400000000000000157e-04,5.299999999999999807e-04,6.999999999999999387e-05,0.000000000000000000e+00,0.000000000000000000e+00,5.000000000000000000e+00,2.100000000000000000e+01
5.389600000000000000e+04,-8.000000000000000654e-05,-5.000000000000000240e-05,-1.199999999999999895e-04,4.400000000000000157e-04,5.299999999999999807e-04,6.999999999999999387e-05,0.000000000000000000e+00,0.000000000000000000e+00,5.000000000000000000e+00,2.100000000000000000e+01
5.389700000000000000e+04,-2.999999999999999737e-05,-4.000000000000000327e-05,-2.999999999999999737e-05,-1.199999999999999895e-04,-6.999999999999999387e-05,-2.999999999999999737e-05,0.000000000000000000e+00,-1.000000000000000082e-05,5.000000000000000000e+00,2.100000000000000000e+01
5.389800000000000000e+04,-2.999999999999999737e-05,-4.000000000000000327e-05,-2.999999999999999737e-05,-1.199999999999999895e-04,-6.999999999999999387e-05,-2.999999999999999737e-05,0.000000000000000000e+00,-1.000000000000000082e-05,5.000000000000000000e+00,2.100000000000000000e+01
5.389900000000000000e+04,-2.999999999999999737e-05,-4.000000000000000327e-05,-2.999999999999999737e-05,-1.199999999999999895e-04,-6.999999999999999387e-05,-2.999999999999999737e-05,0.000000000000000000e+00,-1.000000000000000082e-05,5.000000000000000000e+00,2.100000000000000000e+01
5.390000000000000000e+04,-2.999999999999999737e-05,-4.000000000000000327e-05,-2.999999999999999737e-05,-1.199999999999999895e-04,-6.999999999999999387e-05,-2.999999999999999737e-05,0.000000000000000000e+00,-1.000000000000000082e-05,5.000000000000000000e+00,2.100000000000000000e+01
5.390100000000000000e+04,-2.999999999999999737e-05,-4.000000000000000327e-05,-2.999999999999999737e-05,-1.199999999999999895e-04,-6.999999999999999387e-05,-2.999999999999999737e-05,0.000000000000000000e+00,-1.000000000000000082e-05,5.000000000000000000e+00,2.100000000000000000e+01
5.390200000000000000e+04,-2.999999999999999737e-05,-4.000000000000000327e-05,-2.999999999999999737e-05,-1.199999999999999895e-04,-6.999999999999999387e-05,-2.999999999999999737e-05,0.000000000000000000e+00,-1.000000000000000082e-05,5.000000000000000000e+00,2.100000000000000000e+01
5.390300000000000000e+04,-2.000000000000000164e-05,-1.000000000000000082e-05,-6.999999999999999387e-05,8.000000000000000654e-05,-1.000000000000000048e-04,-1.300000000000000157e-04,-5.999999999999999474e-05,-2.999999999999999737e-05,5.000000000000000000e+00,2.100000000000000000e+01
5.390400000000000000e+04,-2.000000000000000164e-05,-1.000000000000000082e-05,-6.999999999999999387e-05,8.000000000000000654e-05,-1.000000000000000048e-04,-1.300000000000000157e-04,-5.999999999999999474e-05,-2.999999999999999737e-05,5.000000000000000000e+00,2.100000000000000000e+01
5.390500000000000000e+04,-2.000000000000000164e-05,-1.000000000000000082e-05,-6.999999999999999387e-05,8.000000000000000654e-05,-1.000000000000000048e-04,-1.300000000000000157e-04,-5.999999999999999474e-05,-2.999999999999999737e-05,5.000000000000000000e+00,2.100000000000000000e+01
5.390600000000000000e+04,-2.000000000000000164e-05,-1.000000000000000082e-05,-6.999999999999999387e-05,8.000000000000000654e-05,-1.000000000000000048e-04,-1.300000000000000157e-04,-5.999999999999999474e-05,-2.999999999999999737e-05,5.000000000000000000e+00,2.100000000000000000e+01
5.390700000000000000e+04,-2.000000000000000164e-05,-1.000000000000000082e-05,-6.999999999999999387e-05,8.000000000000000654e-05,-1.000000000000000048e-04,-1.300000000000000157e-04,-5.999999999999999474e-05,-2.999999999999999737e-05,5.000000000000000000e+00,2.100000000000000000e+01
5.390800000000000000e+04,-2.000000000000000164e-05,-1.000000000000000082e-05,-6.999999999999999387e-05,8.000000000000000654e-05,-1.000000000000000048e-04,-1.300000000000000157e-04,-5.999999999999999474e-05,-2.999999999999999737e-05,5.000000000000000000e+00,2.100000000000000000e+01
5.390900000000000000e+04,-2.000000000000000164e-05,-1.000000000000000082e-05,-6.999999999999999387e-05,8.000000000000000654e-05,-1.000000000000000048e-04,-1.300000000000000157e-04,-5.999999999999999474e-05,-2.999999999999999737e-05,5.000000000000000000e+00,2.100000000000000000e+01
5.391000000000000000e+04,-2.000000000000000164e-05,-1.000000000000000082e-05,-6.999999999999999387e-05,8.000000000000000654e-05,-1.000000000000000048e-04,-1.300000000000000157e-04,-5.999999999999999474e-05,-2.999999999999999737e-05,5.000000000000000000e+00,2.100000000000000000e+01
5.391100000000000000e+04,-2.000000000000000164e-05,-1.000000000000000082e-05,-6.999999999999999387e-05,8.000000000000000654e-05,-1.000000000000000048e-04,-1.300000000000000157e-04,-5.999999999999999474e-05,-2.999999999999999737e-05,5.000000000000000000e+00,2.100000000000000000e+01
5.391200000000000000e+04,-2.000000000000000164e-05,-1.000000000000000082e-05,-6.999999999999999387e-05,8.000000000000000654e-05,-1.000000000000000048e-04,-1.300000000000000157e-04,-5.999999999999999474e-05,-2.999999999999999737e-05,5.000000000000000000e+00,2.100000000000000000e+01
5.391300000000000000e+04,-2.000000000000000164e-05,-1.000000000000000082e-05,-6.999999999999999387e-05,8.000000000000000654e-05,-1.000000000000000048e-04,-1.300000000000000157e-04,-5.999999999999999474e-05,-2.999999999999999737e-05,5.000000000000000000e+00,2.100000000000000000e+01
5.391400000000000000e+04,-2.000000000000000164e-05,-1.000000000000000082e-05,-6.999999999999999387e-05,8.000000000000000654e-05,-1.000000000000000048e-04,-1.300000000000000157e-04,-5.999999999999999474e-05,-2.999999999999999737e-05,5.000000000000000000e+00,2.100000000000000000e+01
5.391600000000000000e+04,-2.000000000000000164e-05,-1.000000000000000082e-05,-6.999999999999999387e-05,8.000000000000000654e-05,-1.000000000000000048e-04,-1.300000000000000157e-04,-5.999999999999999474e-05,-2.999999999999999737e-05,5.000000000000000000e+00,2.100000000000000000e+01
5.391700000000000000e+04,-2.000000000000000164e-05,-1.000000000000000082e-05,-6.999999999999999387e-05,8.000000000000000654e-05,-1.000000000000000048e-04,-1.300000000000000157e-04,-5.999999999999999474e-05,-2.999999999999999737e-05,5.000000000000000000e+00,2.100000000000000000e+01
5.391800000000000000e+04,-2.000000000000000164e-05,-1.000000000000000082e-05,-6.999999999999999387e-05,8.000000000000000654e-05,-1.000000000000000048e-04,-1.300000000000000157e-04,-5.999999999999999474e-05,-2.999999999999999737e-05,5.000000000000000000e+00,2.100000000000000000e+01
5.391900000000000000e+04,-2.000000000000000164e-05,-1.000000000000000082e-05,-6.999999999999999387e-05,8.000000000000000654e-05,-1.000000000000000048e-04,-1.300000000000000157e-04,-5.999999999999999474e-05,-2.999999999999999737e-05,5.000000000000000000e+00,2.100000000000000000e+01
5.392000000000000000e+04,-4.000000000000000327e-05,0.000000000000000000e+00,-4.000000000000000327e-05,-1.000000000000000048e-04,2.999999999999999737e-05,5.000000000000000240e-05,1.000000000000000082e-05,1.000000000000000082e-05,5.000000000000000000e+00,2.100000000000000000e+01
5.392100000000000000e+04,2.999999999999999737e-05,5.000000000000000240e-05,6.999999999999999387e-05,-2.100000000000000087e-04,-3.799999999999999667e-04,-1.000000000000000082e-05,4.000000000000000327e-05,2.999999999999999737e-05,5.000000000000000000e+00,2.100000000000000000e+01
5.392200000000000000e+04,2.999999999999999737e-05,5.000000000000000240e-05,6.999999999999999387e-05,-2.100000000000000087e-04,-3.799999999999999667e-04,-1.000000000000000082e-05,4.000000000000000327e-05,2.999999999999999737e-05,5.000000000000000000e+00,2.100000000000000000e+01
5.392300000000000000e+04,2.999999999999999737e-05,5.000000000000000240e-05,6.999999999999999387e-05,-2.100000000000000087e-04,-3.799999999999999667e-04,-1.000000000000000082e-05,4.000000000000000327e-05,2.999999999999999737e-05,5.000000000000000000e+00,2.100000000000000000e+01
5.392400000000000000e+04,2.999999999999999737e-05,5.000000000000000240e-05,6.999999999999999387e-05,-2.100000000000000087e-04,-3.799999999999999667e-04,-1.000000000000000082e-05,4.000000000000000327e-05,2.999999999999999737e-05,5.000000000000000000e+00,2.100000000000000000e+01
5.392500000000000000e+04,2.999999999999999737e-05,5.000000000000000240e-05,6.999999999999999387e-05,-2.100000000000000087e-04,-3.799999999999999667e-04,-1.000000000000000082e-05,4.000000000000000327e-05,2.999999999999999737e-05,5.000000000000000000e+00,2.100000000000000000e+01
5.392600000000000000e+04,2.999999999999999737e-05,5.000000000000000240e-05,6.999999999999999387e-05,-2.100000000000000087e-04,-3.799999999999999667e-04,-1.000000000000000082e-05,4.000000000000000327e-05,2.999999999999999737e-05,5.000000000000000000e+00,2.100000000000000000e+01
5.392700000000000000e+04,2.999999999999999737e-05,5.000000000000000240e-05,6.999999999999999387e-05,-2.100000000000000087e-04,-3.799999999999999667e-04,-1.000000000000000082e-05,4.000000000000000327e-05,2.999999999999999737e-05,5.000000000000000000e+00,2.100000000000000000e+01
5.392800000000000000e+04,2.999999999999999737e-05,5.000000000000000240e-05,6.999999999999999387e-05,-2.100000000000000087e-04,-3.799999999999999667e-04,-1.000000000000000082e-05,4.000000000000000327e-05,2.999999999999999737e-05,5.000000000000000000e+00,2.100000000000000000e+01
5.392900000000000000e+04,2.999999999999999737e-05,5.000000000000000240e-05,6.999999999999999387e-05,-2.100000000000000087e-04,-3.799999999999999667e-04,-1.000000000000000082e-05,4.000000000000000327e-05,2.999999999999999737e-05,5.000000000000000000e+00,2.100000000000000000e+01
5.393000000000000000e+04,2.999999999999999737e-05,5.000000000000000240e-05,6.999999999999999387e-05,-2.100000000000000087e-04,-3.799999999999999667e-04,-1.000000000000000082e-05,4.000000000000000327e-05,2.999999999999999737e-05,5.000000000000000000e+00,2.100000000000000000e+01
5.393100000000000000e+04,2.999999999999999737e-05,5.000000000000000240e-05,6.999999999999999387e-05,-2.100000000000000087e-04,-3.799999999999999667e-04,-1.000000000000000082e-05,4.000000000000000327e-05,2.999999999999999737e-05,5.000000000000000000e+00,2.100000000000000000e+01
5.393200000000000000e+04,2.999999999999999737e-05,5.000000000000000240e-05,6.999999999999999387e-05,-2.100000000000000087e-04,-3.799999999999999667e-04,-1.000000000000000082e-05,4.000000000000000327e-05,2.999999999999999737e-05,5.000000000000000000e+00,2.100000000000000000e+01
5.393300000000000000e+04,2.999999999999999737e-05,5.000000000000000240e-05,6.999999999999999387e-05,-2.100000000000000087e-04,-3.799999999999999667e-04,-1.000000000000000082e-05,4.000000000000000327e-05,2.999999999999999737e-05,5.000000000000000000e+00,2.100000000000000000e+01
5.393400000000000000e+04,2.999999999999999737e-05,5.000000000000000240e-05,6.999999999999999387e-05,-2.100000000000000087e-04,-3.799999999999999667e-04,-1.000000000000000082e-05,4.000000000000000327e-05,2.999999999999999737e-05,5.000000000000000000e+00,2.100000000000000000e+01
5.393500000000000000e+04,2.999999999999999737e-05,5.000000000000000240e-05,6.999999999999999387e-05,-2.100000000000000087e-04,-3.799999999999999667e-04,-1.000000000000000082e-05,4.000000000000000327e-05,2.999999999999999737e-05,5.000000000000000000e+00,2.100000000000000000e+01
5.393600000000000000e+04,2.999999999999999737e-05,5.000000000000000240e-05,6.999999999999999387e-05,-2.100000000000000087e-04,-3.799999999999999667e-04,-1.000000000000000082e-05,4.000000000000000327e-05,2.999999999999999737e-05,5.000000000000000000e+00,2.100000000000000000e+01
5.393800000000000000e+04,2.999999999999999737e-05,5.000000000000000240e-05,6.999999999999999387e-05,-2.100000000000000087e-04,-3.799999999999999667e-04,-1.000000000000000082e-05,4.000000000000000327e-05,2.999999999999999737e-05,5.000000000000000000e+00,2.100000000000000000e+01
5.393900000000000000e+04,2.999999999999999737e-05,5.000000000000000240e-05,6.999999999999999387e-05,-2.100000000000000087e-04,-3.799999999999999667e-04,-1.000000000000000082e-05,4.000000000000000327e-05,2.999999999999999737e-05,5.000000000000000000e+00,2.100000000000000000e+01
5.394000000000000000e+04,2.999999999999999737e-05,5.000000000000000240e-05,6.999999999999999387e-05,-2.100000000000000087e-04,-3.799999999999999667e-04,-1.000000000000000082e-05,4.000000000000000327e-05,2.999999999999999737e-05,5.000000000000000000e+00,2.100000000000000000e+01
5.394100000000000000e+04,2.999999999999999737e-05,5.000000000000000240e-05,6.999999999999999387e-05,-2.100000000000000087e-04,-3.799999999999999667e-04,-1.000000000000000082e-05,4.000000000000000327e-05,2.999999999999999737e-05,5.000000000000000000e+00,2.100000000000000000e+01
5.394200000000000000e+04,-1.000000000000000082e-05,0.000000000000000000e+00,-2.999999999999999737e-05,5.999999999999999474e-05,0.000000000000000000e+00,-4.000000000000000327e-05,-4.000000000000000327e-05,-2.000000000000000164e-05,5.000000000000000000e+00,2.100000000000000000e+01
5.394300000000000000e+04,-1.000000000000000082e-05,0.000000000000000000e+00,-2.999999999999999737e-05,5.999999999999999474e-05,0.000000000000000000e+00,-4.000000000000000327e-05,-4.000000000000000327e-05,-2.000000000000000164e-05,5.000000000000000000e+00,2.100000000000000000e+01
5.394400000000000000e+04,-2.999999999999999737e-05,-2.000000000000000164e-05,2.000000000000000096e-04,4.000000000000000192e-04,4.899999999999999842e-04,5.000000000000000240e-05,1.000000000000000082e-05,0.000000000000000000e+00,5.000000000000000000e+00,2.100000000000000000e+01
5.394500000000000000e+04,-2.999999999999999737e-05,-2.000000000000000164e-05,2.000000000000000096e-04,4.000000000000000192e-04,4.899999999999999842e-04,5.000000000000000240e-05,1.000000000000000082e-05,0.000000000000000000e+00,5.000000000000000000e+00,2.100000000000000000e+01
5.394600000000000000e+04,-2.999999999999999737e-05,-2.000000000000000164e-05,2.000000000000000096e-04,4.000000000000000192e-04,4.899999999999999842e-04,5.000000000000000240e-05,1.000000000000000082e-05,0.000000000000000000e+00,5.000000000000000000e+00,2.100000000000000000e+01
5.394700000000000000e+04,-2.999999999999999737e-05,-2.000000000000000164e-05,2.000000000000000096e-04,4.000000000000000192e-04,4.899999999999999842e-04,5.000000000000000240e-05,1.000000000000000082e-05,0.000000000000000000e+00,5.000000000000000000e+00,2.100000000000000000e+01
5.394800000000000000e+04,-2.999999999999999737e-05,-2.000000000000000164e-05,2.000000000000000096e-04,4.000000000000000192e-04,4.899999999999999842e-04,5.000000000000000240e-05,1.000000000000000082e-05,0.000000000000000000e+00,5.000000000000000000e+00,2.100000000000000000e+01
5.394900000000000000e+04,-2.999999999999999737e-05,-2.000000000000000164e-05,2.000000000000000096e-04,4.000000000000000192e-04,4.899999999999999842e-04,5.000000000000000240e-05,1.000000000000000082e-05,0.000000000000000000e+00,5.000000000000000000e+00,2.100000000000000000e+01
5.395000000000000000e+04,-2.999999999999999737e-05,-2.000000000000000164e-05,2.000000000000000096e-04,4.000000000000000192e-04,4.899999999999999842e-04,5.000000000000000240e-05,1.000000000000000082e-05,0.000000000000000000e+00,5.000000000000000000e+00,2.100000000000000000e+01
5.395100000000000000e+04,-2.999999999999999737e-05,-2.000000000000000164e-05,2.000000000000000096e-04,4.000000000000000192e-04,4.899999999999999842e-04,5.000000000000000240e-05,1.000000000000000082e-05,0.000000000000000000e+00,5.000000000000000000e+00,2.100000000000000000e+01
5.395200000000000000e+04,-2.999999999999999737e-05,-2.000000000000000164e-05,2.000000000000000096e-04,4.000000000000000192e-04,4.899999999999999842e-04,5.000000000000000240e-05,1.000000000000000082e-05,0.000000000000000000e+00,5.000000000000000000e+00,2.100000000000000000e+01
5.395300000000000000e+04,-2.999999999999999737e-05,-2.000000000000000164e-05,2.000000000000000096e-04,4.000000000000000192e-04,4.899999999999999842e-04,5.000000000000000240e-05,1.000000000000000082e-05,0.000000000000000000e+00,5.000000000000000000e+00,2.100000000000000000e+01
5.395400000000000000e+04,-2.999999999999999737e-05,-2.000000000000000164e-05,2.000000000000000096e-04,4.000000000000000192e-04,4.899999999999999842e-04,5.000000000000000240e-05,1.000000000000000082e-05,0.000000000000000000e+00,5.000000000000000000e+00,2.100000000000000000e+01
5.395500000000000000e+04,-2.999999999999999737e-05,-2.000000000000000164e-05,2.000000000000000096e-04,4.000000000000000192e-04,4.899999999999999842e-04,5.000000000000000240e-05,1.000000000000000082e-05,0.000000000000000000e+00,5.000000000000000000e+00,2.100000000000000000e+01
5.395600000000000000e+04,-6.999999999999999387e-05,-2.999999999999999737e-05,-1.499999999999999869e-04,-3.899999999999999929e-04,-5.200000000000000629e-04,-9.000000000000000567e-05,-2.999999999999999737e-05,-5.000000000000000240e-05,5.000000000000000000e+00,2.100000000000000000e+01
5.395700000000000000e+04,-2.000000000000000164e-05,-5.999999999999999474e-05,-1.199999999999999895e-04,-4.000000000000000327e-05,2.999999999999999737e-04,1.000000000000000082e-05,0.000000000000000000e+00,-2.000000000000000164e-05,5.000000000000000000e+00,2.100000000000000000e+01
5.395800000000000000e+04,-2.000000000000000164e-05,-5.999999999999999474e-05,-1.199999999999999895e-04,-4.000000000000000327e-05,2.999999999999999737e-04,1.000000000000000082e-05,0.000000000000000000e+00,-2.000000000000000164e-05,5.000000000000000000e+00,2.100000000000000000e+01
5.395900000000000000e+04,-2.000000000000000164e-05,-5.999999999999999474e-05,-1.199999999999999895e-04,-4.000000000000000327e-05,2.999999999999999737e-04,1.000000000000000082e-05,0.000000000000000000e+00,-2.000000000000000164e-05,5.000000000000000000e+00,2.100000000000000000e+01
5.396000000000000000e+04,-2.000000000000000164e-05,-5.999999999999999474e-05,-1.199999999999999895e-04,-4.000000000000000327e-05,2.999999999999999737e-04,1.000000000000000082e-05,0.000000000000000000e+00,-2.000000000000000164e-05,5.000000000000000000e+00,2.100000000000000000e+01
5.396100000000000000e+04,-2.000000000000000164e-05,-5.999999999999999474e-05,-1.199999999999999895e-04,-4.000000000000000327e-05,2.999999999999999737e-04,1.000000000000000082e-05,0.000000000000000000e+00,-2.000000000000000164e-05,5.000000000000000000e+00,2.100000000000000000e+01
5.396200000000000000e+04,-2.000000000000000164e-05,-5.999999999999999474e-05,-1.199999999999999895e-04,-4.000000000000000327e-05,2.999999999999999737e-04,1.000000000000000082e-05,0.000000000000000000e+00,-2.000000000000000164e-05,5.000000000000000000e+00,2.100000000000000000e+01
5.396300000000000000e+04,5.000000000000000240e-05,5.999999999999999474e-05,6.999999999999999387e-05,1.199999999999999895e-04,-1.100000000000000039e-04,1.899999999999999834e-04,1.000000000000000048e-04,5.000000000000000240e-05,5.000000000000000000e+00,2.100000000000000000e+01
5.396500000000000000e+04,5.000000000000000240e-05,5.999999999999999474e-05,6.999999999999999387e-05,1.199999999999999895e-04,-1.100000000000000039e-04,1.899999999999999834e-04,1.000000000000000048e-04,5.000000000000000240e-05,5.000000000000000000e+00,2.100000000000000000e+01
5.396600000000000000e+04,5.000000000000000240e-05,5.999999999999999474e-05,6.999999999999999387e-05,1.199999999999999895e-04,-1.100000000000000039e-04,1.899999999999999834e-04,1.000000000000000048e-04,5.000000000000000240e-05,5.000000000000000000e+00,2.100000000000000000e+01
5.396700000000000000e+04,5.000000000000000240e-05,5.999999999999999474e-05,6.999999999999999387e-05,1.199999999999999895e-04,-1.100000000000000039e-04,1.899999999999999834e-04,1.000000000000000048e-04,5.000000000000000240e-05,5.000000000000000000e+00,2.100000000000000000e+01
5.396800000000000000e+04,5.000000000000000240e-05,5.999999999999999474e-05,6.999999999999999387e-05,1.199999999999999895e-04,-1.100000000000000039e-04,1.899999999999999834e-04,1.000000000000000048e-04,5.000000000000000240e-05,5.000000000000000000e+00,2.100000000000000000e+01
5.396900000000000000e+04,5.000000000000000240e-05,5.999999999999999474e-05,6.999999999999999387e-05,1.199999999999999895e-04,-1.100000000000000039e-04,1.899999999999999834e-04,1.000000000000000048e-04,5.000000000000000240e-05,5.000000000000000000e+00,2.100000000000000000e+01
5.397000000000000000e+04,5.000000000000000240e-05,5.999999999999999474e-05,6.999999999999999387e-05,1.199999999999999895e-04,-1.100000000000000039e-04,1.899999999999999834e-04,1.000000000000000048e-04,5.000000000000000240e-05,5.000000000000000000e+00,2.100000000000000000e+01
5.397100000000000000e+04,5.000000000000000240e-05,5.999999999999999474e-05,6.999999999999999387e-05,1.199999999999999895e-04,-1.100000000000000039e-04,1.899999999999999834e-04,1.000000000000000048e-04,5.000000000000000240e-05,5.000000000000000000e+00,2.100000000000000000e+01
5.397200000000000000e+04,5.000000000000000240e-05,5.999999999999999474e-05,6.999999999999999387e-05,1.199999999999999895e-04,-1.100000000000000039e-04,1.899999999999999834e-04,1.000000000000000048e-04,5.000000000000000240e-05,5.000000000000000000e+00,2.100000000000000000e+01
5.397300000000000000e+04,5.000000000000000240e-05,5.999999999999999474e-05,6.999999999999999387e-05,1.199999999999999895e-04,-1.100000000000000039e-04,1.899999999999999834e-04,1.000000000000000048e-04,5.000000000000000240e-05,5.000000000000000000e+00,2.100000000000000000e+01
5.397400000000000000e+04,5.000000000000000240e-05,5.999999999999999474e-05,6.999999999999999387e-05,1.199999999999999895e-04,-1.100000000000000039e-04,1.899999999999999834e-04,1.000000000000000048e-04,5.000000000000000240e-05,5.000000000000000000e+00,2.100000000000000000e+01
5.397500000000000000e+04,5.000000000000000240e-05,5.999999999999999474e-05,6.999999999999999387e-05,1.199999999999999895e-04,-1.100000000000000039e-04,1.899999999999999834e-04,1.000000000000000048e-04,5.000000000000000240e-05,5.000000000000000000e+00,2.100000000000000000e+01
5.397600000000000000e+04,5.000000000000000240e-05,5.999999999999999474e-05,6.999999999999999387e-05,1.199999999999999895e-04,-1.100000000000000039e-04,1.899999999999999834e-04,1.000000000000000048e-04,5.000000000000000240e-05,5.000000000000000000e+00,2.100000000000000000e+01
5.397700000000000000e+04,5.000000000000000240e-05,5.999999999999999474e-05,6.999999999999999387e-05,1.199999999999999895e-04,-1.100000000000000039e-04,1.899999999999999834e-04,1.000000000000000048e-04,5.000000000000000240e-05,5.000000000000000000e+00,2.100000000000000000e+01
5.397800000000000000e+04,5.000000000000000240e-05,5.999999999999999474e-05,6.999999999999999387e-05,1.199999999999999895e-04,-1.100000000000000039e-04,1.899999999999999834e-04,1.000000000000000048e-04,5.000000000000000240e-05,5.000000000000000000e+00,2.100000000000000000e+01
5.397900000000000000e+04,5.000000000000000240e-05,5.999999999999999474e-05,6.999999999999999387e-05,1.199999999999999895e-04,-1.100000000000000039e-04,1.899999999999999834e-04,1.000000000000000048e-04,5.000000000000000240e-05,5.000000000000000000e+00,2.100000000000000000e+01
5.398000000000000000e+04,2.000000000000000164e-05,0.000000000000000000e+00,0.000000000000000000e+00,-2.000000000000000164e-05,-2.999999999999999737e-04,-1.300000000000000157e-04,-5.999999999999999474e-05,-2.000000000000000164e-05,5.000000000000000000e+00,2.100000000000000000e+01
5.398100000000000000e+04,-1.000000000000000082e-05,0.000000000000000000e+00,1.000000000000000082e-05,-3.200000000000000262e-04,-3.899999999999999929e-04,-5.000000000000000240e-05,-5.999999999999999474e-05,-2.999999999999999737e-05,5.000000000000000000e+00,2.100000000000000000e+01
5.398200000000000000e+04,-1.000000000000000082e-05,0.000000000000000000e+00,1.000000000000000082e-05,-3.200000000000000262e-04,-3.899999999999999929e-04,-5.000000000000000240e-05,-5.999999999999999474e-05,-2.999999999999999737e-05,5.000000000000000000e+00,2.100000000000000000e+01
5.398300000000000000e+04,-1.000000000000000082e-05,0.000000000000000000e+00,1.000000000000000082e-05,-3.200000000000000262e-04,-3.899999999999999929e-04,-5.000000000000000240e-05,-5.999999999999999474e-05,-2.999999999999999737e-05,5.000000000000000000e+00,2.100000000000000000e+01
5.398400000000000000e+04,-1.000000000000000082e-05,0.000000000000000000e+00,1.000000000000000082e-05,-3.200000000000000262e-04,-3.899999999999999929e-04,-5.000000000000000240e-05,-5.999999999999999474e-05,-2.999999999999999737e-05,5.000000000000000000e+00,2.100000000000000000e+01
5.398500000000000000e+04,-1.000000000000000082e-05,0.000000000000000000e+00,1.000000000000000082e-05,-3.200000000000000262e-04,-3.899999999999999929e-04,-5.000000000000000240e-05,-5.999999999999999474e-05,-2.999999999999999737e-05,5.000000000000000000e+00,2.100000000000000000e+01
5.398600000000000000e+04,-1.000000000000000082e-05,0.000000000000000000e+00,1.000000000000000082e-05,-3.200000000000000262e-04,-3.899999999999999929e-04,-5.000000000000000240e-05,-5.999999999999999474e-05,-2.999999999999999737e-05,5.000000000000000000e+00,2.100000000000000000e+01
5.398800000000000000e+04,-1.000000000000000082e-05,0.000000000000000000e+00,1.000000000000000082e-05,-3.200000000000000262e-04,-3.899999999999999929e-04,-5.000000000000000240e-05,-5.999999999999999474e-05,-2.999999999999999737e-05,5.000000000000000000e+00,2.100000000000000000e+01
5.398900000000000000e+04,-1.000000000000000082e-05,0.000000000000000000e+00,1.000000000000000082e-05,-3.200000000000000262e-04,-3.899999999999999929e-04,-5.000000000000000240e-05,-5.999999999999999474e-05,-2.999999999999999737e-05,5.000000000000000000e+00,2.100000000000000000e+01
5.399000000000000000e+04,-1.000000000000000082e-05,0.000000000000000000e+00,1.000000000000000082e-05,-3.200000000000000262e-04,-3.899999999999999929e-04,-5.000000000000000240e-05,-5.999999999999999474e-05,-2.999999999999999737e-05,5.000000000000000000e+00,2.100000000000000000e+01
5.399100000000000000e+04,-1.000000000000000082e-05,0.000000000000000000e+00,1.000000000000000082e-05,-3.200000000000000262e-04,-3.899999999999999929e-04,-5.000000000000000240e-05,-5.999999999999999474e-05,-2.999999999999999737e-05,5.000000000000000000e+00,2.100000000000000000e+01
5.399200000000000000e+04,-1.000000000000000082e-05,0.000000000000000000e+00,1.000000000000000082e-05,-3.200000000000000262e-04,-3.899999999999999929e-04,-5.000000000000000240e-05,-5.999999999999999474e-05,-2.999999999999999737e-05,5.000000000000000000e+00,2.100000000000000000e+01
5.399300000000000000e+04,-1.000000000000000082e-05,0.000000000000000000e+00,1.000000000000000082e-05,-3.200000000000000262e-04,-3.899999999999999929e-04,-5.000000000000000240e-05,-5.999999999999999474e-05,-2.999999999999999737e-05,5.000000000000000000e+00,2.100000000000000000e+01
5.399400000000000000e+04,-1.000000000000000082e-05,0.000000000000000000e+00,1.000000000000000082e-05,-3.200000000000000262e-04,-3.899999999999999929e-04,-5.000000000000000240e-05,-5.999999999999999474e-05,-2.999999999999999737e-05,5.000000000000000000e+00,2.100000000000000000e+01
5.399500000000000000e+04,-1.000000000000000082e-05,0.000000000000000000e+00,1.000000000000000082e-05,-3.200000000000000262e-04,-3.899999999999999929e-04,-5.000000000000000240e-05,-5.999999999999999474e-05,-2.999999999999999737e-05,5.000000000000000000e+00,2.100000000000000000e+01
5.399600000000000000e+04,-1.000000000000000082e-05,0.000000000000000000e+00,1.000000000000000082e-05,-3.200000000000000262e-04,-3.899999999999999929e-04,-5.000000000000000240e-05,-5.999999999999999474e-05,-2.999999999999999737e-05,5.000000000000000000e+00,2.100000000000000000e+01
5.399700000000000000e+04,-1.000000000000000082e-05,0.000000000000000000e+00,1.000000000000000082e-05,-3.200000000000000262e-04,-3.899999999999999929e-04,-5.000000000000000240e-05,-5.999999999999999474e-05,-2.999999999999999737e-05,5.000000000000000000e+00,2.100000000000000000e+01
5.399800000000000000e+04,-1.000000000000000082e-05,0.000000000000000000e+00,1.000000000000000082e-05,-3.200000000000000262e-04,-3.899999999999999929e-04,-5.000000000000000240e-05,-5.999999999999999474e-05,-2.999999999999999737e-05,5.000000000000000000e+00,2.100000000000000000e+01
5.399900000000000000e+04,-1.000000000000000082e-05,0.000000000000000000e+00,1.000000000000000082e-05,-3.200000000000000262e-04,-3.899999999999999929e-04,-5.000000000000000240e-05,-5.999999999999999474e-05,-2.999999999999999737e-05,5.000000000000000000e+00,2.100000000000000000e+01
5.400000000000000000e+04,-1.000000000000000082e-05,0.000000000000000000e+00,1.000000000000000082e-05,-3.200000000000000262e-04,-3.899999999999999929e-04,-5.000000000000000240e-05,-5.999999999999999474e-05,-2.999999999999999737e-05,5.000000000000000000e+00,2.100000000000000000e+01
5.400100000000000000e+04,-1.000000000000000082e-05,0.000000000000000000e+00,1.000000000000000082e-05,-3.200000000000000262e-04,-3.899999999999999929e-04,-5.000000000000000240e-05,-5.999999999999999474e-05,-2.999999999999999737e-05,5.000000000000000000e+00,2.100000000000000000e+01
5.400200000000000000e+04,-4.000000000000000327e-05,-5.000000000000000240e-05,0.000000000000000000e+00,0.000000000000000000e+00,-2.299999999999999799e-04,-1.000000000000000082e-05,0.000000000000000000e+00,-2.000000000000000164e-05,5.000000000000000000e+00,2.100000000000000000e+01
5.400300000000000000e+04,-4.000000000000000327e-05,-5.000000000000000240e-05,0.000000000000000000e+00,0.000000000000000000e+00,-2.299999999999999799e-04,-1.000000000000000082e-05,0.000000000000000000e+00,-2.000000000000000164e-05,5.000000000000000000e+00,2.100000000000000000e+01
5.400400000000000000e+04,2.000000000000000164e-05,1.000000000000000082e-05,-9.000000000000000567e-05,-3.099999999999999999e-04,-2.299999999999999799e-04,1.000000000000000048e-04,2.000000000000000164e-05,-1.000000000000000082e-05,5.000000000000000000e+00,2.100000000000000000e+01
5.400500000000000000e+04,2.000000000000000164e-05,1.000000000000000082e-05,-9.000000000000000567e-05,-3.099999999999999999e-04,-2.299999999999999799e-04,1.000000000000000048e-04,2.000000000000000164e-05,-1.000000000000000082e-05,5.000000000000000000e+00,2.100000000000000000e+01
5.400600000000000000e+04,2.000000000000000164e-05,1.000000000000000082e-05,-9.000000000000000567e-05,-3.099999999999999999e-04,-2.299999999999999799e-04,1.000000000000000048e-04,2.000000000000000164e-05,-1.000000000000000082e-05,5.000000000000000000e+00,2.100000000000000000e+01
5.400700000000000000e+04,2.000000000000000164e-05,1.000000000000000082e-05,-9.000000000000000567e-05,-3.099999999999999999e-04,-2.299999999999999799e-04,1.000000000000000048e-04,2.000000000000000164e-05,-1.000000000000000082e-05,5.000000000000000000e+00,2.100000000000000000e+01
5.400800000000000000e+04,2.000000000000000164e-05,1.000000000000000082e-05,-9.000000000000000567e-05,-3.099999999999999999e-04,-2.299999999999999799e-04,1.000000000000000048e-04,2.000000000000000164e-05,-1.000000000000000082e-05,5.000000000000000000e+00,2.100000000000000000e+01
5.400900000000000000e+04,2.000000000000000164e-05,1.000000000000000082e-05,-9.000000000000000567e-05,-3.099999999999999999e-04,-2.299999999999999799e-04,1.000000000000000048e-04,2.000000000000000164e-05,-1.000000000000000082e-05,5.000000000000000000e+00,2.100000000000000000e+01
5.401000000000000000e+04,2.000000000000000164e-05,1.000000000000000082e-05,-9.000000000000000567e-05,-3.099999999999999999e-04,-2.299999999999999799e-04,1.000000000000000048e-04,2.000000000000000164e-05,-1.000000000000000082e-05,5.000000000000000000e+00,2.100000000000000000e+01
5.401100000000000000e+04,2.000000000000000164e-05,1.000000000000000082e-05,-9.000000000000000567e-05,-3.099999999999999999e-04,-2.299999999999999799e-04,1.000000000000000048e-04,2.000000000000000164e-05,-1.000000000000000082e-05,5.000000000000000000e+00,2.100000000000000000e+01
5.401200000000000000e+04,2.000000000000000164e-05,1.000000000000000082e-05,-9.000000000000000567e-05,-3.099999999999999999e-04,-2.299999999999999799e-04,1.000000000000000048e-04,2.000000000000000164e-05,-1.000000000000000082e-05,5.000000000000000000e+00,2.100000000000000000e+01
5.401300000000000000e+04,2.000000000000000164e-05,1.000000000000000082e-05,-9.000000000000000567e-05,-3.099999999999999999e-04,-2.299999999999999799e-04,1.000000000000000048e-04,2.000000000000000164e-05,-1.000000000000000082e-05,5.000000000000000000e+00,2.100000000000000000e+01
5.401400000000000000e+04,2.000000000000000164e-05,1.000000000000000082e-05,-9.000000000000000567e-05,-3.099999999999999999e-04,-2.299999999999999799e-04,1.000000000000000048e-04,2.000000000000000164e-05,-1.000000000000000082e-05,5.000000000000000000e+00,2.100000000000000000e+01
5.401500000000000000e+04,2.000000000000000164e-05,1.000000000000000082e-05,-9.000000000000000567e-05,-3.099999999999999999e-04,-2.299999999999999799e-04,1.000000000000000048e-04,2.000000000000000164e-05,-1.000000000000000082e-05,5.000000000000000000e+00,2.100000000000000000e+01
5.401600000000000000e+04,2.000000000000000164e-05,1.000000000000000082e-05,-9.000000000000000567e-05,-3.099999999999999999e-04,-2.299999999999999799e-04,1.000000000000000048e-04,2.000000000000000164e-05,-1.000000000000000082e-05,5.000000000000000000e+00,2.100000000000000000e+01
5.401700000000000000e+04,-2.999999999999999737e-05,-2.000000000000000164e-05,2.999999999999999737e-05,0.000000000000000000e+00,1.800000000000000113e-04,0.000000000000000000e+00,-4.000000000000000327e-05,-5.999999999999999474e-05,5.000000000000000000e+00,2.100000000000000000e+01
5.401800000000000000e+04,-2.999999999999999737e-05,-2.000000000000000164e-05,2.999999999999999737e-05,0.000000000000000000e+00,1.800000000000000113e-04,0.000000000000000000e+00,-4.000000000000000327e-05,-5.999999999999999474e-05,5.000000000000000000e+00,2.100000000000000000e+01
5.401900000000000000e+04,-2.999999999999999737e-05,-2.000000000000000164e-05,2.999999999999999737e-05,0.000000000000000000e+00,1.800000000000000113e-04,0.000000000000000000e+00,-4.000000000000000327e-05,-5.999999999999999474e-05,5.000000000000000000e+00,2.100000000000000000e+01
5.402000000000000000e+04,-2.999999999999999737e-05,-2.000000000000000164e-05,2.999999999999999737e-05,0.000000000000000000e+00,1.800000000000000113e-04,0.000000000000000000e+00,-4.000000000000000327e-05,-5.999999999999999474e-05,5.000000000000000000e+00,2.100000000000000000e+01
5.402100000000000000e+04,-2.999999999999999737e-05,-2.000000000000000164e-05,2.999999999999999737e-05,0.000000000000000000e+00,1.800000000000000113e-04,0.000000000000000000e+00,-4.000000000000000327e-05,-5.999999999999999474e-05,5.000000000000000000e+00,2.100000000000000000e+01
5.402200000000000000e+04,-2.999999999999999737e-05,-2.000000000000000164e-05,2.999999999999999737e-05,0.000000000000000000e+00,1.800000000000000113e-04,0.000000000000000000e+00,-4.000000000000000327e-05,-5.999999999999999474e-05,5.000000000000000000e+00,2.100000000000000000e+01
5.402300000000000000e+04,-2.999999999999999737e-05,-4.000000000000000327e-05,-1.000000000000000082e-05,-9.000000000000000567e-05,-3.299999999999999982e-04,-1.100000000000000039e-04,-5.999999999999999474e-05,-4.000000000000000327e-05,5.000000000000000000e+00,2.100000000000000000e+01
5.402500000000000000e+04,-2.999999999999999737e-05,-4.000000000000000327e-05,-1.000000000000000082e-05,-9.000000000000000567e-05,-3.299999999999999982e-04,-1.100000000000000039e-04,-5.999999999999999474e-05,-4.000000000000000327e-05,5.000000000000000000e+00,2.100000000000000000e+01
5.402600000000000000e+04,-2.999999999999999737e-05,-4.000000000000000327e-05,-1.000000000000000082e-05,-9.000000000000000567e-05,-3.299999999999999982e-04,-1.100000000000000039e-04,-5.999999999999999474e-05,-4.000000000000000327e-05,5.000000000000000000e+00,2.100000000000000000e+01
5.402700000000000000e+04,-2.999999999999999737e-05,-4.000000000000000327e-05,-1.000000000000000082e-05,-9.000000000000000567e-05,-3.299999999999999982e-04,-1.100000000000000039e-04,-5.999999999999999474e-05,-4.000000000000000327e-05,5.000000000000000000e+00,2.100000000000000000e+01
5.402800000000000000e+04,-2.999999999999999737e-05,-4.000000000000000327e-05,-1.000000000000000082e-05,-9.000000000000000567e-05,-3.299999999999999982e-04,-1.100000000000000039e-04,-5.999999999999999474e-05,-4.000000000000000327e-05,5.000000000000000000e+00,2.100000000000000000e+01
5.402900000000000000e+04,-2.999999999999999737e-05,-4.000000000000000327e-05,-1.000000000000000082e-05,-9.000000000000000567e-05,-3.299999999999999982e-04,-1.100000000000000039e-04,-5.999999999999999474e-05,-4.000000000000000327e-05,5.000000000000000000e+00,2.100000000000000000e+01
5.403000000000000000e+04,-2.999999999999999737e-05,-4.000000000000000327e-05,-1.000000000000000082e-05,-9.000000000000000567e-05,-3.299999999999999982e-04,-1.100000000000000039e-04,-5.999999999999999474e-05,-4.000000000000000327e-05,5.000000000000000000e+00,2.100000000000000000e+01
5.403100000000000000e+04,-2.999999999999999737e-05,-4.000000000000000327e-05,-1.000000000000000082e-05,-9.000000000000000567e-05,-3.299999999999999982e-04,-1.100000000000000039e-04,-5.999999999999999474e-05,-4.000000000000000327e-05,5.000000000000000000e+00,2.100000000000000000e+01
5.403200000000000000e+04,-2.999999999999999737e-05,-4.000000000000000327e-05,-1.000000000000000082e-05,-9.000000000000000567e-05,-3.299999999999999982e-04,-1.100000000000000039e-04,-5.999999999999999474e-05,-4.000000000000000327e-05,5.000000000000000000e+00,2.100000000000000000e+01
5.403300000000000000e+04,-2.999999999999999737e-05,-4.000000000000000327e-05,-1.000000000000000082e-05,-9.000000000000000567e-05,-3.299999999999999982e-04,-1.100000000000000039e-04,-5.999999999999999474e-05,-4.000000000000000327e-05,5.000000000000000000e+00,2.100000000000000000e+01
5.403400000000000000e+04,-2.999999999999999737e-05,-4.000000000000000327e-05,-1.000000000000000082e-05,-9.000000000000000567e-05,-3.299999999999999982e-04,-1.100000000000000039e-04,-5.999999999999999474e-05,-4.000000000000000327e-05,5.000000000000000000e+00,2.100000000000000000e+01
5.403500000000000000e+04,-2.999999999999999737e-05,-4.000000000000000327e-05,-1.000000000000000082e-05,-9.000000000000000567e-05,-3.299999999999999982e-04,-1.100000000000000039e-04,-5.999999999999999474e-05,-4.000000000000000327e-05,5.000000000000000000e+00,2.100000000000000000e+01
5.403600000000000000e+04,-2.999999999999999737e-05,-4.000000000000000327e-05,-1.000000000000000082e-05,-9.000000000000000567e-05,-3.299999999999999982e-04,-1.100000000000000039e-04,-5.999999999999999474e-05,-4.000000000000000327e-05,5.000000000000000000e+00,2.100000000000000000e+01
5.403800000000000000e+04,-2.999999999999999737e-05,-4.000000000000000327e-05,-1.000000000000000082e-05,-9.000000000000000567e-05,-3.299999999999999982e-04,-1.100000000000000039e-04,-5.999999999999999474e-05,-4.000000000000000327e-05,5.000000000000000000e+00,2.100000000000000000e+01
5.403900000000000000e+04,-2.999999999999999737e-05,-4.000000000000000327e-05,-1.000000000000000082e-05,-9.000000000000000567e-05,-3.299999999999999982e-04,-1.100000000000000039e-04,-5.999999999999999474e-05,-4.000000000000000327e-05,5.000000000000000000e+00,2.100000000000000000e+01
5.404000000000000000e+04,2.999999999999999737e-05,6.999999999999999387e-05,1.499999999999999869e-04,1.300000000000000157e-04,5.800000000000000034e-04,5.000000000000000240e-05,0.000000000000000000e+00,2.000000000000000164e-05,5.000000000000000000e+00,2.100000000000000000e+01
5.404100000000000000e+04,2.999999999999999737e-05,6.999999999999999387e-05,1.499999999999999869e-04,1.300000000000000157e-04,5.800000000000000034e-04,5.000000000000000240e-05,0.000000000000000000e+00,2.000000000000000164e-05,5.000000000000000000e+00,2.100000000000000000e+01
5.404200000000000000e+04,-2.000000000000000164e-05,-2.999999999999999737e-05,-1.600000000000000131e-04,-2.000000000000000096e-04,7.099999999999999107e-04,1.699999999999999851e-04,5.000000000000000240e-05,0.000000000000000000e+00,5.000000000000000000e+00,2.100000000000000000e+01
5.404300000000000000e+04,-2.000000000000000164e-05,-2.999999999999999737e-05,-1.600000000000000131e-04,-2.000000000000000096e-04,7.099999999999999107e-04,1.699999999999999851e-04,5.000000000000000240e-05,0.000000000000000000e+00,5.000000000000000000e+00,2.100000000000000000e+01
5.404400000000000000e+04,-2.000000000000000164e-05,-2.999999999999999737e-05,-1.600000000000000131e-04,-2.000000000000000096e-04,7.099999999999999107e-04,1.699999999999999851e-04,5.000000000000000240e-05,0.000000000000000000e+00,5.000000000000000000e+00,2.100000000000000000e+01
5.404500000000000000e+04,-2.000000000000000164e-05,-2.999999999999999737e-05,-1.600000000000000131e-04,-2.000000000000000096e-04,7.099999999999999107e-04,1.699999999999999851e-04,5.000000000000000240e-05,0.000000000000000000e+00,5.000000000000000000e+00,2.100000000000000000e+01
5.404600000000000000e+04,-2.000000000000000164e-05,-2.999999999999999737e-05,-1.600000000000000131e-04,-2.000000000000000096e-04,7.099999999999999107e-04,1.699999999999999851e-04,5.000000000000000240e-05,0.000000000000000000e+00,5.000000000000000000e+00,2.100000000000000000e+01
5.404700000000000000e+04,-2.000000000000000164e-05,-2.999999999999999737e-05,-1.600000000000000131e-04,-2.000000000000000096e-04,7.099999999999999107e-04,1.699999999999999851e-04,5.000000000000000240e-05,0.000000000000000000e+00,5.000000000000000000e+00,2.100000000000000000e+01
5.404800000000000000e+04,-2.000000000000000164e-05,-2.999999999999999737e-05,-1.600000000000000131e-04,-2.000000000000000096e-04,7.099999999999999107e-04,1.699999999999999851e-04,5.000000000000000240e-05,0.000000000000000000e+00,5.000000000000000000e+00,2.100000000000000000e+01
5.404900000000000000e+04,-2.000000000000000164e-05,-2.999999999999999737e-05,-1.600000000000000131e-04,-2.000000000000000096e-04,7.099999999999999107e-04,1.699999999999999851e-04,5.000000000000000240e-05,0.000000000000000000e+00,5.000000000000000000e+00,2.100000000000000000e+01
5.405000000000000000e+04,-2.000000000000000164e-05,-2.999999999999999737e-05,-1.600000000000000131e-04,-2.000000000000000096e-04,7.099999999999999107e-04,1.699999999999999851e-04,5.000000000000000240e-05,0.000000000000000000e+00,5.000000000000000000e+00,2.100000000000000000e+01
5.405100000000000000e+04,-2.000000000000000164e-05,-2.999999999999999737e-05,-1.600000000000000131e-04,-2.000000000000000096e-04,7.099999999999999107e-04,1.699999999999999851e-04,5.000000000000000240e-05,0.000000000000000000e+00,5.000000000000000000e+00,2.100000000000000000e+01
5.405200000000000000e+04,-2.000000000000000164e-05,-2.999999999999999737e-05,-1.600000000000000131e-04,-2.000000000000000096e-04,7.099999999999999107e-04,1.699999999999999851e-04,5.000000000000000240e-05,0.000000000000000000e+00,5.000000000000000000e+00,2.100000000000000000e+01
5.405300000000000000e+04,-2.000000000000000164e-05,-2.999999999999999737e-05,-1.600000000000000131e-04,-2.000000000000000096e-04,7.099999999999999107e-04,1.699999999999999851e-04,5.000000000000000240e-05,0.000000000000000000e+00,5.000000000000000000e+00,2.100000000000000000e+01
5.405400000000000000e+04,-2.000000000000000164e-05,-2.999999999999999737e-05,-1.600000000000000131e-04,-2.000000000000000096e-04,7.099999999999999107e-04,1.699999999999999851e-04,5.000000000000000240e-05,0.000000000000000000e+00,5.000000000000000000e+00,2.100000000000000000e+01
5.405500000000000000e+04,-2.000000000000000164e-05,-2.999999999999999737e-05,-1.600000000000000131e-04,-2.000000000000000096e-04,7.099999999999999107e-04,1.699999999999999851e-04,5.000000000000000240e-05,0.000000000000000000e+00,5.000000000000000000e+00,2.100000000000000000e+01
5.405600000000000000e+04,-2.000000000000000164e-05,-2.999999999999999737e-05,-1.600000000000000131e-04,-2.000000000000000096e-04,7.099999999999999107e-04,1.699999999999999851e-04,5.000000000000000240e-05,0.000000000000000000e+00,5.000000000000000000e+00,2.100000000000000000e+01
5.405700000000000000e+04,-2.000000000000000164e-05,-2.999999999999999737e-05,-1.600000000000000131e-04,-2.000000000000000096e-04,7.099999999999999107e-04,1.699999999999999851e-04,5.000000000000000240e-05,0.000000000000000000e+00,5.000000000000000000e+00,2.100000000000000000e+01
5.405800000000000000e+04,-2.000000000000000164e-05,-2.999999999999999737e-05,-1.600000000000000131e-04,-2.000000000000000096e-04,7.099999999999999107e-04,1.699999999999999851e-04,5.000000000000000240e-05,0.000000000000000000e+00,5.000000000000000000e+00,2.100000000000000000e+01
5.405900000000000000e+04,-2.000000000000000164e-05,-2.999999999999999737e-05,-1.600000000000000131e-04,-2.000000000000000096e-04,7.099999999999999107e-04,1.699999999999999851e-04,5.000000000000000240e-05,0.000000000000000000e+00,5.000000000000000000e+00,2.100000000000000000e+01
5.406000000000000000e+04,-2.000000000000000164e-05,-2.999999999999999737e-05,-1.600000000000000131e-04,-2.000000000000000096e-04,7.099999999999999107e-04,1.699999999999999851e-04,5.000000000000000240e-05,0.000000000000000000e+00,5.000000000000000000e+00,2.100000000000000000e+01
5.406100000000000000e+04,-2.000000000000000164e-05,-2.999999999999999737e-05,-1.600000000000000131e-04,-2.000000000000000096e-04,7.099999999999999107e-04,1.699999999999999851e-04,5.000000000000000240e-05,0.000000000000000000e+00,5.000000000000000000e+00,2.100000000000000000e+01
5.406200000000000000e+04,2.000000000000000164e-05,0.000000000000000000e+00,-5.999999999999999474e-05,-1.100000000000000039e-04,-2.000000000000000096e-04,-2.999999999999999737e-05,0.000000000000000000e+00,2.000000000000000164e-05,5.000000000000000000e+00,2.100000000000000000e+01
5.406300000000000000e+04,2.000000000000000164e-05,0.000000000000000000e+00,-5.999999999999999474e-05,-1.100000000000000039e-04,-2.000000000000000096e-04,-2.999999999999999737e-05,0.000000000000000000e+00,2.000000000000000164e-05,5.000000000000000000e+00,2.100000000000000000e+01
5.406400000000000000e+04,0.000000000000000000e+00,2.000000000000000164e-05,8.000000000000000654e-05,-2.999999999999999737e-05,-2.200000000000000078e-04,-2.999999999999999737e-05,-9.000000000000000567e-05,-4.000000000000000327e-05,5.000000000000000000e+00,2.100000000000000000e+01
5.406500000000000000e+04,0.000000000000000000e+00,2.000000000000000164e-05,8.000000000000000654e-05,-2.999999999999999737e-05,-2.200000000000000078e-04,-2.999999999999999737e-05,-9.000000000000000567e-05,-4.000000000000000327e-05,5.000000000000000000e+00,2.100000000000000000e+01
5.406600000000000000e+04,0.000000000000000000e+00,2.000000000000000164e-05,8.000000000000000654e-05,-2.999999999999999737e-05,-2.200000000000000078e-04,-2.999999999999999737e-05,-9.000000000000000567e-05,-4.000000000000000327e-05,5.000000000000000000e+00,2.100000000000000000e+01
5.406700000000000000e+04,0.000000000000000000e+00,2.000000000000000164e-05,8.000000000000000654e-05,-2.999999999999999737e-05,-2.200000000000000078e-04,-2.999999999999999737e-05,-9.000000000000000567e-05,-4.000000000000000327e-05,5.000000000000000000e+00,2.100000000000000000e+01
5.406800000000000000e+04,0.000000000000000000e+00,2.000000000000000164e-05,8.000000000000000654e-05,-2.999999999999999737e-05,-2.200000000000000078e-04,-2.999999999999999737e-05,-9.000000000000000567e-05,-4.000000000000000327e-05,5.000000000000000000e+00,2.100000000000000000e+01
5.406900000000000000e+04,0.000000000000000000e+00,2.000000000000000164e-05,8.000000000000000654e-05,-2.999999999999999737e-05,-2.200000000000000078e-04,-2.999999999999999737e-05,-9.000000000000000567e-05,-4.000000000000000327e-05,5.000000000000000000e+00,2.100000000000000000e+01
5.407000000000000000e+04,0.000000000000000000e+00,2.000000000000000164e-05,8.000000000000000654e-05,-2.999999999999999737e-05,-2.200000000000000078e-04,-2.999999999999999737e-05,-9.000000000000000567e-05,-4.000000000000000327e-05,5.000000000000000000e+00,2.100000000000000000e+01
5.407100000000000000e+04,0.000000000000000000e+00,2.000000000000000164e-05,8.000000000000000654e-05,-2.999999999999999737e-05,-2.200000000000000078e-04,-2.999999999999999737e-05,-9.000000000000000567e-05,-4.000000000000000327e-05,5.000000000000000000e+00,2.100000000000000000e+01
5.407200000000000000e+04,0.000000000000000000e+00,2.000000000000000164e-05,8.000000000000000654e-05,-2.999999999999999737e-05,-2.200000000000000078e-04,-2.999999999999999737e-05,-9.000000000000000567e-05,-4.000000000000000327e-05,5.000000000000000000e+00,2.100000000000000000e+01
5.407300000000000000e+04,0.000000000000000000e+00,2.000000000000000164e-05,8.000000000000000654e-05,-2.999999999999999737e-05,-2.200000000000000078e-04,-2.999999999999999737e-05,-9.000000000000000567e-05,-4.000000000000000327e-05,5.000000000000000000e+00,2.100000000000000000e+01
5.407400000000000000e+04,0.000000000000000000e+00,2.000000000000000164e-05,8.000000000000000654e-05,-2.999999999999999737e-05,-2.200000000000000078e-04,-2.999999999999999737e-05,-9.000000000000000567e-05,-4.000000000000000327e-05,5.000000000000000000e+00,2.100000000000000000e+01
5.407500000000000000e+04,0.000000000000000000e+00,2.000000000000000164e-05,8.000000000000000654e-05,-2.999999999999999737e-05,-2.200000000000000078e-04,-2.999999999999999737e-05,-9.000000000000000567e-05,-4.000000000000000327e-05,5.000000000000000000e+00,2.100000000000000000e+01
5.407600000000000000e+04,0.000000000000000000e+00,2.000000000000000164e-05,8.000000000000000654e-05,-2.999999999999999737e-05,-2.200000000000000078e-04,-2.999999999999999737e-05,-9.000000000000000567e-05,-4.000000000000000327e-05,5.000000000000000000e+00,2.100000000000000000e+01
5.407700000000000000e+04,5.000000000000000240e-05,5.999999999999999474e-05,-2.000000000000000164e-05,-6.999999999999999387e-05,1.600000000000000131e-04,-5.000000000000000240e-05,-1.000000000000000082e-05,1.000000000000000082e-05,5.000000000000000000e+00,2.100000000000000000e+01
5.407900000000000000e+04,5.000000000000000240e-05,5.999999999999999474e-05,-2.000000000000000164e-05,-6.999999999999999387e-05,1.600000000000000131e-04,-5.000000000000000240e-05,-1.000000000000000082e-05,1.000000000000000082e-05,5.000000000000000000e+00,2.100000000000000000e+01
5.408000000000000000e+04,5.000000000000000240e-05,5.999999999999999474e-05,-2.000000000000000164e-05,-6.999999999999999387e-05,1.600000000000000131e-04,-5.000000000000000240e-05,-1.000000000000000082e-05,1.000000000000000082e-05,5.000000000000000000e+00,2.100000000000000000e+01
5.408100000000000000e+04,5.000000000000000240e-05,5.999999999999999474e-05,-2.000000000000000164e-05,-6.999999999999999387e-05,1.600000000000000131e-04,-5.000000000000000240e-05,-1.000000000000000082e-05,1.000000000000000082e-05,5.000000000000000000e+00,2.100000000000000000e+01
5.408200000000000000e+04,5.000000000000000240e-05,5.999999999999999474e-05,-2.000000000000000164e-05,-6.999999999999999387e-05,1.600000000000000131e-04,-5.000000000000000240e-05,-1.000000000000000082e-05,1.000000000000000082e-05,5.000000000000000000e+00,2.100000000000000000e+01
5.408300000000000000e+04,-2.000000000000000164e-05,-5.999999999999999474e-05,2.999999999999999737e-05,8.000000000000000654e-05,-1.899999999999999834e-04,-5.000000000000000240e-05,-2.999999999999999737e-05,0.000000000000000000e+00,5.000000000000000000e+00,2.100000000000000000e+01
5.408400000000000000e+04,-2.000000000000000164e-05,-5.999999999999999474e-05,2.999999999999999737e-05,8.000000000000000654e-05,-1.899999999999999834e-04,-5.000000000000000240e-05,-2.999999999999999737e-05,0.000000000000000000e+00,5.000000000000000000e+00,2.100000000000000000e+01
5.408500000000000000e+04,-2.000000000000000164e-05,-5.999999999999999474e-05,2.999999999999999737e-05,8.000000000000000654e-05,-1.899999999999999834e-04,-5.000000000000000240e-05,-2.999999999999999737e-05,0.000000000000000000e+00,5.000000000000000000e+00,2.100000000000000000e+01
5.408600000000000000e+04,-2.000000000000000164e-05,-5.999999999999999474e-05,2.999999999999999737e-05,8.000000000000000654e-05,-1.899999999999999834e-04,-5.000000000000000240e-05,-2.999999999999999737e-05,0.000000000000000000e+00,5.000000000000000000e+00,2.100000000000000000e+01
5.408800000000000000e+04,-2.000000000000000164e-05,-5.999999999999999474e-05,2.999999999999999737e-05,8.000000000000000654e-05,-1.899999999999999834e-04,-5.000000000000000240e-05,-2.999999999999999737e-05,0.000000000000000000e+00,5.000000000000000000e+00,2.100000000000000000e+01
5.408900000000000000e+04,-2.000000000000000164e-05,-5.999999999999999474e-05,2.999999999999999737e-05,8.000000000000000654e-05,-1.899999999999999834e-04,-5.000000000000000240e-05,-2.999999999999999737e-05,0.000000000000000000e+00,5.000000000000000000e+00,2.100000000000000000e+01
5.409000000000000000e+04,-2.000000000000000164e-05,-5.999999999999999474e-05,2.999999999999999737e-05,8.000000000000000654e-05,-1.899999999999999834e-04,-5.000000000000000240e-05,-2.999999999999999737e-05,0.000000000000000000e+00,5.000000000000000000e+00,2.100000000000000000e+01
5.409100000000000000e+04,-2.000000000000000164e-05,-5.999999999999999474e-05,2.999999999999999737e-05,8.000000000000000654e-05,-1.899999999999999834e-04,-5.000000000000000240e-05,-2.999999999999999737e-05,0.000000000000000000e+00,5.000000000000000000e+00,2.100000000000000000e+01
5.409200000000000000e+04,-2.000000000000000164e-05,-5.999999999999999474e-05,2.999999999999999737e-05,8.000000000000000654e-05,-1.899999999999999834e-04,-5.000000000000000240e-05,-2.999999999999999737e-05,0.000000000000000000e+00,5.000000000000000000e+00,2.100000000000000000e+01
5.409300000000000000e+04,-2.000000000000000164e-05,-5.999999999999999474e-05,2.999999999999999737e-05,8.000000000000000654e-05,-1.899999999999999834e-04,-5.000000000000000240e-05,-2.999999999999999737e-05,0.000000000000000000e+00,5.000000000000000000e+00,2.100000000000000000e+01
5.409400000000000000e+04,-2.000000000000000164e-05,-5.999999999999999474e-05,2.999999999999999737e-05,8.000000000000000654e-05,-1.899999999999999834e-04,-5.000000000000000240e-05,-2.999999999999999737e-05,0.000000000000000000e+00,5.000000000000000000e+00,2.100000000000000000e+01
5.409500000000000000e+04,-2.000000000000000164e-05,-5.999999999999999474e-05,2.999999999999999737e-05,8.000000000000000654e-05,-1.899999999999999834e-04,-5.000000000000000240e-05,-2.999999999999999737e-05,0.000000000000000000e+00,5.000000000000000000e+00,2.100000000000000000e+01
5.409600000000000000e+04,-2.000000000000000164e-05,-5.999999999999999474e-05,2.999999999999999737e-05,8.000000000000000654e-05,-1.899999999999999834e-04,-5.000000000000000240e-05,-2.999999999999999737e-05,0.000000000000000000e+00,5.000000000000000000e+00,2.100000000000000000e+01
5.409700000000000000e+04,-2.000000000000000164e-05,-5.999999999999999474e-05,2.999999999999999737e-05,8.000000000000000654e-05,-1.899999999999999834e-04,-5.000000000000000240e-05,-2.999999999999999737e-05,0.000000000000000000e+00,5.000000000000000000e+00,2.100000000000000000e+01
5.409800000000000000e+04,-2.000000000000000164e-05,-5.999999999999999474e-05,2.999999999999999737e-05,8.000000000000000654e-05,-1.899999999999999834e-04,-5.000000000000000240e-05,-2.999999999999999737e-05,0.000000000000000000e+00,5.000000000000000000e+00,2.100000000000000000e+01
5.409900000000000000e+04,-2.000000000000000164e-05,-5.999999999999999474e-05,2.999999999999999737e-05,8.000000000000000654e-05,-1.899999999999999834e-04,-5.000000000000000240e-05,-2.999999999999999737e-05,0.000000000000000000e+00,5.000000000000000000e+00,2.100000000000000000e+01
5.410000000000000000e+04,4.000000000000000327e-05,4.000000000000000327e-05,1.000000000000000082e-05,-1.699999999999999851e-04,-4.899999999999999842e-04,-1.300000000000000157e-04,-4.000000000000000327e-05,-2.000000000000000164e-05,5.000000000000000000e+00,2.100000000000000000e+01
5.410100000000000000e+04,2.999999999999999737e-05,5.999999999999999474e-05,2.999999999999999737e-05,3.200000000000000262e-04,1.499999999999999869e-04,-1.000000000000000082e-05,2.999999999999999737e-05,1.000000000000000082e-05,5.000000000000000000e+00,2.100000000000000000e+01
5.410200000000000000e+04,2.999999999999999737e-05,5.999999999999999474e-05,2.999999999999999737e-05,3.200000000000000262e-04,1.499999999999999869e-04,-1.000000000000000082e-05,2.999999999999999737e-05,1.000000000000000082e-05,5.000000000000000000e+00,2.100000000000000000e+01
5.410300000000000000e+04,2.999999999999999737e-05,5.999999999999999474e-05,2.999999999999999737e-05,3.200000000000000262e-04,1.499999999999999869e-04,-1.000000000000000082e-05,2.999999999999999737e-05,1.000000000000000082e-05,5.000000000000000000e+00,2.100000000000000000e+01
5.410400000000000000e+04,2.999999999999999737e-05,5.999999999999999474e-05,2.999999999999999737e-05,3.200000000000000262e-04,1.499999999999999869e-04,-1.000000000000000082e-05,2.999999999999999737e-05,1.000000000000000082e-05,5.000000000000000000e+00,2.100000000000000000e+01
5.410500000000000000e+04,2.999999999999999737e-05,5.999999999999999474e-05,2.999999999999999737e-05,3.200000000000000262e-04,1.499999999999999869e-04,-1.000000000000000082e-05,2.999999999999999737e-05,1.000000000000000082e-05,5.000000000000000000e+00,2.100000000000000000e+01
5.410600000000000000e+04,2.999999999999999737e-05,5.999999999999999474e-05,2.999999999999999737e-05,3.200000000000000262e-04,1.499999999999999869e-04,-1.000000000000000082e-05,2.999999999999999737e-05,1.000000000000000082e-05,5.000000000000000000e+00,2.100000000000000000e+01
5.410700000000000000e+04,2.999999999999999737e-05,5.999999999999999474e-05,2.999999999999999737e-05,3.200000000000000262e-04,1.499999999999999869e-04,-1.000000000000000082e-05,2.999999999999999737e-05,1.000000000000000082e-05,5.000000000000000000e+00,2.100000000000000000e+01
5.410800000000000000e+04,2.999999999999999737e-05,5.999999999999999474e-05,2.999999999999999737e-05,3.200000000000000262e-04,1.499999999999999869e-04,-1.000000000000000082e-05,2.999999999999999737e-05,1.000000000000000082e-05,5.000000000000000000e+00,2.100000000000000000e+01
5.410900000000000000e+04,2.999999999999999737e-05,5.999999999999999474e-05,2.999999999999999737e-05,3.200000000000000262e-04,1.499999999999999869e-04,-1.000000000000000082e-05,2.999999999999999737e-05,1.000000000000000082e-05,5.000000000000000000e+00,2.100000000000000000e+01
5.411000000000000000e+04,2.999999999999999737e-05,5.999999999999999474e-05,2.999999999999999737e-05,3.200000000000000262e-04,1.499999999999999869e-04,-1.000000000000000082e-05,2.999999999999999737e-05,1.000000000000000082e-05,5.000000000000000000e+00,2.100000000000000000e+01
5.411100000000000000e+04,2.999999999999999737e-05,5.999999999999999474e-05,2.999999999999999737e-05,3.200000000000000262e-04,1.499999999999999869e-04,-1.000000000000000082e-05,2.999999999999999737e-05,1.000000000000000082e-05,5.000000000000000000e+00,2.100000000000000000e+01
5.411200000000000000e+04,2.999999999999999737e-05,5.999999999999999474e-05,2.999999999999999737e-05,3.200000000000000262e-04,1.499999999999999869e-04,-1.000000000000000082e-05,2.999999999999999737e-05,1.000000000000000082e-05,5.000000000000000000e+00,2.100000000000000000e+01
5.411300000000000000e+04,2.999999999999999737e-05,5.999999999999999474e-05,2.999999999999999737e-05,3.200000000000000262e-04,1.499999999999999869e-04,-1.000000000000000082e-05,2.999999999999999737e-05,1.000000000000000082e-05,5.000000000000000000e+00,2.100000000000000000e+01
5.411400000000000000e+04,2.999999999999999737e-05,5.999999999999999474e-05,2.999999999999999737e-05,3.200000000000000262e-04,1.499999999999999869e-04,-1.000000000000000082e-05,2.999999999999999737e-05,1.000000000000000082e-05,5.000000000000000000e+00,2.100000000000000000e+01
5.411500000000000000e+04,2.999999999999999737e-05,5.999999999999999474e-05,2.999999999999999737e-05,3.200000000000000262e-04,1.499999999999999869e-04,-1.000000000000000082e-05,2.999999999999999737e-05,1.000000000000000082e-05,5.000000000000000000e+00,2.100000000000000000e+01
5.411600000000000000e+04,2.999999999999999737e-05,5.999999999999999474e-05,2.999999999999999737e-05,3.200000000000000262e-04,1.499999999999999869e-04,-1.000000000000000082e-05,2.999999999999999737e-05,1.000000000000000082e-05,5.000000000000000000e+00,2.100000000000000000e+01
5.411700000000000000e+04,2.999999999999999737e-05,5.999999999999999474e-05,2.999999999999999737e-05,3.200000000000000262e-04,1.499999999999999869e-04,-1.000000000000000082e-05,2.999999999999999737e-05,1.000000000000000082e-05,5.000000000000000000e+00,2.100000000000000000e+01
5.411800000000000000e+04,2.999999999999999737e-05,5.999999999999999474e-05,2.999999999999999737e-05,3.200000000000000262e-04,1.499999999999999869e-04,-1.000000000000000082e-05,2.999999999999999737e-05,1.000000000000000082e-05,5.000000000000000000e+00,2.100000000000000000e+01
5.411900000000000000e+04,2.999999999999999737e-05,5.999999999999999474e-05,2.999999999999999737e-05,3.200000000000000262e-04,1.499999999999999869e-04,-1.000000000000000082e-05,2.999999999999999737e-05,1.000000000000000082e-05,5.000000000000000000e+00,2.100000000000000000e+01
5.412000000000000000e+04,2.999999999999999737e-05,5.999999999999999474e-05,2.999999999999999737e-05,3.200000000000000262e-04,1.499999999999999869e-04,-1.000000000000000082e-05,2.999999999999999737e-05,1.000000000000000082e-05,5.000000000000000000e+00,2.100000000000000000e+01
5.412100000000000000e+04,2.999999999999999737e-05,5.999999999999999474e-05,2.999999999999999737e-05,3.200000000000000262e-04,1.499999999999999869e-04,-1.000000000000000082e-05,2.999999999999999737e-05,1.000000000000000082e-05,5.000000000000000000e+00,2.100000000000000000e+01
5.412200000000000000e+04,-5.000000000000000240e-05,-2.000000000000000164e-05,2.999999999999999737e-05,1.300000000000000157e-04,3.699999999999999947e-04,2.999999999999999737e-05,2.000000000000000164e-05,-1.000000000000000082e-05,5.000000000000000000e+00,2.100000000000000000e+01
5.412300000000000000e+04,-5.000000000000000240e-05,-2.000000000000000164e-05,2.999999999999999737e-05,1.300000000000000157e-04,3.699999999999999947e-04,2.999999999999999737e-05,2.000000000000000164e-05,-1.000000000000000082e-05,5.000000000000000000e+00,2.100000000000000000e+01
5.412400000000000000e+04,-2.000000000000000164e-05,-2.999999999999999737e-05,-4.000000000000000327e-05,-1.899999999999999834e-04,-6.999999999999999387e-05,-1.600000000000000131e-04,-4.000000000000000327e-05,-2.000000000000000164e-05,5.000000000000000000e+00,2.100000000000000000e+01
5.412500000000000000e+04,-2.000000000000000164e-05,-2.999999999999999737e-05,-4.000000000000000327e-05,-1.899999999999999834e-04,-6.999999999999999387e-05,-1.600000000000000131e-04,-4.000000000000000327e-05,-2.000000000000000164e-05,5.000000000000000000e+00,2.100000000000000000e+01
5.412600000000000000e+04,-2.000000000000000164e-05,-2.999999999999999737e-05,-4.000000000000000327e-05,-1.899999999999999834e-04,-6.999999999999999387e-05,-1.600000000000000131e-04,-4.000000000000000327e-05,-2.000000000000000164e-05,5.000000000000000000e+00,2.100000000000000000e+01
5.412700000000000000e+04,-2.000000000000000164e-05,-2.999999999999999737e-05,-4.000000000000000327e-05,-1.899999999999999834e-04,-6.999999999999999387e-05,-1.600000000000000131e-04,-4.000000000000000327e-05,-2.000000000000000164e-05,5.000000000000000000e+00,2.100000000000000000e+01
5.412800000000000000e+04,-2.000000000000000164e-05,-2.999999999999999737e-05,-4.000000000000000327e-05,-1.899999999999999834e-04,-6.999999999999999387e-05,-1.600000000000000131e-04,-4.000000000000000327e-05,-2.000000000000000164e-05,5.000000000000000000e+00,2.100000000000000000e+01
5.412900000000000000e+04,-2.000000000000000164e-05,-2.999999999999999737e-05,-4.000000000000000327e-05,-1.899999999999999834e-04,-6.999999999999999387e-05,-1.600000000000000131e-04,-4.000000000000000327e-05,-2.000000000000000164e-05,5.000000000000000000e+00,2.100000000000000000e+01
5.413000000000000000e+04,-2.000000000000000164e-05,-2.999999999999999737e-05,-4.000000000000000327e-05,-1.899999999999999834e-04,-6.999999999999999387e-05,-1.600000000000000131e-04,-4.000000000000000327e-05,-2.000000000000000164e-05,5.000000000000000000e+00,2.100000000000000000e+01
5.413100000000000000e+04,-2.000000000000000164e-05,-2.999999999999999737e-05,-4.000000000000000327e-05,-1.899999999999999834e-04,-6.999999999999999387e-05,-1.600000000000000131e-04,-4.000000000000000327e-05,-2.000000000000000164e-05,5.000000000000000000e+00,2.100000000000000000e+01
5.413200000000000000e+04,-2.000000000000000164e-05,-2.999999999999999737e-05,-4.000000000000000327e-05,-1.899999999999999834e-04,-6.999999999999999387e-05,-1.600000000000000131e-04,-4.000000000000000327e-05,-2.000000000000000164e-05,5.000000000000000000e+00,2.100000000000000000e+01
5.413300000000000000e+04,-2.000000000000000164e-05,-2.999999999999999737e-05,-4.000000000000000327e-05,-1.899999999999999834e-04,-6.999999999999999387e-05,-1.600000000000000131e-04,-4.000000000000000327e-05,-2.000000000000000164e-05,5.000000000000000000e+00,2.100000000000000000e+01
5.413400000000000000e+04,-2.000000000000000164e-05,-2.999999999999999737e-05,-4.000000000000000327e-05,-1.899999999999999834e-04,-6.999999999999999387e-05,-1.600000000000000131e-04,-4.000000000000000327e-05,-2.000000000000000164e-05,5.000000000000000000e+00,2.100000000000000000e+01
5.413500000000000000e+04,-2.000000000000000164e-05,-2.999999999999999737e-05,-4.000000000000000327e-05,-1.899999999999999834e-04,-6.999999999999999387e-05,-1.600000000000000131e-04,-4.000000000000000327e-05,-2.000000000000000164e-05,5.000000000000000000e+00,2.100000000000000000e+01
5.413600000000000000e+04,1.000000000000000082e-05,4.000000000000000327e-05,0.000000000000000000e+00,2.900000000000000017e-04,4.599999999999999597e-04,2.000000000000000096e-04,5.000000000000000240e-05,2.000000000000000164e-05,5.000000000000000000e+00,2.100000000000000000e+01
5.413800000000000000e+04,-2.000000000000000164e-05,-4.000000000000000327e-05,-5.999999999999999474e-05,2.000000000000000096e-04,-4.899999999999999842e-04,-1.000000000000000048e-04,-1.000000000000000082e-05,-2.000000000000000164e-05,5.000000000000000000e+00,2.100000000000000000e+01
5.413900000000000000e+04,-2.000000000000000164e-05,-4.000000000000000327e-05,-5.999999999999999474e-05,2.000000000000000096e-04,-4.899999999999999842e-04,-1.000000000000000048e-04,-1.000000000000000082e-05,-2.000000000000000164e-05,5.000000000000000000e+00,2.100000000000000000e+01
5.414000000000000000e+04,-2.000000000000000164e-05,-4.000000000000000327e-05,-5.999999999999999474e-05,2.000000000000000096e-04,-4.899999999999999842e-04,-1.000000000000000048e-04,-1.000000000000000082e-05,-2.000000000000000164e-05,5.000000000000000000e+00,2.100000000000000000e+01
5.414100000000000000e+04,-2.000000000000000164e-05,-4.000000000000000327e-05,-5.999999999999999474e-05,2.000000000000000096e-04,-4.899999999999999842e-04,-1.000000000000000048e-04,-1.000000000000000082e-05,-2.000000000000000164e-05,5.000000000000000000e+00,2.100000000000000000e+01
5.414200000000000000e+04,-2.000000000000000164e-05,-4.000000000000000327e-05,-5.999999999999999474e-05,2.000000000000000096e-04,-4.899999999999999842e-04,-1.000000000000000048e-04,-1.000000000000000082e-05,-2.000000000000000164e-05,5.000000000000000000e+00,2.100000000000000000e+01
5.414300000000000000e+04,-4.000000000000000327e-05,-4.000000000000000327e-05,2.000000000000000164e-05,5.999999999999999474e-05,2.900000000000000017e-04,-8.000000000000000654e-05,-2.000000000000000164e-05,-1.000000000000000082e-05,5.000000000000000000e+00,2.100000000000000000e+01
5.414400000000000000e+04,-1.000000000000000082e-05,2.000000000000000164e-05,1.000000000000000082e-05,-1.300000000000000157e-04,-5.999999999999999474e-05,-6.999999999999999387e-05,1.000000000000000082e-05,-1.000000000000000082e-05,5.000000000000000000e+00,2.100000000000000000e+01
5.414500000000000000e+04,-1.000000000000000082e-05,2.000000000000000164e-05,1.000000000000000082e-05,-1.300000000000000157e-04,-5.999999999999999474e-05,-6.999999999999999387e-05,1.000000000000000082e-05,-1.000000000000000082e-05,5.000000000000000000e+00,2.100000000000000000e+01
5.414600000000000000e+04,-1.000000000000000082e-05,2.000000000000000164e-05,1.000000000000000082e-05,-1.300000000000000157e-04,-5.999999999999999474e-05,-6.999999999999999387e-05,1.000000000000000082e-05,-1.000000000000000082e-05,5.000000000000000000e+00,2.100000000000000000e+01
5.414700000000000000e+04,-1.000000000000000082e-05,2.000000000000000164e-05,1.000000000000000082e-05,-1.300000000000000157e-04,-5.999999999999999474e-05,-6.999999999999999387e-05,1.000000000000000082e-05,-1.000000000000000082e-05,5.000000000000000000e+00,2.100000000000000000e+01
5.414800000000000000e+04,-1.000000000000000082e-05,2.000000000000000164e-05,1.000000000000000082e-05,-1.300000000000000157e-04,-5.999999999999999474e-05,-6.999999999999999387e-05,1.000000000000000082e-05,-1.000000000000000082e-05,5.000000000000000000e+00,2.100000000000000000e+01
5.414900000000000000e+04,-1.000000000000000082e-05,2.000000000000000164e-05,1.000000000000000082e-05,-1.300000000000000157e-04,-5.999999999999999474e-05,-6.999999999999999387e-05,1.000000000000000082e-05,-1.000000000000000082e-05,5.000000000000000000e+00,2.100000000000000000e+01
5.415000000000000000e+04,-1.000000000000000082e-05,2.000000000000000164e-05,1.000000000000000082e-05,-1.300000000000000157e-04,-5.999999999999999474e-05,-6.999999999999999387e-05,1.000000000000000082e-05,-1.000000000000000082e-05,5.000000000000000000e+00,2.100000000000000000e+01
5.415100000000000000e+04,-1.000000000000000082e-05,2.000000000000000164e-05,1.000000000000000082e-05,-1.300000000000000157e-04,-5.999999999999999474e-05,-6.999999999999999387e-05,1.000000000000000082e-05,-1.000000000000000082e-05,5.000000000000000000e+00,2.100000000000000000e+01
5.415200000000000000e+04,-1.000000000000000082e-05,2.000000000000000164e-05,1.000000000000000082e-05,-1.300000000000000157e-04,-5.999999999999999474e-05,-6.999999999999999387e-05,1.000000000000000082e-05,-1.000000000000000082e-05,5.000000000000000000e+00,2.100000000000000000e+01
5.415300000000000000e+04,-1.000000000000000082e-05,2.000000000000000164e-05,1.000000000000000082e-05,-1.300000000000000157e-04,-5.999999999999999474e-05,-6.999999999999999387e-05,1.000000000000000082e-05,-1.000000000000000082e-05,5.000000000000000000e+00,2.100000000000000000e+01
5.415400000000000000e+04,-1.000000000000000082e-05,2.000000000000000164e-05,1.000000000000000082e-05,-1.300000000000000157e-04,-5.999999999999999474e-05,-6.999999999999999387e-05,1.000000000000000082e-05,-1.000000000000000082e-05,5.000000000000000000e+00,2.100000000000000000e+01
5.415500000000000000e+04,-1.000000000000000082e-05,2.000000000000000164e-05,1.000000000000000082e-05,-1.300000000000000157e-04,-5.999999999999999474e-05,-6.999999999999999387e-05,1.000000000000000082e-05,-1.000000000000000082e-05,5.000000000000000000e+00,2.100000000000000000e+01
5.415600000000000000e+04,-1.000000000000000082e-05,2.000000000000000164e-05,1.000000000000000082e-05,-1.300000000000000157e-04,-5.999999999999999474e-05,-6.999999999999999387e-05,1.000000000000000082e-05,-1.000000000000000082e-05,5.000000000000000000e+00,2.100000000000000000e+01
5.415700000000000000e+04,-1.000000000000000082e-05,2.000000000000000164e-05,1.000000000000000082e-05,-1.300000000000000157e-04,-5.999999999999999474e-05,-6.999999999999999387e-05,1.000000000000000082e-05,-1.000000000000000082e-05,5.000000000000000000e+00,2.100000000000000000e+01
5.415800000000000000e+04,-1.000000000000000082e-05,2.000000000000000164e-05,1.000000000000000082e-05,-1.300000000000000157e-04,-5.999999999999999474e-05,-6.999999999999999387e-05,1.000000000000000082e-05,-1.000000000000000082e-05,5.000000000000000000e+00,2.100000000000000000e+01
5.415900000000000000e+04,-1.000000000000000082e-05,2.000000000000000164e-05,1.000000000000000082e-05,-1.300000000000000157e-04,-5.999999999999999474e-05,-6.999999999999999387e-05,1.000000000000000082e-05,-1.000000000000000082e-05,5.000000000000000000e+00,2.100000000000000000e+01
5.416000000000000000e+04,-1.000000000000000082e-05,-2.000000000000000164e-05,-5.000000000000000240e-05,-4.000000000000000327e-05,6.999999999999999387e-05,5.000000000000000240e-05,-1.000000000000000082e-05,0.000000000000000000e+00,5.000000000000000000e+00,2.100000000000000000e+01
5.416100000000000000e+04,-2.999999999999999737e-05,-2.999999999999999737e-05,-4.000000000000000327e-05,2.999999999999999737e-05,1.899999999999999834e-04,-6.999999999999999387e-05,-2.999999999999999737e-05,-2.000000000000000164e-05,5.000000000000000000e+00,2.100000000000000000e+01
5.416200000000000000e+04,-2.999999999999999737e-05,-2.999999999999999737e-05,-4.000000000000000327e-05,2.999999999999999737e-05,1.899999999999999834e-04,-6.999999999999999387e-05,-2.999999999999999737e-05,-2.000000000000000164e-05,5.000000000000000000e+00,2.100000000000000000e+01
5.416300000000000000e+04,-2.999999999999999737e-05,-2.999999999999999737e-05,-4.000000000000000327e-05,2.999999999999999737e-05,1.899999999999999834e-04,-6.999999999999999387e-05,-2.999999999999999737e-05,-2.000000000000000164e-05,5.000000000000000000e+00,2.100000000000000000e+01
5.416400000000000000e+04,-2.999999999999999737e-05,-2.999999999999999737e-05,-4.000000000000000327e-05,2.999999999999999737e-05,1.899999999999999834e-04,-6.999999999999999387e-05,-2.999999999999999737e-05,-2.000000000000000164e-05,5.000000000000000000e+00,2.100000000000000000e+01
5.416500000000000000e+04,-2.999999999999999737e-05,-2.999999999999999737e-05,-4.000000000000000327e-05,2.999999999999999737e-05,1.899999999999999834e-04,-6.999999999999999387e-05,-2.999999999999999737e-05,-2.000000000000000164e-05,5.000000000000000000e+00,2.100000000000000000e+01
5.416600000000000000e+04,-2.999999999999999737e-05,-2.999999999999999737e-05,-4.000000000000000327e-05,2.999999999999999737e-05,1.899999999999999834e-04,-6.999999999999999387e-05,-2.999999999999999737e-05,-2.000000000000000164e-05,5.000000000000000000e+00,2.100000000000000000e+01
5.416700000000000000e+04,-2.999999999999999737e-05,-2.999999999999999737e-05,-4.000000000000000327e-05,2.999999999999999737e-05,1.899999999999999834e-04,-6.999999999999999387e-05,-2.999999999999999737e-05,-2.000000000000000164e-05,5.000000000000000000e+00,2.100000000000000000e+01
5.416800000000000000e+04,-2.999999999999999737e-05,-2.999999999999999737e-05,-4.000000000000000327e-05,2.999999999999999737e-05,1.899999999999999834e-04,-6.999999999999999387e-05,-2.999999999999999737e-05,-2.000000000000000164e-05,5.000000000000000000e+00,2.100000000000000000e+01
5.416900000000000000e+04,-2.999999999999999737e-05,-2.999999999999999737e-05,-4.000000000000000327e-05,2.999999999999999737e-05,1.899999999999999834e-04,-6.999999999999999387e-05,-2.999999999999999737e-05,-2.000000000000000164e-05,5.000000000000000000e+00,2.100000000000000000e+01
5.417000000000000000e+04,-2.999999999999999737e-05,-2.999999999999999737e-05,-4.000000000000000327e-05,2.999999999999999737e-05,1.899999999999999834e-04,-6.999999999999999387e-05,-2.999999999999999737e-05,-2.000000000000000164e-05,5.000000000000000000e+00,2.100000000000000000e+01
5.417100000000000000e+04,-2.999999999999999737e-05,-2.999999999999999737e-05,-4.000000000000000327e-05,2.999999999999999737e-05,1.899999999999999834e-04,-6.999999999999999387e-05,-2.999999999999999737e-05,-2.000000000000000164e-05,5.000000000000000000e+00,2.100000000000000000e+01
5.417200000000000000e+04,-2.999999999999999737e-05,-2.999999999999999737e-05,-4.000000000000000327e-05,2.999999999999999737e-05,1.899999999999999834e-04,-6.999999999999999387e-05,-2.999999999999999737e-05,-2.000000000000000164e-05,5.000000000000000000e+00,2.100000000000000000e+01
5.417300000000000000e+04,-2.999999999999999737e-05,-2.999999999999999737e-05,-4.000000000000000327e-05,2.999999999999999737e-05,1.899999999999999834e-04,-6.999999999999999387e-05,-2.999999999999999737e-05,-2.000000000000000164e-05,5.000000000000000000e+00,2.100000000000000000e+01
5.417400000000000000e+04,-2.999999999999999737e-05,-2.999999999999999737e-05,-4.000000000000000327e-05,2.999999999999999737e-05,1.899999999999999834e-04,-6.999999999999999387e-05,-2.999999999999999737e-05,-2.000000000000000164e-05,5.000000000000000000e+00,2.100000000000000000e+01
5.417500000000000000e+04,-2.999999999999999737e-05,-2.999999999999999737e-05,-4.000000000000000327e-05,2.999999999999999737e-05,1.899999999999999834e-04,-6.999999999999999387e-05,-2.999999999999999737e-05,-2.000000000000000164e-05,5.000000000000000000e+00,2.100000000000000000e+01
5.417600000000000000e+04,-2.999999999999999737e-05,-2.999999999999999737e-05,-4.000000000000000327e-05,2.999999999999999737e-05,1.899999999999999834e-04,-6.999999999999999387e-05,-2.999999999999999737e-05,-2.000000000000000164e-05,5.000000000000000000e+00,2.100000000000000000e+01
5.417700000000000000e+04,-2.999999999999999737e-05,-2.999999999999999737e-05,-4.000000000000000327e-05,2.999999999999999737e-05,1.899999999999999834e-04,-6.999999999999999387e-05,-2.999999999999999737e-05,-2.000000000000000164e-05,5.000000000000000000e+00,2.100000000000000000e+01
5.417800000000000000e+04,-2.999999999999999737e-05,-2.999999999999999737e-05,-4.000000000000000327e-05,2.999999999999999737e-05,1.899999999999999834e-04,-6.999999999999999387e-05,-2.999999999999999737e-05,-2.000000000000000164e-05,5.000000000000000000e+00,2.100000000000000000e+01
5.417900000000000000e+04,-2.999999999999999737e-05,-2.999999999999999737e-05,-4.000000000000000327e-05,2.999999999999999737e-05,1.899999999999999834e-04,-6.999999999999999387e-05,-2.999999999999999737e-05,-2.000000000000000164e-05,5.000000000000000000e+00,2.100000000000000000e+01
5.418000000000000000e+04,-2.999999999999999737e-05,-2.999999999999999737e-05,-4.000000000000000327e-05,2.999999999999999737e-05,1.899999999999999834e-04,-6.999999999999999387e-05,-2.999999999999999737e-05,-2.000000000000000164e-05,5.000000000000000000e+00,2.100000000000000000e+01
5.418100000000000000e+04,-2.999999999999999737e-05,-2.999999999999999737e-05,-4.000000000000000327e-05,2.999999999999999737e-05,1.899999999999999834e-04,-6.999999999999999387e-05,-2.999999999999999737e-05,-2.000000000000000164e-05,5.000000000000000000e+00,2.100000000000000000e+01
5.418200000000000000e+04,-5.000000000000000240e-05,-2.000000000000000164e-05,2.000000000000000164e-05,-9.000000000000000567e-05,-8.000000000000000654e-05,-1.000000000000000082e-05,-1.000000000000000082e-05,0.000000000000000000e+00,5.000000000000000000e+00,2.100000000000000000e+01
5.418300000000000000e+04,-5.000000000000000240e-05,-2.000000000000000164e-05,2.000000000000000164e-05,-9.000000000000000567e-05,-8.000000000000000654e-05,-1.000000000000000082e-05,-1.000000000000000082e-05,0.000000000000000000e+00,5.000000000000000000e+00,2.100000000000000000e+01
5.418400000000000000e+04,0.000000000000000000e+00,-2.999999999999999737e-05,-2.200000000000000078e-04,-3.299999999999999982e-04,-5.699999999999999772e-04,-8.000000000000000654e-05,-2.999999999999999737e-05,-1.000000000000000082e-05,5.000000000000000000e+00,2.100000000000000000e+01
5.418500000000000000e+04,0.000000000000000000e+00,-2.999999999999999737e-05,-2.200000000000000078e-04,-3.299999999999999982e-04,-5.699999999999999772e-04,-8.000000000000000654e-05,-2.999999999999999737e-05,-1.000000000000000082e-05,5.000000000000000000e+00,2.100000000000000000e+01
5.418600000000000000e+04,0.000000000000000000e+00,-2.999999999999999737e-05,-2.200000000000000078e-04,-3.299999999999999982e-04,-5.699999999999999772e-04,-8.000000000000000654e-05,-2.999999999999999737e-05,-1.000000000000000082e-05,5.000000000000000000e+00,2.100000000000000000e+01
5.418800000000000000e+04,0.000000000000000000e+00,-2.999999999999999737e-05,-2.200000000000000078e-04,-3.299999999999999982e-04,-5.699999999999999772e-04,-8.000000000000000654e-05,-2.999999999999999737e-05,-1.000000000000000082e-05,5.000000000000000000e+00,2.100000000000000000e+01
5.418900000000000000e+04,0.000000000000000000e+00,-2.999999999999999737e-05,-2.200000000000000078e-04,-3.299999999999999982e-04,-5.699999999999999772e-04,-8.000000000000000654e-05,-2.999999999999999737e-05,-1.000000000000000082e-05,5.000000000000000000e+00,2.100000000000000000e+01
5.419000000000000000e+04,0.000000000000000000e+00,-2.999999999999999737e-05,-2.200000000000000078e-04,-3.299999999999999982e-04,-5.699999999999999772e-04,-8.000000000000000654e-05,-2.999999999999999737e-05,-1.000000000000000082e-05,5.000000000000000000e+00,2.100000000000000000e+01
5.419100000000000000e+04,0.000000000000000000e+00,-2.999999999999999737e-05,-2.200000000000000078e-04,-3.299999999999999982e-04,-5.699999999999999772e-04,-8.000000000000000654e-05,-2.999999999999999737e-05,-1.000000000000000082e-05,5.000000000000000000e+00,2.100000000000000000e+01
5.419200000000000000e+04,0.000000000000000000e+00,-2.999999999999999737e-05,-2.200000000000000078e-04,-3.299999999999999982e-04,-5.699999999999999772e-04,-8.000000000000000654e-05,-2.999999999999999737e-05,-1.000000000000000082e-05,5.000000000000000000e+00,2.100000000000000000e+01
5.419300000000000000e+04,0.000000000000000000e+00,-2.999999999999999737e-05,-2.200000000000000078e-04,-3.299999999999999982e-04,-5.699999999999999772e-04,-8.000000000000000654e-05,-2.999999999999999737e-05,-1.000000000000000082e-05,5.000000000000000000e+00,2.100000000000000000e+01
5.419400000000000000e+04,0.000000000000000000e+00,-2.999999999999999737e-05,-2.200000000000000078e-04,-3.299999999999999982e-04,-5.699999999999999772e-04,-8.000000000000000654e-05,-2.999999999999999737e-05,-1.000000000000000082e-05,5.000000000000000000e+00,2.100000000000000000e+01
5.419500000000000000e+04,0.000000000000000000e+00,-2.999999999999999737e-05,-2.200000000000000078e-04,-3.299999999999999982e-04,-5.699999999999999772e-04,-8.000000000000000654e-05,-2.999999999999999737e-05,-1.000000000000000082e-05,5.000000000000000000e+00,2.100000000000000000e+01
5.419600000000000000e+04,-5.999999999999999474e-05,-1.100000000000000039e-04,0.000000000000000000e+00,3.499999999999999964e-04,4.099999999999999912e-04,4.000000000000000327e-05,-2.000000000000000164e-05,-2.000000000000000164e-05,5.000000000000000000e+00,2.100000000000000000e+01
5.419700000000000000e+04,-5.999999999999999474e-05,-1.100000000000000039e-04,0.000000000000000000e+00,3.499999999999999964e-04,4.099999999999999912e-04,4.000000000000000327e-05,-2.000000000000000164e-05,-2.000000000000000164e-05,5.000000000000000000e+00,2.100000000000000000e+01
5.419800000000000000e+04,-5.999999999999999474e-05,-1.100000000000000039e-04,0.000000000000000000e+00,3.499999999999999964e-04,4.099999999999999912e-04,4.000000000000000327e-05,-2.000000000000000164e-05,-2.000000000000000164e-05,5.000000000000000000e+00,2.100000000000000000e+01
5.419900000000000000e+04,-5.999999999999999474e-05,-1.100000000000000039e-04,0.000000000000000000e+00,3.499999999999999964e-04,4.099999999999999912e-04,4.000000000000000327e-05,-2.000000000000000164e-05,-2.000000000000000164e-05,5.000000000000000000e+00,2.100000000000000000e+01
5.420000000000000000e+04,-5.999999999999999474e-05,-1.100000000000000039e-04,0.000000000000000000e+00,3.499999999999999964e-04,4.099999999999999912e-04,4.000000000000000327e-05,-2.000000000000000164e-05,-2.000000000000000164e-05,5.000000000000000000e+00,2.100000000000000000e+01
5.420100000000000000e+04,-5.999999999999999474e-05,-1.100000000000000039e-04,0.000000000000000000e+00,3.499999999999999964e-04,4.099999999999999912e-04,4.000000000000000327e-05,-2.000000000000000164e-05,-2.000000000000000164e-05,5.000000000000000000e+00,2.100000000000000000e+01
5.420200000000000000e+04,-5.999999999999999474e-05,-1.100000000000000039e-04,0.000000000000000000e+00,3.499999999999999964e-04,4.099999999999999912e-04,4.000000000000000327e-05,-2.000000000000000164e-05,-2.000000000000000164e-05,5.000000000000000000e+00,2.100000000000000000e+01
5.420300000000000000e+04,-5.999999999999999474e-05,-1.100000000000000039e-04,0.000000000000000000e+00,3.499999999999999964e-04,4.099999999999999912e-04,4.000000000000000327e-05,-2.000000000000000164e-05,-2.000000000000000164e-05,5.000000000000000000e+00,2.100000000000000000e+01
5.420400000000000000e+04,-5.999999999999999474e-05,-1.100000000000000039e-04,0.000000000000000000e+00,3.499999999999999964e-04,4.099999999999999912e-04,4.000000000000000327e-05,-2.000000000000000164e-05,-2.000000000000000164e-05,5.000000000000000000e+00,2.100000000000000000e+01
5.420500000000000000e+04,0.000000000000000000e+00,2.000000000000000164e-05,-2.000000000000000164e-05,-3.200000000000000262e-04,-1.300000000000000157e-04,5.000000000000000240e-05,-1.000000000000000082e-05,0.000000000000000000e+00,5.000000000000000000e+00,2.100000000000000000e+01
5.420600000000000000e+04,0.000000000000000000e+00,2.000000000000000164e-05,-2.000000000000000164e-05,-3.200000000000000262e-04,-1.300000000000000157e-04,5.000000000000000240e-05,-1.000000000000000082e-05,0.000000000000000000e+00,5.000000000000000000e+00,2.100000000000000000e+01
5.420700000000000000e+04,0.000000000000000000e+00,2.000000000000000164e-05,-2.000000000000000164e-05,-3.200000000000000262e-04,-1.300000000000000157e-04,5.000000000000000240e-05,-1.000000000000000082e-05,0.000000000000000000e+00,5.000000000000000000e+00,2.100000000000000000e+01
5.420800000000000000e+04,0.000000000000000000e+00,2.000000000000000164e-05,-2.000000000000000164e-05,-3.200000000000000262e-04,-1.300000000000000157e-04,5.000000000000000240e-05,-1.000000000000000082e-05,0.000000000000000000e+00,5.000000000000000000e+00,2.100000000000000000e+01
5.420900000000000000e+04,0.000000000000000000e+00,2.000000000000000164e-05,-2.000000000000000164e-05,-3.200000000000000262e-04,-1.300000000000000157e-04,5.000000000000000240e-05,-1.000000000000000082e-05,0.000000000000000000e+00,5.000000000000000000e+00,2.100000000000000000e+01
5.421000000000000000e+04,0.000000000000000000e+00,2.000000000000000164e-05,-2.000000000000000164e-05,-3.200000000000000262e-04,-1.300000000000000157e-04,5.000000000000000240e-05,-1.000000000000000082e-05,0.000000000000000000e+00,5.000000000000000000e+00,2.100000000000000000e+01
5.421100000000000000e+04,0.000000000000000000e+00,2.000000000000000164e-05,-2.000000000000000164e-05,-3.200000000000000262e-04,-1.300000000000000157e-04,5.000000000000000240e-05,-1.000000000000000082e-05,0.000000000000000000e+00,5.000000000000000000e+00,2.100000000000000000e+01
5.421200000000000000e+04,0.000000000000000000e+00,2.000000000000000164e-05,-2.000000000000000164e-05,-3.200000000000000262e-04,-1.300000000000000157e-04,5.000000000000000240e-05,-1.000000000000000082e-05,0.000000000000000000e+00,5.000000000000000000e+00,2.100000000000000000e+01
5.421300000000000000e+04,0.000000000000000000e+00,2.000000000000000164e-05,-2.000000000000000164e-05,-3.200000000000000262e-04,-1.300000000000000157e-04,5.000000000000000240e-05,-1.000000000000000082e-05,0.000000000000000000e+00,5.000000000000000000e+00,2.100000000000000000e+01
5.421400000000000000e+04,0.000000000000000000e+00,2.000000000000000164e-05,-2.000000000000000164e-05,-3.200000000000000262e-04,-1.300000000000000157e-04,5.000000000000000240e-05,-1.000000000000000082e-05,0.000000000000000000e+00,5.000000000000000000e+00,2.100000000000000000e+01
5.421500000000000000e+04,0.000000000000000000e+00,2.000000000000000164e-05,-2.000000000000000164e-05,-3.200000000000000262e-04,-1.300000000000000157e-04,5.000000000000000240e-05,-1.000000000000000082e-05,0.000000000000000000e+00,5.000000000000000000e+00,2.100000000000000000e+01
5.421600000000000000e+04,0.000000000000000000e+00,2.000000000000000164e-05,-2.000000000000000164e-05,-3.200000000000000262e-04,-1.300000000000000157e-04,5.000000000000000240e-05,-1.000000000000000082e-05,0.000000000000000000e+00,5.000000000000000000e+00,2.100000000000000000e+01
5.421700000000000000e+04,0.000000000000000000e+00,2.000000000000000164e-05,-2.000000000000000164e-05,-3.200000000000000262e-04,-1.300000000000000157e-04,5.000000000000000240e-05,-1.000000000000000082e-05,0.000000000000000000e+00,5.000000000000000000e+00,2.100000000000000000e+01
5.421800000000000000e+04,0.000000000000000000e+00,2.000000000000000164e-05,-2.000000000000000164e-05,-3.200000000000000262e-04,-1.300000000000000157e-04,5.000000000000000240e-05,-1.000000000000000082e-05,0.000000000000000000e+00,5.000000000000000000e+00,2.100000000000000000e+01
5.421900000000000000e+04,0.000000000000000000e+00,2.000000000000000164e-05,-2.000000000000000164e-05,-3.200000000000000262e-04,-1.300000000000000157e-04,5.000000000000000240e-05,-1.000000000000000082e-05,0.000000000000000000e+00,5.000000000000000000e+00,2.100000000000000000e+01
5.422000000000000000e+04,0.000000000000000000e+00,2.999999999999999737e-05,2.000000000000000164e-05,-4.599999999999999597e-04,-9.000000000000000567e-05,5.000000000000000240e-05,4.000000000000000327e-05,0.000000000000000000e+00,5.000000000000000000e+00,2.100000000000000000e+01
5.422100000000000000e+04,-2.999999999999999737e-05,-4.000000000000000327e-05,6.999999999999999387e-05,-4.000000000000000327e-05,-9.000000000000000567e-05,-4.000000000000000327e-05,-5.999999999999999474e-05,-4.000000000000000327e-05,5.000000000000000000e+00,2.100000000000000000e+01
5.422200000000000000e+04,-2.999999999999999737e-05,-4.000000000000000327e-05,6.999999999999999387e-05,-4.000000000000000327e-05,-9.000000000000000567e-05,-4.000000000000000327e-05,-5.999999999999999474e-05,-4.000000000000000327e-05,5.000000000000000000e+00,2.100000000000000000e+01
5.422300000000000000e+04,-2.999999999999999737e-05,-4.000000000000000327e-05,6.999999999999999387e-05,-4.000000000000000327e-05,-9.000000000000000567e-05,-4.000000000000000327e-05,-5.999999999999999474e-05,-4.000000000000000327e-05,5.000000000000000000e+00,2.100000000000000000e+01
5.422400000000000000e+04,-2.999999999999999737e-05,-4.000000000000000327e-05,6.999999999999999387e-05,-4.000000000000000327e-05,-9.000000000000000567e-05,-4.000000000000000327e-05,-5.999999999999999474e-05,-4.000000000000000327e-05,5.000000000000000000e+00,2.100000000000000000e+01
5.422500000000000000e+04,-2.999999999999999737e-05,-4.000000000000000327e-05,6.999999999999999387e-05,-4.000000000000000327e-05,-9.000000000000000567e-05,-4.000000000000000327e-05,-5.999999999999999474e-05,-4.000000000000000327e-05,5.000000000000000000e+00,2.100000000000000000e+01
5.422600000000000000e+04,-2.999999999999999737e-05,-4.000000000000000327e-05,6.999999999999999387e-05,-4.000000000000000327e-05,-9.000000000000000567e-05,-4.000000000000000327e-05,-5.999999999999999474e-05,-4.000000000000000327e-05,5.000000000000000000e+00,2.100000000000000000e+01
5.422700000000000000e+04,-2.999999999999999737e-05,-4.000000000000000327e-05,6.999999999999999387e-05,-4.000000000000000327e-05,-9.000000000000000567e-05,-4.000000000000000327e-05,-5.999999999999999474e-05,-4.000000000000000327e-05,5.000000000000000000e+00,2.100000000000000000e+01
5.422800000000000000e+04,-2.999999999999999737e-05,-4.000000000000000327e-05,6.999999999999999387e-05,-4.000000000000000327e-05,-9.000000000000000567e-05,-4.000000000000000327e-05,-5.999999999999999474e-05,-4.000000000000000327e-05,5.000000000000000000e+00,2.100000000000000000e+01
5.422900000000000000e+04,-2.999999999999999737e-05,-4.000000000000000327e-05,6.999999999999999387e-05,-4.000000000000000327e-05,-9.000000000000000567e-05,-4.000000000000000327e-05,-5.999999999999999474e-05,-4.000000000000000327e-05,5.000000000000000000e+00,2.100000000000000000e+01
5.423000000000000000e+04,-2.999999999999999737e-05,-4.000000000000000327e-05,6.999999999999999387e-05,-4.000000000000000327e-05,-9.000000000000000567e-05,-4.000000000000000327e-05,-5.999999999999999474e-05,-4.000000000000000327e-05,5.000000000000000000e+00,2.100000000000000000e+01
5.423100000000000000e+04,-2.999999999999999737e-05,-4.000000000000000327e-05,6.999999999999999387e-05,-4.000000000000000327e-05,-9.000000000000000567e-05,-4.000000000000000327e-05,-5.999999999999999474e-05,-4.000000000000000327e-05,5.000000000000000000e+00,2.100000000000000000e+01
5.423200000000000000e+04,-2.999999999999999737e-05,-4.000000000000000327e-05,6.999999999999999387e-05,-4.000000000000000327e-05,-9.000000000000000567e-05,-4.000000000000000327e-05,-5.999999999999999474e-05,-4.000000000000000327e-05,5.000000000000000000e+00,2.100000000000000000e+01
5.423300000000000000e+04,-2.999999999999999737e-05,-4.000000000000000327e-05,6.999999999999999387e-05,-4.000000000000000327e-05,-9.000000000000000567e-05,-4.000000000000000327e-05,-5.999999999999999474e-05,-4.000000000000000327e-05,5.000000000000000000e+00,2.100000000000000000e+01
5.423400000000000000e+04,-2.999999999999999737e-05,-4.000000000000000327e-05,6.999999999999999387e-05,-4.000000000000000327e-05,-9.000000000000000567e-05,-4.000000000000000327e-05,-5.999999999999999474e-05,-4.000000000000000327e-05,5.000000000000000000e+00,2.100000000000000000e+01
5.423500000000000000e+04,-2.999999999999999737e-05,-4.000000000000000327e-05,6.999999999999999387e-05,-4.000000000000000327e-05,-9.000000000000000567e-05,-4.000000000000000327e-05,-5.999999999999999474e-05,-4.000000000000000327e-05,5.000000000000000000e+00,2.100000000000000000e+01
5.423600000000000000e+04,-2.999999999999999737e-05,-4.000000000000000327e-05,6.999999999999999387e-05,-4.000000000000000327e-05,-9.000000000000000567e-05,-4.000000000000000327e-05,-5.999999999999999474e-05,-4.000000000000000327e-05,5.000000000000000000e+00,2.100000000000000000e+01
5.423800000000000000e+04,-2.999999999999999737e-05,-4.000000000000000327e-05,6.999999999999999387e-05,-4.000000000000000327e-05,-9.000000000000000567e-05,-4.000000000000000327e-05,-5.999999999999999474e-05,-4.000000000000000327e-05,5.000000000000000000e+00,2.100000000000000000e+01
5.423900000000000000e+04,-2.999999999999999737e-05,-4.000000000000000327e-05,6.999999999999999387e-05,-4.000000000000000327e-05,-9.000000000000000567e-05,-4.000000000000000327e-05,-5.999999999999999474e-05,-4.000000000000000327e-05,5.000000000000000000e+00,2.100000000000000000e+01
5.424000000000000000e+04,-2.999999999999999737e-05,-4.000000000000000327e-05,6.999999999999999387e-05,-4.000000000000000327e-05,-9.000000000000000567e-05,-4.000000000000000327e-05,-5.999999999999999474e-05,-4.000000000000000327e-05,5.000000000000000000e+00,2.100000000000000000e+01
5.424100000000000000e+04,-2.999999999999999737e-05,-4.000000000000000327e-05,6.999999999999999387e-05,-4.000000000000000327e-05,-9.000000000000000567e-05,-4.000000000000000327e-05,-5.999999999999999474e-05,-4.000000000000000327e-05,5.000000000000000000e+00,2.100000000000000000e+01
5.424200000000000000e+04,-2.000000000000000164e-05,-2.000000000000000164e-05,-5.000000000000000240e-05,-8.000000000000000654e-05,-8.000000000000000654e-05,-5.000000000000000240e-05,-2.999999999999999737e-05,-2.000000000000000164e-05,5.000000000000000000e+00,2.100000000000000000e+01
5.424300000000000000e+04,-2.000000000000000164e-05,-2.000000000000000164e-05,-5.000000000000000240e-05,-8.000000000000000654e-05,-8.000000000000000654e-05,-5.000000000000000240e-05,-2.999999999999999737e-05,-2.000000000000000164e-05,5.000000000000000000e+00,2.100000000000000000e+01
5.424400000000000000e+04,-2.000000000000000164e-05,-2.999999999999999737e-05,-9.000000000000000567e-05,-1.000000000000000048e-04,-4.299999999999999894e-04,-6.999999999999999387e-05,-1.000000000000000082e-05,0.000000000000000000e+00,5.000000000000000000e+00,2.100000000000000000e+01
5.424500000000000000e+04,-2.000000000000000164e-05,-2.999999999999999737e-05,-9.000000000000000567e-05,-1.000000000000000048e-04,-4.299999999999999894e-04,-6.999999999999999387e-05,-1.000000000000000082e-05,0.000000000000000000e+00,5.000000000000000000e+00,2.100000000000000000e+01
5.424600000000000000e+04,-2.000000000000000164e-05,-2.999999999999999737e-05,-9.000000000000000567e-05,-1.000000000000000048e-04,-4.299999999999999894e-04,-6.999999999999999387e-05,-1.000000000000000082e-05,0.000000000000000000e+00,5.000000000000000000e+00,2.100000000000000000e+01
5.424700000000000000e+04,-2.000000000000000164e-05,-2.999999999999999737e-05,-9.000000000000000567e-05,-1.000000000000000048e-04,-4.299999999999999894e-04,-6.999999999999999387e-05,-1.000000000000000082e-05,0.000000000000000000e+00,5.000000000000000000e+00,2.100000000000000000e+01
5.424800000000000000e+04,-2.000000000000000164e-05,-2.999999999999999737e-05,-9.000000000000000567e-05,-1.000000000000000048e-04,-4.299999999999999894e-04,-6.999999999999999387e-05,-1.000000000000000082e-05,0.000000000000000000e+00,5.000000000000000000e+00,2.100000000000000000e+01
5.424900000000000000e+04,-2.000000000000000164e-05,-2.999999999999999737e-05,-9.000000000000000567e-05,-1.000000000000000048e-04,-4.299999999999999894e-04,-6.999999999999999387e-05,-1.000000000000000082e-05,0.000000000000000000e+00,5.000000000000000000e+00,2.100000000000000000e+01
5.425000000000000000e+04,-2.000000000000000164e-05,-2.999999999999999737e-05,-9.000000000000000567e-05,-1.000000000000000048e-04,-4.299999999999999894e-04,-6.999999999999999387e-05,-1.000000000000000082e-05,0.000000000000000000e+00,5.000000000000000000e+00,2.100000000000000000e+01
5.425100000000000000e+04,-2.000000000000000164e-05,-2.999999999999999737e-05,-9.000000000000000567e-05,-1.000000000000000048e-04,-4.299999999999999894e-04,-6.999999999999999387e-05,-1.000000000000000082e-05,0.000000000000000000e+00,5.000000000000000000e+00,2.100000000000000000e+01
5.425200000000000000e+04,-2.000000000000000164e-05,-2.999999999999999737e-05,-9.000000000000000567e-05,-1.000000000000000048e-04,-4.299999999999999894e-04,-6.999999999999999387e-05,-1.000000000000000082e-05,0.000000000000000000e+00,5.000000000000000000e+00,2.100000000000000000e+01
5.425300000000000000e+04,-2.000000000000000164e-05,-2.999999999999999737e-05,-9.000000000000000567e-05,-1.000000000000000048e-04,-4.299999999999999894e-04,-6.999999999999999387e-05,-1.000000000000000082e-05,0.000000000000000000e+00,5.000000000000000000e+00,2.100000000000000000e+01
5.425400000000000000e+04,-2.000000000000000164e-05,-2.999999999999999737e-05,-9.000000000000000567e-05,-1.000000000000000048e-04,-4.299999999999999894e-04,-6.999999999999999387e-05,-1.000000000000000082e-05,0.000000000000000000e+00,5.000000000000000000e+00,2.100000000000000000e+01
5.425500000000000000e+04,-2.000000000000000164e-05,-2.999999999999999737e-05,-9.000000000000000567e-05,-1.000000000000000048e-04,-4.299999999999999894e-04,-6.999999999999999387e-05,-1.000000000000000082e-05,0.000000000000000000e+00,5.000000000000000000e+00,2.100000000000000000e+01
5.425600000000000000e+04,-4.000000000000000327e-05,-1.000000000000000048e-04,-1.100000000000000039e-04,2.999999999999999737e-05,2.799999999999999755e-04,1.199999999999999895e-04,2.999999999999999737e-05,-1.000000000000000082e-05,5.000000000000000000e+00,2.100000000000000000e+01
5.425700000000000000e+04,-4.000000000000000327e-05,-1.000000000000000048e-04,-1.100000000000000039e-04,2.999999999999999737e-05,2.799999999999999755e-04,1.199999999999999895e-04,2.999999999999999737e-05,-1.000000000000000082e-05,5.000000000000000000e+00,2.100000000000000000e+01
5.425800000000000000e+04,-4.000000000000000327e-05,-1.000000000000000048e-04,-1.100000000000000039e-04,2.999999999999999737e-05,2.799999999999999755e-04,1.199999999999999895e-04,2.999999999999999737e-05,-1.000000000000000082e-05,5.000000000000000000e+00,2.100000000000000000e+01
5.425900000000000000e+04,-4.000000000000000327e-05,-1.000000000000000048e-04,-1.100000000000000039e-04,2.999999999999999737e-05,2.799999999999999755e-04,1.199999999999999895e-04,2.999999999999999737e-05,-1.000000000000000082e-05,5.000000000000000000e+00,2.100000000000000000e+01
5.426000000000000000e+04,-4.000000000000000327e-05,-1.000000000000000048e-04,-1.100000000000000039e-04,2.999999999999999737e-05,2.799999999999999755e-04,1.199999999999999895e-04,2.999999999999999737e-05,-1.000000000000000082e-05,5.000000000000000000e+00,2.100000000000000000e+01
5.426100000000000000e+04,-4.000000000000000327e-05,-1.000000000000000048e-04,-1.100000000000000039e-04,2.999999999999999737e-05,2.799999999999999755e-04,1.199999999999999895e-04,2.999999999999999737e-05,-1.000000000000000082e-05,5.000000000000000000e+00,2.100000000000000000e+01
5.426200000000000000e+04,-4.000000000000000327e-05,-1.000000000000000048e-04,-1.100000000000000039e-04,2.999999999999999737e-05,2.799999999999999755e-04,1.199999999999999895e-04,2.999999999999999737e-05,-1.000000000000000082e-05,5.000000000000000000e+00,2.100000000000000000e+01
5.426300000000000000e+04,-4.000000000000000327e-05,-1.000000000000000048e-04,-1.100000000000000039e-04,2.999999999999999737e-05,2.799999999999999755e-04,1.199999999999999895e-04,2.999999999999999737e-05,-1.000000000000000082e-05,5.000000000000000000e+00,2.100000000000000000e+01
5.426400000000000000e+04,-4.000000000000000327e-05,-1.000000000000000048e-04,-1.100000000000000039e-04,2.999999999999999737e-05,2.799999999999999755e-04,1.199999999999999895e-04,2.999999999999999737e-05,-1.000000000000000082e-05,5.000000000000000000e+00,2.100000000000000000e+01
5.426500000000000000e+04,-1.600000000000000131e-04,-9.000000000000000567e-05,0.000000000000000000e+00,1.100000000000000039e-04,8.000000000000000654e-05,-5.000000000000000240e-05,-2.999999999999999737e-05,-2.999999999999999737e-05,5.000000000000000000e+00,2.100000000000000000e+01
5.426600000000000000e+04,-1.600000000000000131e-04,-9.000000000000000567e-05,0.000000000000000000e+00,1.100000000000000039e-04,8.000000000000000654e-05,-5.000000000000000240e-05,-2.999999999999999737e-05,-2.999999999999999737e-05,5.000000000000000000e+00,2.100000000000000000e+01
5.426700000000000000e+04,-1.600000000000000131e-04,-9.000000000000000567e-05,0.000000000000000000e+00,1.100000000000000039e-04,8.000000000000000654e-05,-5.000000000000000240e-05,-2.999999999999999737e-05,-2.999999999999999737e-05,5.000000000000000000e+00,2.100000000000000000e+01
5.426800000000000000e+04,-1.600000000000000131e-04,-9.000000000000000567e-05,0.000000000000000000e+00,1.100000000000000039e-04,8.000000000000000654e-05,-5.000000000000000240e-05,-2.999999999999999737e-05,-2.999999999999999737e-05,5.000000000000000000e+00,2.100000000000000000e+01
5.426900000000000000e+04,-1.600000000000000131e-04,-9.000000000000000567e-05,0.000000000000000000e+00,1.100000000000000039e-04,8.000000000000000654e-05,-5.000000000000000240e-05,-2.999999999999999737e-05,-2.999999999999999737e-05,5.000000000000000000e+00,2.100000000000000000e+01
5.427000000000000000e+04,-1.600000000000000131e-04,-9.000000000000000567e-05,0.000000000000000000e+00,1.100000000000000039e-04,8.000000000000000654e-05,-5.000000000000000240e-05,-2.999999999999999737e-05,-2.999999999999999737e-05,5.000000000000000000e+00,2.100000000000000000e+01
5.427100000000000000e+04,-1.600000000000000131e-04,-9.000000000000000567e-05,0.000000000000000000e+00,1.100000000000000039e-04,8.000000000000000654e-05,-5.000000000000000240e-05,-2.999999999999999737e-05,-2.999999999999999737e-05,5.000000000000000000e+00,2.100000000000000000e+01
5.427200000000000000e+04,-1.600000000000000131e-04,-9.000000000000000567e-05,0.000000000000000000e+00,1.100000000000000039e-04,8.000000000000000654e-05,-5.000000000000000240e-05,-2.999999999999999737e-05,-2.999999999999999737e-05,5.000000000000000000e+00,2.100000000000000000e+01
5.427300000000000000e+04,-1.600000000000000131e-04,-9.000000000000000567e-05,0.000000000000000000e+00,1.100000000000000039e-04,8.000000000000000654e-05,-5.000000000000000240e-05,-2.999999999999999737e-05,-2.999999999999999737e-05,5.000000000000000000e+00,2.100000000000000000e+01
5.427400000000000000e+04,-1.600000000000000131e-04,-9.000000000000000567e-05,0.000000000000000000e+00,1.100000000000000039e-04,8.000000000000000654e-05,-5.000000000000000240e-05,-2.999999999999999737e-05,-2.999999999999999737e-05,5.000000000000000000e+00,2.100000000000000000e+01
5.427500000000000000e+04,-1.600000000000000131e-04,-9.000000000000000567e-05,0.000000000000000000e+00,1.100000000000000039e-04,8.000000000000000654e-05,-5.000000000000000240e-05,-2.999999999999999737e-05,-2.999999999999999737e-05,5.000000000000000000e+00,2.100000000000000000e+01
5.427600000000000000e+04,-1.600000000000000131e-04,-9.000000000000000567e-05,0.000000000000000000e+00,1.100000000000000039e-04,8.000000000000000654e-05,-5.000000000000000240e-05,-2.999999999999999737e-05,-2.999999999999999737e-05,5.000000000000000000e+00,2.100000000000000000e+01
5.427700000000000000e+04,-1.600000000000000131e-04,-9.000000000000000567e-05,0.000000000000000000e+00,1.100000000000000039e-04,8.000000000000000654e-05,-5.000000000000000240e-05,-2.999999999999999737e-05,-2.999999999999999737e-05,5.000000000000000000e+00,2.100000000000000000e+01
5.427800000000000000e+04,-1.600000000000000131e-04,-9.000000000000000567e-05,0.000000000000000000e+00,1.100000000000000039e-04,8.000000000000000654e-05,-5.000000000000000240e-05,-2.999999999999999737e-05,-2.999999999999999737e-05,5.000000000000000000e+00,2.100000000000000000e+01
5.427900000000000000e+04,-1.600000000000000131e-04,-9.000000000000000567e-05,0.000000000000000000e+00,1.100000000000000039e-04,8.000000000000000654e-05,-5.000000000000000240e-05,-2.999999999999999737e-05,-2.999999999999999737e-05,5.000000000000000000e+00,2.100000000000000000e+01
5.428000000000000000e+04,-1.000000000000000082e-05,-4.000000000000000327e-05,4.000000000000000327e-05,5.999999999999999474e-05,-4.200000000000000174e-04,5.000000000000000240e-05,1.000000000000000082e-05,0.000000000000000000e+00,5.000000000000000000e+00,2.100000000000000000e+01
5.428100000000000000e+04,8.000000000000000654e-05,4.000000000000000327e-05,6.999999999999999387e-05,8.000000000000000654e-05,-4.000000000000000327e-05,2.999999999999999737e-05,1.000000000000000082e-05,-1.000000000000000082e-05,5.000000000000000000e+00,2.100000000000000000e+01
5.428200000000000000e+04,8.000000000000000654e-05,4.000000000000000327e-05,6.999999999999999387e-05,8.000000000000000654e-05,-4.000000000000000327e-05,2.999999999999999737e-05,1.000000000000000082e-05,-1.000000000000000082e-05,5.000000000000000000e+00,2.100000000000000000e+01
5.428300000000000000e+04,8.000000000000000654e-05,4.000000000000000327e-05,6.999999999999999387e-05,8.000000000000000654e-05,-4.000000000000000327e-05,2.999999999999999737e-05,1.000000000000000082e-05,-1.000000000000000082e-05,5.000000000000000000e+00,2.100000000000000000e+01
5.428400000000000000e+04,8.000000000000000654e-05,4.000000000000000327e-05,6.999999999999999387e-05,8.000000000000000654e-05,-4.000000000000000327e-05,2.999999999999999737e-05,1.000000000000000082e-05,-1.000000000000000082e-05,5.000000000000000000e+00,2.100000000000000000e+01
5.428500000000000000e+04,8.000000000000000654e-05,4.000000000000000327e-05,6.999999999999999387e-05,8.000000000000000654e-05,-4.000000000000000327e-05,2.999999999999999737e-05,1.000000000000000082e-05,-1.000000000000000082e-05,5.000000000000000000e+00,2.100000000000000000e+01
5.428600000000000000e+04,8.000000000000000654e-05,4.000000000000000327e-05,6.999999999999999387e-05,8.000000000000000654e-05,-4.000000000000000327e-05,2.999999999999999737e-05,1.000000000000000082e-05,-1.000000000000000082e-05,5.000000000000000000e+00,2.100000000000000000e+01
