7.631900000000000000e+04,-1.000000000000000082e-05,0.000000000000000000e+00,-2.000000000000000164e-05,-2.700000000000000035e-04,-6.900000000000000751e-04,-1.000000000000000048e-04,-1.199999999999999895e-04,-1.699999999999999851e-04,7.000000000000000000e+00,2.700000000000000000e+01
7.632000000000000000e+04,-1.000000000000000082e-05,0.000000000000000000e+00,-2.000000000000000164e-05,-2.700000000000000035e-04,-6.900000000000000751e-04,-1.000000000000000048e-04,-1.199999999999999895e-04,-1.699999999999999851e-04,7.000000000000000000e+00,2.700000000000000000e+01
7.632100000000000000e+04,-1.000000000000000082e-05,0.000000000000000000e+00,-2.000000000000000164e-05,-2.700000000000000035e-04,-6.900000000000000751e-04,-1.000000000000000048e-04,-1.199999999999999895e-04,-1.699999999999999851e-04,7.000000000000000000e+00,2.700000000000000000e+01
7.632200000000000000e+04,-1.000000000000000082e-05,0.000000000000000000e+00,-2.000000000000000164e-05,-2.700000000000000035e-04,-6.900000000000000751e-04,-1.000000000000000048e-04,-1.199999999999999895e-04,-1.699999999999999851e-04,7.000000000000000000e+00,2.700000000000000000e+01
7.632300000000000000e+04,-1.000000000000000082e-05,0.000000000000000000e+00,-2.000000000000000164e-05,-2.700000000000000035e-04,-6.900000000000000751e-04,-1.000000000000000048e-04,-1.199999999999999895e-04,-1.699999999999999851e-04,7.000000000000000000e+00,2.700000000000000000e+01
7.632400000000000000e+04,-1.000000000000000082e-05,0.000000000000000000e+00,-2.000000000000000164e-05,-2.700000000000000035e-04,-6.900000000000000751e-04,-1.000000000000000048e-04,-1.199999999999999895e-04,-1.699999999999999851e-04,7.000000000000000000e+00,2.700000000000000000e+01
7.632500000000000000e+04,-1.000000000000000082e-05,0.000000000000000000e+00,-2.000000000000000164e-05,-2.700000000000000035e-04,-6.900000000000000751e-04,-1.000000000000000048e-04,-1.199999999999999895e-04,-1.699999999999999851e-04,7.000000000000000000e+00,2.700000000000000000e+01
7.632600000000000000e+04,-1.000000000000000082e-05,0.000000000000000000e+00,-2.000000000000000164e-05,-2.700000000000000035e-04,-6.900000000000000751e-04,-1.000000000000000048e-04,-1.199999999999999895e-04,-1.699999999999999851e-04,7.000000000000000000e+00,2.700000000000000000e+01
7.632700000000000000e+04,-1.000000000000000082e-05,0.000000000000000000e+00,-2.000000000000000164e-05,-2.700000000000000035e-04,-6.900000000000000751e-04,-1.000000000000000048e-04,-1.199999999999999895e-04,-1.699999999999999851e-04,7.000000000000000000e+00,2.700000000000000000e+01
7.632800000000000000e+04,-1.000000000000000082e-05,0.000000000000000000e+00,-2.000000000000000164e-05,-2.700000000000000035e-04,-6.900000000000000751e-04,-1.000000000000000048e-04,-1.199999999999999895e-04,-1.699999999999999851e-04,7.000000000000000000e+00,2.700000000000000000e+01
7.632900000000000000e+04,-1.000000000000000082e-05,0.000000000000000000e+00,-2.000000000000000164e-05,-2.700000000000000035e-04,-6.900000000000000751e-04,-1.000000000000000048e-04,-1.199999999999999895e-04,-1.699999999999999851e-04,7.000000000000000000e+00,2.700000000000000000e+01
7.633000000000000000e+04,0.000000000000000000e+00,5.000000000000000240e-05,9.000000000000000567e-05,1.699999999999999851e-04,1.300000000000000157e-04,8.900000000000000576e-04,9.000000000000000567e-05,2.999999999999999737e-05,7.000000000000000000e+00,2.700000000000000000e+01
7.633100000000000000e+04,5.000000000000000240e-05,-4.000000000000000327e-05,-9.000000000000000567e-05,-1.199999999999999895e-04,-6.400000000000000524e-04,-6.999999999999999387e-05,-5.000000000000000240e-05,2.299999999999999799e-04,7.000000000000000000e+00,2.700000000000000000e+01
7.633200000000000000e+04,0.000000000000000000e+00,1.000000000000000082e-05,-5.000000000000000240e-05,5.999999999999999474e-05,3.099999999999999999e-04,2.000000000000000164e-05,-1.499999999999999869e-04,-3.699999999999999947e-04,7.000000000000000000e+00,2.700000000000000000e+01
7.633300000000000000e+04,0.000000000000000000e+00,1.000000000000000082e-05,-5.000000000000000240e-05,5.999999999999999474e-05,3.099999999999999999e-04,2.000000000000000164e-05,-1.499999999999999869e-04,-3.699999999999999947e-04,7.000000000000000000e+00,2.700000000000000000e+01
7.633400000000000000e+04,0.000000000000000000e+00,1.000000000000000082e-05,-5.000000000000000240e-05,5.999999999999999474e-05,3.099999999999999999e-04,2.000000000000000164e-05,-1.499999999999999869e-04,-3.699999999999999947e-04,7.000000000000000000e+00,2.700000000000000000e+01
7.633500000000000000e+04,0.000000000000000000e+00,1.000000000000000082e-05,-5.000000000000000240e-05,5.999999999999999474e-05,3.099999999999999999e-04,2.000000000000000164e-05,-1.499999999999999869e-04,-3.699999999999999947e-04,7.000000000000000000e+00,2.700000000000000000e+01
7.633600000000000000e+04,0.000000000000000000e+00,1.000000000000000082e-05,-5.000000000000000240e-05,5.999999999999999474e-05,3.099999999999999999e-04,2.000000000000000164e-05,-1.499999999999999869e-04,-3.699999999999999947e-04,7.000000000000000000e+00,2.700000000000000000e+01
7.633800000000000000e+04,0.000000000000000000e+00,1.000000000000000082e-05,-5.000000000000000240e-05,5.999999999999999474e-05,3.099999999999999999e-04,2.000000000000000164e-05,-1.499999999999999869e-04,-3.699999999999999947e-04,7.000000000000000000e+00,2.700000000000000000e+01
7.633900000000000000e+04,0.000000000000000000e+00,1.000000000000000082e-05,-5.000000000000000240e-05,5.999999999999999474e-05,3.099999999999999999e-04,2.000000000000000164e-05,-1.499999999999999869e-04,-3.699999999999999947e-04,7.000000000000000000e+00,2.700000000000000000e+01
7.634000000000000000e+04,0.000000000000000000e+00,1.000000000000000082e-05,-5.000000000000000240e-05,5.999999999999999474e-05,3.099999999999999999e-04,2.000000000000000164e-05,-1.499999999999999869e-04,-3.699999999999999947e-04,7.000000000000000000e+00,2.700000000000000000e+01
7.634100000000000000e+04,0.000000000000000000e+00,1.000000000000000082e-05,-5.000000000000000240e-05,5.999999999999999474e-05,3.099999999999999999e-04,2.000000000000000164e-05,-1.499999999999999869e-04,-3.699999999999999947e-04,7.000000000000000000e+00,2.700000000000000000e+01
7.634200000000000000e+04,0.000000000000000000e+00,1.000000000000000082e-05,-5.000000000000000240e-05,5.999999999999999474e-05,3.099999999999999999e-04,2.000000000000000164e-05,-1.499999999999999869e-04,-3.699999999999999947e-04,7.000000000000000000e+00,2.700000000000000000e+01
7.634300000000000000e+04,0.000000000000000000e+00,1.000000000000000082e-05,-5.000000000000000240e-05,5.999999999999999474e-05,3.099999999999999999e-04,2.000000000000000164e-05,-1.499999999999999869e-04,-3.699999999999999947e-04,7.000000000000000000e+00,2.700000000000000000e+01
7.634400000000000000e+04,-2.000000000000000164e-05,2.000000000000000164e-05,-2.999999999999999737e-05,-1.600000000000000131e-04,-2.100000000000000087e-04,-9.000000000000000567e-05,-2.000000000000000164e-05,-1.100000000000000039e-04,7.000000000000000000e+00,2.700000000000000000e+01
7.634500000000000000e+04,-2.000000000000000164e-05,2.000000000000000164e-05,-2.999999999999999737e-05,-1.600000000000000131e-04,-2.100000000000000087e-04,-9.000000000000000567e-05,-2.000000000000000164e-05,-1.100000000000000039e-04,7.000000000000000000e+00,2.700000000000000000e+01
7.634600000000000000e+04,-2.000000000000000164e-05,2.000000000000000164e-05,-2.999999999999999737e-05,-1.600000000000000131e-04,-2.100000000000000087e-04,-9.000000000000000567e-05,-2.000000000000000164e-05,-1.100000000000000039e-04,7.000000000000000000e+00,2.700000000000000000e+01
7.634700000000000000e+04,-2.000000000000000164e-05,2.000000000000000164e-05,-2.999999999999999737e-05,-1.600000000000000131e-04,-2.100000000000000087e-04,-9.000000000000000567e-05,-2.000000000000000164e-05,-1.100000000000000039e-04,7.000000000000000000e+00,2.700000000000000000e+01
7.634800000000000000e+04,-2.000000000000000164e-05,2.000000000000000164e-05,-2.999999999999999737e-05,-1.600000000000000131e-04,-2.100000000000000087e-04,-9.000000000000000567e-05,-2.000000000000000164e-05,-1.100000000000000039e-04,7.000000000000000000e+00,2.700000000000000000e+01
7.634900000000000000e+04,-2.000000000000000164e-05,2.000000000000000164e-05,-2.999999999999999737e-05,-1.600000000000000131e-04,-2.100000000000000087e-04,-9.000000000000000567e-05,-2.000000000000000164e-05,-1.100000000000000039e-04,7.000000000000000000e+00,2.700000000000000000e+01
7.635000000000000000e+04,-2.000000000000000164e-05,2.000000000000000164e-05,-2.999999999999999737e-05,-1.600000000000000131e-04,-2.100000000000000087e-04,-9.000000000000000567e-05,-2.000000000000000164e-05,-1.100000000000000039e-04,7.000000000000000000e+00,2.700000000000000000e+01
7.635100000000000000e+04,-1.000000000000000082e-05,0.000000000000000000e+00,6.999999999999999387e-05,-1.600000000000000131e-04,-4.400000000000000157e-04,-5.999999999999999474e-05,-4.000000000000000327e-05,-1.199999999999999895e-04,7.000000000000000000e+00,2.700000000000000000e+01
7.635200000000000000e+04,-1.000000000000000082e-05,0.000000000000000000e+00,6.999999999999999387e-05,-1.600000000000000131e-04,-4.400000000000000157e-04,-5.999999999999999474e-05,-4.000000000000000327e-05,-1.199999999999999895e-04,7.000000000000000000e+00,2.700000000000000000e+01
7.635300000000000000e+04,-1.000000000000000082e-05,0.000000000000000000e+00,6.999999999999999387e-05,-1.600000000000000131e-04,-4.400000000000000157e-04,-5.999999999999999474e-05,-4.000000000000000327e-05,-1.199999999999999895e-04,7.000000000000000000e+00,2.700000000000000000e+01
7.635400000000000000e+04,-1.000000000000000082e-05,0.000000000000000000e+00,6.999999999999999387e-05,-1.600000000000000131e-04,-4.400000000000000157e-04,-5.999999999999999474e-05,-4.000000000000000327e-05,-1.199999999999999895e-04,7.000000000000000000e+00,2.700000000000000000e+01
7.635500000000000000e+04,-1.000000000000000082e-05,0.000000000000000000e+00,6.999999999999999387e-05,-1.600000000000000131e-04,-4.400000000000000157e-04,-5.999999999999999474e-05,-4.000000000000000327e-05,-1.199999999999999895e-04,7.000000000000000000e+00,2.700000000000000000e+01
7.635600000000000000e+04,-1.000000000000000082e-05,0.000000000000000000e+00,6.999999999999999387e-05,-1.600000000000000131e-04,-4.400000000000000157e-04,-5.999999999999999474e-05,-4.000000000000000327e-05,-1.199999999999999895e-04,7.000000000000000000e+00,2.700000000000000000e+01
7.635700000000000000e+04,-1.000000000000000082e-05,0.000000000000000000e+00,6.999999999999999387e-05,-1.600000000000000131e-04,-4.400000000000000157e-04,-5.999999999999999474e-05,-4.000000000000000327e-05,-1.199999999999999895e-04,7.000000000000000000e+00,2.700000000000000000e+01
7.635800000000000000e+04,-1.000000000000000082e-05,0.000000000000000000e+00,6.999999999999999387e-05,-1.600000000000000131e-04,-4.400000000000000157e-04,-5.999999999999999474e-05,-4.000000000000000327e-05,-1.199999999999999895e-04,7.000000000000000000e+00,2.700000000000000000e+01
7.635900000000000000e+04,-1.000000000000000082e-05,0.000000000000000000e+00,6.999999999999999387e-05,-1.600000000000000131e-04,-4.400000000000000157e-04,-5.999999999999999474e-05,-4.000000000000000327e-05,-1.199999999999999895e-04,7.000000000000000000e+00,2.700000000000000000e+01
7.636000000000000000e+04,-1.000000000000000082e-05,0.000000000000000000e+00,6.999999999999999387e-05,-1.600000000000000131e-04,-4.400000000000000157e-04,-5.999999999999999474e-05,-4.000000000000000327e-05,-1.199999999999999895e-04,7.000000000000000000e+00,2.700000000000000000e+01
7.636100000000000000e+04,-1.000000000000000082e-05,0.000000000000000000e+00,6.999999999999999387e-05,-1.600000000000000131e-04,-4.400000000000000157e-04,-5.999999999999999474e-05,-4.000000000000000327e-05,-1.199999999999999895e-04,7.000000000000000000e+00,2.700000000000000000e+01
7.636200000000000000e+04,-1.000000000000000082e-05,0.000000000000000000e+00,6.999999999999999387e-05,-1.600000000000000131e-04,-4.400000000000000157e-04,-5.999999999999999474e-05,-4.000000000000000327e-05,-1.199999999999999895e-04,7.000000000000000000e+00,2.700000000000000000e+01
7.636300000000000000e+04,-1.000000000000000082e-05,0.000000000000000000e+00,6.999999999999999387e-05,-1.600000000000000131e-04,-4.400000000000000157e-04,-5.999999999999999474e-05,-4.000000000000000327e-05,-1.199999999999999895e-04,7.000000000000000000e+00,2.700000000000000000e+01
7.636400000000000000e+04,-1.000000000000000082e-05,0.000000000000000000e+00,6.999999999999999387e-05,-1.600000000000000131e-04,-4.400000000000000157e-04,-5.999999999999999474e-05,-4.000000000000000327e-05,-1.199999999999999895e-04,7.000000000000000000e+00,2.700000000000000000e+01
7.636500000000000000e+04,-1.000000000000000082e-05,0.000000000000000000e+00,6.999999999999999387e-05,-1.600000000000000131e-04,-4.400000000000000157e-04,-5.999999999999999474e-05,-4.000000000000000327e-05,-1.199999999999999895e-04,7.000000000000000000e+00,2.700000000000000000e+01
7.636600000000000000e+04,-1.000000000000000082e-05,0.000000000000000000e+00,6.999999999999999387e-05,-1.600000000000000131e-04,-4.400000000000000157e-04,-5.999999999999999474e-05,-4.000000000000000327e-05,-1.199999999999999895e-04,7.000000000000000000e+00,2.700000000000000000e+01
7.636700000000000000e+04,-2.000000000000000164e-05,-2.999999999999999737e-05,-9.000000000000000567e-05,-1.199999999999999895e-04,-4.700000000000000401e-04,-5.000000000000000240e-05,-5.999999999999999474e-05,1.300000000000000157e-04,7.000000000000000000e+00,2.700000000000000000e+01
7.636800000000000000e+04,-2.000000000000000164e-05,-2.999999999999999737e-05,-9.000000000000000567e-05,-1.199999999999999895e-04,-4.700000000000000401e-04,-5.000000000000000240e-05,-5.999999999999999474e-05,1.300000000000000157e-04,7.000000000000000000e+00,2.700000000000000000e+01
7.636900000000000000e+04,-5.000000000000000240e-05,-5.000000000000000240e-05,-6.999999999999999387e-05,-2.000000000000000096e-04,-3.299999999999999982e-04,-2.299999999999999799e-04,-2.000000000000000164e-05,-2.000000000000000164e-05,7.000000000000000000e+00,2.700000000000000000e+01
7.637000000000000000e+04,-5.000000000000000240e-05,-5.000000000000000240e-05,-6.999999999999999387e-05,-2.000000000000000096e-04,-3.299999999999999982e-04,-2.299999999999999799e-04,-2.000000000000000164e-05,-2.000000000000000164e-05,7.000000000000000000e+00,2.700000000000000000e+01
7.637100000000000000e+04,-5.000000000000000240e-05,-5.000000000000000240e-05,-6.999999999999999387e-05,-2.000000000000000096e-04,-3.299999999999999982e-04,-2.299999999999999799e-04,-2.000000000000000164e-05,-2.000000000000000164e-05,7.000000000000000000e+00,2.700000000000000000e+01
7.637200000000000000e+04,-5.000000000000000240e-05,-5.000000000000000240e-05,-6.999999999999999387e-05,-2.000000000000000096e-04,-3.299999999999999982e-04,-2.299999999999999799e-04,-2.000000000000000164e-05,-2.000000000000000164e-05,7.000000000000000000e+00,2.700000000000000000e+01
7.637300000000000000e+04,-5.000000000000000240e-05,-5.000000000000000240e-05,-6.999999999999999387e-05,-2.000000000000000096e-04,-3.299999999999999982e-04,-2.299999999999999799e-04,-2.000000000000000164e-05,-2.000000000000000164e-05,7.000000000000000000e+00,2.700000000000000000e+01
7.637400000000000000e+04,-5.000000000000000240e-05,-5.000000000000000240e-05,-6.999999999999999387e-05,-2.000000000000000096e-04,-3.299999999999999982e-04,-2.299999999999999799e-04,-2.000000000000000164e-05,-2.000000000000000164e-05,7.000000000000000000e+00,2.700000000000000000e+01
7.637500000000000000e+04,-5.000000000000000240e-05,-5.000000000000000240e-05,-6.999999999999999387e-05,-2.000000000000000096e-04,-3.299999999999999982e-04,-2.299999999999999799e-04,-2.000000000000000164e-05,-2.000000000000000164e-05,7.000000000000000000e+00,2.700000000000000000e+01
7.637600000000000000e+04,-5.000000000000000240e-05,-5.000000000000000240e-05,-6.999999999999999387e-05,-2.000000000000000096e-04,-3.299999999999999982e-04,-2.299999999999999799e-04,-2.000000000000000164e-05,-2.000000000000000164e-05,7.000000000000000000e+00,2.700000000000000000e+01
7.637700000000000000e+04,-5.000000000000000240e-05,-5.000000000000000240e-05,-6.999999999999999387e-05,-2.000000000000000096e-04,-3.299999999999999982e-04,-2.299999999999999799e-04,-2.000000000000000164e-05,-2.000000000000000164e-05,7.000000000000000000e+00,2.700000000000000000e+01
7.637800000000000000e+04,-5.000000000000000240e-05,-5.000000000000000240e-05,-6.999999999999999387e-05,-2.000000000000000096e-04,-3.299999999999999982e-04,-2.299999999999999799e-04,-2.000000000000000164e-05,-2.000000000000000164e-05,7.000000000000000000e+00,2.700000000000000000e+01
7.637900000000000000e+04,-5.000000000000000240e-05,-5.000000000000000240e-05,-6.999999999999999387e-05,-2.000000000000000096e-04,-3.299999999999999982e-04,-2.299999999999999799e-04,-2.000000000000000164e-05,-2.000000000000000164e-05,7.000000000000000000e+00,2.700000000000000000e+01
7.638000000000000000e+04,-5.000000000000000240e-05,-5.000000000000000240e-05,-6.999999999999999387e-05,-2.000000000000000096e-04,-3.299999999999999982e-04,-2.299999999999999799e-04,-2.000000000000000164e-05,-2.000000000000000164e-05,7.000000000000000000e+00,2.700000000000000000e+01
7.638100000000000000e+04,-5.000000000000000240e-05,-5.000000000000000240e-05,-6.999999999999999387e-05,-2.000000000000000096e-04,-3.299999999999999982e-04,-2.299999999999999799e-04,-2.000000000000000164e-05,-2.000000000000000164e-05,7.000000000000000000e+00,2.700000000000000000e+01
7.638200000000000000e+04,-5.000000000000000240e-05,-5.000000000000000240e-05,-6.999999999999999387e-05,-2.000000000000000096e-04,-3.299999999999999982e-04,-2.299999999999999799e-04,-2.000000000000000164e-05,-2.000000000000000164e-05,7.000000000000000000e+00,2.700000000000000000e+01
7.638300000000000000e+04,-5.000000000000000240e-05,-5.000000000000000240e-05,-6.999999999999999387e-05,-2.000000000000000096e-04,-3.299999999999999982e-04,-2.299999999999999799e-04,-2.000000000000000164e-05,-2.000000000000000164e-05,7.000000000000000000e+00,2.700000000000000000e+01
7.638400000000000000e+04,-5.000000000000000240e-05,-5.000000000000000240e-05,-6.999999999999999387e-05,-2.000000000000000096e-04,-3.299999999999999982e-04,-2.299999999999999799e-04,-2.000000000000000164e-05,-2.000000000000000164e-05,7.000000000000000000e+00,2.700000000000000000e+01
7.638500000000000000e+04,-5.000000000000000240e-05,-5.000000000000000240e-05,-6.999999999999999387e-05,-2.000000000000000096e-04,-3.299999999999999982e-04,-2.299999999999999799e-04,-2.000000000000000164e-05,-2.000000000000000164e-05,7.000000000000000000e+00,2.700000000000000000e+01
7.638600000000000000e+04,-5.000000000000000240e-05,-5.000000000000000240e-05,-6.999999999999999387e-05,-2.000000000000000096e-04,-3.299999999999999982e-04,-2.299999999999999799e-04,-2.000000000000000164e-05,-2.000000000000000164e-05,7.000000000000000000e+00,2.700000000000000000e+01
7.638800000000000000e+04,-5.000000000000000240e-05,-5.000000000000000240e-05,-6.999999999999999387e-05,-2.000000000000000096e-04,-3.299999999999999982e-04,-2.299999999999999799e-04,-2.000000000000000164e-05,-2.000000000000000164e-05,7.000000000000000000e+00,2.700000000000000000e+01
7.638900000000000000e+04,-5.000000000000000240e-05,-5.000000000000000240e-05,-6.999999999999999387e-05,-2.000000000000000096e-04,-3.299999999999999982e-04,-2.299999999999999799e-04,-2.000000000000000164e-05,-2.000000000000000164e-05,7.000000000000000000e+00,2.700000000000000000e+01
7.639000000000000000e+04,2.000000000000000164e-05,-1.000000000000000082e-05,2.999999999999999737e-05,2.999999999999999737e-05,-5.000000000000000240e-05,-1.699999999999999851e-04,6.999999999999999387e-05,2.399999999999999790e-04,7.000000000000000000e+00,2.700000000000000000e+01
7.639100000000000000e+04,1.000000000000000082e-05,2.000000000000000164e-05,6.999999999999999387e-05,2.900000000000000017e-04,3.299999999999999982e-04,4.499999999999999877e-04,-2.000000000000000164e-05,-2.999999999999999737e-05,7.000000000000000000e+00,2.700000000000000000e+01
7.639200000000000000e+04,1.000000000000000082e-05,2.000000000000000164e-05,6.999999999999999387e-05,2.900000000000000017e-04,3.299999999999999982e-04,4.499999999999999877e-04,-2.000000000000000164e-05,-2.999999999999999737e-05,7.000000000000000000e+00,2.700000000000000000e+01
7.639300000000000000e+04,1.000000000000000082e-05,2.000000000000000164e-05,6.999999999999999387e-05,2.900000000000000017e-04,3.299999999999999982e-04,4.499999999999999877e-04,-2.000000000000000164e-05,-2.999999999999999737e-05,7.000000000000000000e+00,2.700000000000000000e+01
7.639400000000000000e+04,1.000000000000000082e-05,2.000000000000000164e-05,6.999999999999999387e-05,2.900000000000000017e-04,3.299999999999999982e-04,4.499999999999999877e-04,-2.000000000000000164e-05,-2.999999999999999737e-05,7.000000000000000000e+00,2.700000000000000000e+01
7.639500000000000000e+04,1.000000000000000082e-05,2.000000000000000164e-05,6.999999999999999387e-05,2.900000000000000017e-04,3.299999999999999982e-04,4.499999999999999877e-04,-2.000000000000000164e-05,-2.999999999999999737e-05,7.000000000000000000e+00,2.700000000000000000e+01
7.639600000000000000e+04,1.000000000000000082e-05,2.000000000000000164e-05,6.999999999999999387e-05,2.900000000000000017e-04,3.299999999999999982e-04,4.499999999999999877e-04,-2.000000000000000164e-05,-2.999999999999999737e-05,7.000000000000000000e+00,2.700000000000000000e+01
7.639700000000000000e+04,1.000000000000000082e-05,2.000000000000000164e-05,6.999999999999999387e-05,2.900000000000000017e-04,3.299999999999999982e-04,4.499999999999999877e-04,-2.000000000000000164e-05,-2.999999999999999737e-05,7.000000000000000000e+00,2.700000000000000000e+01
7.639800000000000000e+04,1.000000000000000082e-05,2.000000000000000164e-05,6.999999999999999387e-05,2.900000000000000017e-04,3.299999999999999982e-04,4.499999999999999877e-04,-2.000000000000000164e-05,-2.999999999999999737e-05,7.000000000000000000e+00,2.700000000000000000e+01
7.639900000000000000e+04,1.000000000000000082e-05,2.000000000000000164e-05,6.999999999999999387e-05,2.900000000000000017e-04,3.299999999999999982e-04,4.499999999999999877e-04,-2.000000000000000164e-05,-2.999999999999999737e-05,7.000000000000000000e+00,2.700000000000000000e+01
7.640000000000000000e+04,1.000000000000000082e-05,2.000000000000000164e-05,6.999999999999999387e-05,2.900000000000000017e-04,3.299999999999999982e-04,4.499999999999999877e-04,-2.000000000000000164e-05,-2.999999999999999737e-05,7.000000000000000000e+00,2.700000000000000000e+01
7.640100000000000000e+04,1.000000000000000082e-05,2.000000000000000164e-05,6.999999999999999387e-05,2.900000000000000017e-04,3.299999999999999982e-04,4.499999999999999877e-04,-2.000000000000000164e-05,-2.999999999999999737e-05,7.000000000000000000e+00,2.700000000000000000e+01
7.640200000000000000e+04,1.000000000000000082e-05,2.000000000000000164e-05,6.999999999999999387e-05,2.900000000000000017e-04,3.299999999999999982e-04,4.499999999999999877e-04,-2.000000000000000164e-05,-2.999999999999999737e-05,7.000000000000000000e+00,2.700000000000000000e+01
7.640300000000000000e+04,1.000000000000000082e-05,2.000000000000000164e-05,6.999999999999999387e-05,2.900000000000000017e-04,3.299999999999999982e-04,4.499999999999999877e-04,-2.000000000000000164e-05,-2.999999999999999737e-05,7.000000000000000000e+00,2.700000000000000000e+01
7.640400000000000000e+04,1.699999999999999851e-04,4.000000000000000327e-05,-5.999999999999999474e-05,-4.000000000000000327e-05,1.800000000000000113e-04,-2.100000000000000087e-04,6.999999999999999387e-05,2.799999999999999755e-04,7.000000000000000000e+00,2.700000000000000000e+01
7.640500000000000000e+04,1.699999999999999851e-04,4.000000000000000327e-05,-5.999999999999999474e-05,-4.000000000000000327e-05,1.800000000000000113e-04,-2.100000000000000087e-04,6.999999999999999387e-05,2.799999999999999755e-04,7.000000000000000000e+00,2.700000000000000000e+01
7.640600000000000000e+04,1.699999999999999851e-04,4.000000000000000327e-05,-5.999999999999999474e-05,-4.000000000000000327e-05,1.800000000000000113e-04,-2.100000000000000087e-04,6.999999999999999387e-05,2.799999999999999755e-04,7.000000000000000000e+00,2.700000000000000000e+01
7.640700000000000000e+04,1.699999999999999851e-04,4.000000000000000327e-05,-5.999999999999999474e-05,-4.000000000000000327e-05,1.800000000000000113e-04,-2.100000000000000087e-04,6.999999999999999387e-05,2.799999999999999755e-04,7.000000000000000000e+00,2.700000000000000000e+01
7.640800000000000000e+04,1.699999999999999851e-04,4.000000000000000327e-05,-5.999999999999999474e-05,-4.000000000000000327e-05,1.800000000000000113e-04,-2.100000000000000087e-04,6.999999999999999387e-05,2.799999999999999755e-04,7.000000000000000000e+00,2.700000000000000000e+01
7.640900000000000000e+04,1.699999999999999851e-04,4.000000000000000327e-05,-5.999999999999999474e-05,-4.000000000000000327e-05,1.800000000000000113e-04,-2.100000000000000087e-04,6.999999999999999387e-05,2.799999999999999755e-04,7.000000000000000000e+00,2.700000000000000000e+01
7.641000000000000000e+04,1.699999999999999851e-04,4.000000000000000327e-05,-5.999999999999999474e-05,-4.000000000000000327e-05,1.800000000000000113e-04,-2.100000000000000087e-04,6.999999999999999387e-05,2.799999999999999755e-04,7.000000000000000000e+00,2.700000000000000000e+01
7.641100000000000000e+04,-2.000000000000000164e-05,4.000000000000000327e-05,1.000000000000000082e-05,-1.399999999999999877e-04,1.699999999999999851e-04,1.000000000000000048e-04,1.399999999999999877e-04,2.000000000000000096e-04,7.000000000000000000e+00,2.700000000000000000e+01
7.641200000000000000e+04,-2.000000000000000164e-05,4.000000000000000327e-05,1.000000000000000082e-05,-1.399999999999999877e-04,1.699999999999999851e-04,1.000000000000000048e-04,1.399999999999999877e-04,2.000000000000000096e-04,7.000000000000000000e+00,2.700000000000000000e+01
7.641300000000000000e+04,-2.000000000000000164e-05,4.000000000000000327e-05,1.000000000000000082e-05,-1.399999999999999877e-04,1.699999999999999851e-04,1.000000000000000048e-04,1.399999999999999877e-04,2.000000000000000096e-04,7.000000000000000000e+00,2.700000000000000000e+01
7.641400000000000000e+04,-2.000000000000000164e-05,4.000000000000000327e-05,1.000000000000000082e-05,-1.399999999999999877e-04,1.699999999999999851e-04,1.000000000000000048e-04,1.399999999999999877e-04,2.000000000000000096e-04,7.000000000000000000e+00,2.700000000000000000e+01
7.641500000000000000e+04,-2.000000000000000164e-05,4.000000000000000327e-05,1.000000000000000082e-05,-1.399999999999999877e-04,1.699999999999999851e-04,1.000000000000000048e-04,1.399999999999999877e-04,2.000000000000000096e-04,7.000000000000000000e+00,2.700000000000000000e+01
7.641600000000000000e+04,-2.000000000000000164e-05,4.000000000000000327e-05,1.000000000000000082e-05,-1.399999999999999877e-04,1.699999999999999851e-04,1.000000000000000048e-04,1.399999999999999877e-04,2.000000000000000096e-04,7.000000000000000000e+00,2.700000000000000000e+01
7.641700000000000000e+04,-2.000000000000000164e-05,4.000000000000000327e-05,1.000000000000000082e-05,-1.399999999999999877e-04,1.699999999999999851e-04,1.000000000000000048e-04,1.399999999999999877e-04,2.000000000000000096e-04,7.000000000000000000e+00,2.700000000000000000e+01
7.641800000000000000e+04,-2.000000000000000164e-05,4.000000000000000327e-05,1.000000000000000082e-05,-1.399999999999999877e-04,1.699999999999999851e-04,1.000000000000000048e-04,1.399999999999999877e-04,2.000000000000000096e-04,7.000000000000000000e+00,2.700000000000000000e+01
7.641900000000000000e+04,-2.000000000000000164e-05,4.000000000000000327e-05,1.000000000000000082e-05,-1.399999999999999877e-04,1.699999999999999851e-04,1.000000000000000048e-04,1.399999999999999877e-04,2.000000000000000096e-04,7.000000000000000000e+00,2.700000000000000000e+01
7.642000000000000000e+04,-2.000000000000000164e-05,4.000000000000000327e-05,1.000000000000000082e-05,-1.399999999999999877e-04,1.699999999999999851e-04,1.000000000000000048e-04,1.399999999999999877e-04,2.000000000000000096e-04,7.000000000000000000e+00,2.700000000000000000e+01
7.642100000000000000e+04,-2.000000000000000164e-05,4.000000000000000327e-05,1.000000000000000082e-05,-1.399999999999999877e-04,1.699999999999999851e-04,1.000000000000000048e-04,1.399999999999999877e-04,2.000000000000000096e-04,7.000000000000000000e+00,2.700000000000000000e+01
7.642200000000000000e+04,-2.000000000000000164e-05,4.000000000000000327e-05,1.000000000000000082e-05,-1.399999999999999877e-04,1.699999999999999851e-04,1.000000000000000048e-04,1.399999999999999877e-04,2.000000000000000096e-04,7.000000000000000000e+00,2.700000000000000000e+01
7.642300000000000000e+04,-2.000000000000000164e-05,4.000000000000000327e-05,1.000000000000000082e-05,-1.399999999999999877e-04,1.699999999999999851e-04,1.000000000000000048e-04,1.399999999999999877e-04,2.000000000000000096e-04,7.000000000000000000e+00,2.700000000000000000e+01
7.642400000000000000e+04,-2.000000000000000164e-05,4.000000000000000327e-05,1.000000000000000082e-05,-1.399999999999999877e-04,1.699999999999999851e-04,1.000000000000000048e-04,1.399999999999999877e-04,2.000000000000000096e-04,7.000000000000000000e+00,2.700000000000000000e+01
7.642500000000000000e+04,-2.000000000000000164e-05,4.000000000000000327e-05,1.000000000000000082e-05,-1.399999999999999877e-04,1.699999999999999851e-04,1.000000000000000048e-04,1.399999999999999877e-04,2.000000000000000096e-04,7.000000000000000000e+00,2.700000000000000000e+01
7.642600000000000000e+04,-2.000000000000000164e-05,4.000000000000000327e-05,1.000000000000000082e-05,-1.399999999999999877e-04,1.699999999999999851e-04,1.000000000000000048e-04,1.399999999999999877e-04,2.000000000000000096e-04,7.000000000000000000e+00,2.700000000000000000e+01
7.642700000000000000e+04,-4.000000000000000327e-05,1.000000000000000082e-05,4.000000000000000327e-05,2.000000000000000096e-04,9.000000000000000567e-05,-5.999999999999999474e-05,-4.000000000000000327e-05,-2.000000000000000164e-05,7.000000000000000000e+00,2.700000000000000000e+01
7.642800000000000000e+04,-4.000000000000000327e-05,1.000000000000000082e-05,4.000000000000000327e-05,2.000000000000000096e-04,9.000000000000000567e-05,-5.999999999999999474e-05,-4.000000000000000327e-05,-2.000000000000000164e-05,7.000000000000000000e+00,2.700000000000000000e+01
7.642900000000000000e+04,2.000000000000000164e-05,-4.000000000000000327e-05,-4.000000000000000327e-05,2.200000000000000078e-04,2.500000000000000052e-04,-1.199999999999999895e-04,0.000000000000000000e+00,1.300000000000000157e-04,7.000000000000000000e+00,2.700000000000000000e+01
7.643000000000000000e+04,2.000000000000000164e-05,-4.000000000000000327e-05,-4.000000000000000327e-05,2.200000000000000078e-04,2.500000000000000052e-04,-1.199999999999999895e-04,0.000000000000000000e+00,1.300000000000000157e-04,7.000000000000000000e+00,2.700000000000000000e+01
7.643100000000000000e+04,2.000000000000000164e-05,-4.000000000000000327e-05,-4.000000000000000327e-05,2.200000000000000078e-04,2.500000000000000052e-04,-1.199999999999999895e-04,0.000000000000000000e+00,1.300000000000000157e-04,7.000000000000000000e+00,2.700000000000000000e+01
7.643200000000000000e+04,2.000000000000000164e-05,-4.000000000000000327e-05,-4.000000000000000327e-05,2.200000000000000078e-04,2.500000000000000052e-04,-1.199999999999999895e-04,0.000000000000000000e+00,1.300000000000000157e-04,7.000000000000000000e+00,2.700000000000000000e+01
7.643300000000000000e+04,2.000000000000000164e-05,-4.000000000000000327e-05,-4.000000000000000327e-05,2.200000000000000078e-04,2.500000000000000052e-04,-1.199999999999999895e-04,0.000000000000000000e+00,1.300000000000000157e-04,7.000000000000000000e+00,2.700000000000000000e+01
7.643400000000000000e+04,2.000000000000000164e-05,-4.000000000000000327e-05,-4.000000000000000327e-05,2.200000000000000078e-04,2.500000000000000052e-04,-1.199999999999999895e-04,0.000000000000000000e+00,1.300000000000000157e-04,7.000000000000000000e+00,2.700000000000000000e+01
7.643500000000000000e+04,2.000000000000000164e-05,-4.000000000000000327e-05,-4.000000000000000327e-05,2.200000000000000078e-04,2.500000000000000052e-04,-1.199999999999999895e-04,0.000000000000000000e+00,1.300000000000000157e-04,7.000000000000000000e+00,2.700000000000000000e+01
7.643600000000000000e+04,2.000000000000000164e-05,-4.000000000000000327e-05,-4.000000000000000327e-05,2.200000000000000078e-04,2.500000000000000052e-04,-1.199999999999999895e-04,0.000000000000000000e+00,1.300000000000000157e-04,7.000000000000000000e+00,2.700000000000000000e+01
7.643800000000000000e+04,2.000000000000000164e-05,-4.000000000000000327e-05,-4.000000000000000327e-05,2.200000000000000078e-04,2.500000000000000052e-04,-1.199999999999999895e-04,0.000000000000000000e+00,1.300000000000000157e-04,7.000000000000000000e+00,2.700000000000000000e+01
7.643900000000000000e+04,2.000000000000000164e-05,-4.000000000000000327e-05,-4.000000000000000327e-05,2.200000000000000078e-04,2.500000000000000052e-04,-1.199999999999999895e-04,0.000000000000000000e+00,1.300000000000000157e-04,7.000000000000000000e+00,2.700000000000000000e+01
7.644000000000000000e+04,2.000000000000000164e-05,-4.000000000000000327e-05,-4.000000000000000327e-05,2.200000000000000078e-04,2.500000000000000052e-04,-1.199999999999999895e-04,0.000000000000000000e+00,1.300000000000000157e-04,7.000000000000000000e+00,2.700000000000000000e+01
7.644100000000000000e+04,2.000000000000000164e-05,-4.000000000000000327e-05,-4.000000000000000327e-05,2.200000000000000078e-04,2.500000000000000052e-04,-1.199999999999999895e-04,0.000000000000000000e+00,1.300000000000000157e-04,7.000000000000000000e+00,2.700000000000000000e+01
7.644200000000000000e+04,2.000000000000000164e-05,-4.000000000000000327e-05,-4.000000000000000327e-05,2.200000000000000078e-04,2.500000000000000052e-04,-1.199999999999999895e-04,0.000000000000000000e+00,1.300000000000000157e-04,7.000000000000000000e+00,2.700000000000000000e+01
7.644300000000000000e+04,2.000000000000000164e-05,-4.000000000000000327e-05,-4.000000000000000327e-05,2.200000000000000078e-04,2.500000000000000052e-04,-1.199999999999999895e-04,0.000000000000000000e+00,1.300000000000000157e-04,7.000000000000000000e+00,2.700000000000000000e+01
7.644400000000000000e+04,2.000000000000000164e-05,-4.000000000000000327e-05,-4.000000000000000327e-05,2.200000000000000078e-04,2.500000000000000052e-04,-1.199999999999999895e-04,0.000000000000000000e+00,1.300000000000000157e-04,7.000000000000000000e+00,2.700000000000000000e+01
7.644500000000000000e+04,2.000000000000000164e-05,-4.000000000000000327e-05,-4.000000000000000327e-05,2.200000000000000078e-04,2.500000000000000052e-04,-1.199999999999999895e-04,0.000000000000000000e+00,1.300000000000000157e-04,7.000000000000000000e+00,2.700000000000000000e+01
7.644600000000000000e+04,2.000000000000000164e-05,-4.000000000000000327e-05,-4.000000000000000327e-05,2.200000000000000078e-04,2.500000000000000052e-04,-1.199999999999999895e-04,0.000000000000000000e+00,1.300000000000000157e-04,7.000000000000000000e+00,2.700000000000000000e+01
7.644700000000000000e+04,2.000000000000000164e-05,-4.000000000000000327e-05,-4.000000000000000327e-05,2.200000000000000078e-04,2.500000000000000052e-04,-1.199999999999999895e-04,0.000000000000000000e+00,1.300000000000000157e-04,7.000000000000000000e+00,2.700000000000000000e+01
7.644800000000000000e+04,2.000000000000000164e-05,-4.000000000000000327e-05,-4.000000000000000327e-05,2.200000000000000078e-04,2.500000000000000052e-04,-1.199999999999999895e-04,0.000000000000000000e+00,1.300000000000000157e-04,7.000000000000000000e+00,2.700000000000000000e+01
7.644900000000000000e+04,2.000000000000000164e-05,-4.000000000000000327e-05,-4.000000000000000327e-05,2.200000000000000078e-04,2.500000000000000052e-04,-1.199999999999999895e-04,0.000000000000000000e+00,1.300000000000000157e-04,7.000000000000000000e+00,2.700000000000000000e+01
7.645000000000000000e+04,-2.000000000000000164e-05,-2.999999999999999737e-05,-4.000000000000000327e-05,2.399999999999999790e-04,5.000000000000000240e-05,5.999999999999999474e-05,4.000000000000000327e-05,-1.399999999999999877e-04,7.000000000000000000e+00,2.700000000000000000e+01
7.645100000000000000e+04,-5.999999999999999474e-05,-2.999999999999999737e-05,0.000000000000000000e+00,-1.499999999999999869e-04,-9.000000000000000567e-05,2.200000000000000078e-04,-2.999999999999999737e-05,-3.200000000000000262e-04,7.000000000000000000e+00,2.700000000000000000e+01
7.645200000000000000e+04,-5.999999999999999474e-05,-2.999999999999999737e-05,0.000000000000000000e+00,-1.499999999999999869e-04,-9.000000000000000567e-05,2.200000000000000078e-04,-2.999999999999999737e-05,-3.200000000000000262e-04,7.000000000000000000e+00,2.700000000000000000e+01
7.645300000000000000e+04,-5.999999999999999474e-05,-2.999999999999999737e-05,0.000000000000000000e+00,-1.499999999999999869e-04,-9.000000000000000567e-05,2.200000000000000078e-04,-2.999999999999999737e-05,-3.200000000000000262e-04,7.000000000000000000e+00,2.700000000000000000e+01
7.645400000000000000e+04,-5.999999999999999474e-05,-2.999999999999999737e-05,0.000000000000000000e+00,-1.499999999999999869e-04,-9.000000000000000567e-05,2.200000000000000078e-04,-2.999999999999999737e-05,-3.200000000000000262e-04,7.000000000000000000e+00,2.700000000000000000e+01
7.645500000000000000e+04,-5.999999999999999474e-05,-2.999999999999999737e-05,0.000000000000000000e+00,-1.499999999999999869e-04,-9.000000000000000567e-05,2.200000000000000078e-04,-2.999999999999999737e-05,-3.200000000000000262e-04,7.000000000000000000e+00,2.700000000000000000e+01
7.645600000000000000e+04,-5.999999999999999474e-05,-2.999999999999999737e-05,0.000000000000000000e+00,-1.499999999999999869e-04,-9.000000000000000567e-05,2.200000000000000078e-04,-2.999999999999999737e-05,-3.200000000000000262e-04,7.000000000000000000e+00,2.700000000000000000e+01
7.645700000000000000e+04,-5.999999999999999474e-05,-2.999999999999999737e-05,0.000000000000000000e+00,-1.499999999999999869e-04,-9.000000000000000567e-05,2.200000000000000078e-04,-2.999999999999999737e-05,-3.200000000000000262e-04,7.000000000000000000e+00,2.700000000000000000e+01
7.645800000000000000e+04,-5.999999999999999474e-05,-2.999999999999999737e-05,0.000000000000000000e+00,-1.499999999999999869e-04,-9.000000000000000567e-05,2.200000000000000078e-04,-2.999999999999999737e-05,-3.200000000000000262e-04,7.000000000000000000e+00,2.700000000000000000e+01
7.645900000000000000e+04,-5.999999999999999474e-05,-2.999999999999999737e-05,0.000000000000000000e+00,-1.499999999999999869e-04,-9.000000000000000567e-05,2.200000000000000078e-04,-2.999999999999999737e-05,-3.200000000000000262e-04,7.000000000000000000e+00,2.700000000000000000e+01
7.646000000000000000e+04,-5.999999999999999474e-05,-2.999999999999999737e-05,0.000000000000000000e+00,-1.499999999999999869e-04,-9.000000000000000567e-05,2.200000000000000078e-04,-2.999999999999999737e-05,-3.200000000000000262e-04,7.000000000000000000e+00,2.700000000000000000e+01
7.646100000000000000e+04,-5.999999999999999474e-05,-2.999999999999999737e-05,0.000000000000000000e+00,-1.499999999999999869e-04,-9.000000000000000567e-05,2.200000000000000078e-04,-2.999999999999999737e-05,-3.200000000000000262e-04,7.000000000000000000e+00,2.700000000000000000e+01
7.646200000000000000e+04,-5.999999999999999474e-05,-2.999999999999999737e-05,0.000000000000000000e+00,-1.499999999999999869e-04,-9.000000000000000567e-05,2.200000000000000078e-04,-2.999999999999999737e-05,-3.200000000000000262e-04,7.000000000000000000e+00,2.700000000000000000e+01
7.646300000000000000e+04,-5.999999999999999474e-05,-2.999999999999999737e-05,0.000000000000000000e+00,-1.499999999999999869e-04,-9.000000000000000567e-05,2.200000000000000078e-04,-2.999999999999999737e-05,-3.200000000000000262e-04,7.000000000000000000e+00,2.700000000000000000e+01
7.646400000000000000e+04,-1.000000000000000082e-05,-1.000000000000000082e-05,1.100000000000000039e-04,4.000000000000000192e-04,4.899999999999999842e-04,1.399999999999999877e-04,1.000000000000000082e-05,1.100000000000000039e-04,7.000000000000000000e+00,2.700000000000000000e+01
7.646500000000000000e+04,-1.000000000000000082e-05,-1.000000000000000082e-05,1.100000000000000039e-04,4.000000000000000192e-04,4.899999999999999842e-04,1.399999999999999877e-04,1.000000000000000082e-05,1.100000000000000039e-04,7.000000000000000000e+00,2.700000000000000000e+01
7.646600000000000000e+04,-1.000000000000000082e-05,-1.000000000000000082e-05,1.100000000000000039e-04,4.000000000000000192e-04,4.899999999999999842e-04,1.399999999999999877e-04,1.000000000000000082e-05,1.100000000000000039e-04,7.000000000000000000e+00,2.700000000000000000e+01
7.646700000000000000e+04,-1.000000000000000082e-05,-1.000000000000000082e-05,1.100000000000000039e-04,4.000000000000000192e-04,4.899999999999999842e-04,1.399999999999999877e-04,1.000000000000000082e-05,1.100000000000000039e-04,7.000000000000000000e+00,2.700000000000000000e+01
7.646800000000000000e+04,-1.000000000000000082e-05,-1.000000000000000082e-05,1.100000000000000039e-04,4.000000000000000192e-04,4.899999999999999842e-04,1.399999999999999877e-04,1.000000000000000082e-05,1.100000000000000039e-04,7.000000000000000000e+00,2.700000000000000000e+01
7.646900000000000000e+04,-1.000000000000000082e-05,-1.000000000000000082e-05,1.100000000000000039e-04,4.000000000000000192e-04,4.899999999999999842e-04,1.399999999999999877e-04,1.000000000000000082e-05,1.100000000000000039e-04,7.000000000000000000e+00,2.700000000000000000e+01
7.647000000000000000e+04,-1.000000000000000082e-05,-1.000000000000000082e-05,1.100000000000000039e-04,4.000000000000000192e-04,4.899999999999999842e-04,1.399999999999999877e-04,1.000000000000000082e-05,1.100000000000000039e-04,7.000000000000000000e+00,2.700000000000000000e+01
7.647100000000000000e+04,-4.000000000000000327e-05,-5.999999999999999474e-05,-2.000000000000000096e-04,-2.399999999999999790e-04,-1.100000000000000039e-04,-2.100000000000000087e-04,-2.000000000000000164e-05,-4.000000000000000327e-05,7.000000000000000000e+00,2.700000000000000000e+01
7.647200000000000000e+04,-4.000000000000000327e-05,-5.999999999999999474e-05,-2.000000000000000096e-04,-2.399999999999999790e-04,-1.100000000000000039e-04,-2.100000000000000087e-04,-2.000000000000000164e-05,-4.000000000000000327e-05,7.000000000000000000e+00,2.700000000000000000e+01
7.647300000000000000e+04,-4.000000000000000327e-05,-5.999999999999999474e-05,-2.000000000000000096e-04,-2.399999999999999790e-04,-1.100000000000000039e-04,-2.100000000000000087e-04,-2.000000000000000164e-05,-4.000000000000000327e-05,7.000000000000000000e+00,2.700000000000000000e+01
7.647400000000000000e+04,-4.000000000000000327e-05,-5.999999999999999474e-05,-2.000000000000000096e-04,-2.399999999999999790e-04,-1.100000000000000039e-04,-2.100000000000000087e-04,-2.000000000000000164e-05,-4.000000000000000327e-05,7.000000000000000000e+00,2.700000000000000000e+01
7.647500000000000000e+04,-4.000000000000000327e-05,-5.999999999999999474e-05,-2.000000000000000096e-04,-2.399999999999999790e-04,-1.100000000000000039e-04,-2.100000000000000087e-04,-2.000000000000000164e-05,-4.000000000000000327e-05,7.000000000000000000e+00,2.700000000000000000e+01
7.647600000000000000e+04,-4.000000000000000327e-05,-5.999999999999999474e-05,-2.000000000000000096e-04,-2.399999999999999790e-04,-1.100000000000000039e-04,-2.100000000000000087e-04,-2.000000000000000164e-05,-4.000000000000000327e-05,7.000000000000000000e+00,2.700000000000000000e+01
7.647700000000000000e+04,-4.000000000000000327e-05,-5.999999999999999474e-05,-2.000000000000000096e-04,-2.399999999999999790e-04,-1.100000000000000039e-04,-2.100000000000000087e-04,-2.000000000000000164e-05,-4.000000000000000327e-05,7.000000000000000000e+00,2.700000000000000000e+01
7.647800000000000000e+04,-4.000000000000000327e-05,-5.999999999999999474e-05,-2.000000000000000096e-04,-2.399999999999999790e-04,-1.100000000000000039e-04,-2.100000000000000087e-04,-2.000000000000000164e-05,-4.000000000000000327e-05,7.000000000000000000e+00,2.700000000000000000e+01
7.648000000000000000e+04,-4.000000000000000327e-05,-5.999999999999999474e-05,-2.000000000000000096e-04,-2.399999999999999790e-04,-1.100000000000000039e-04,-2.100000000000000087e-04,-2.000000000000000164e-05,-4.000000000000000327e-05,7.000000000000000000e+00,2.700000000000000000e+01
7.648100000000000000e+04,-4.000000000000000327e-05,-5.999999999999999474e-05,-2.000000000000000096e-04,-2.399999999999999790e-04,-1.100000000000000039e-04,-2.100000000000000087e-04,-2.000000000000000164e-05,-4.000000000000000327e-05,7.000000000000000000e+00,2.700000000000000000e+01
7.648200000000000000e+04,-4.000000000000000327e-05,-5.999999999999999474e-05,-2.000000000000000096e-04,-2.399999999999999790e-04,-1.100000000000000039e-04,-2.100000000000000087e-04,-2.000000000000000164e-05,-4.000000000000000327e-05,7.000000000000000000e+00,2.700000000000000000e+01
7.648300000000000000e+04,-4.000000000000000327e-05,-5.999999999999999474e-05,-2.000000000000000096e-04,-2.399999999999999790e-04,-1.100000000000000039e-04,-2.100000000000000087e-04,-2.000000000000000164e-05,-4.000000000000000327e-05,7.000000000000000000e+00,2.700000000000000000e+01
7.648400000000000000e+04,-4.000000000000000327e-05,-5.999999999999999474e-05,-2.000000000000000096e-04,-2.399999999999999790e-04,-1.100000000000000039e-04,-2.100000000000000087e-04,-2.000000000000000164e-05,-4.000000000000000327e-05,7.000000000000000000e+00,2.700000000000000000e+01
7.648500000000000000e+04,-4.000000000000000327e-05,-5.999999999999999474e-05,-2.000000000000000096e-04,-2.399999999999999790e-04,-1.100000000000000039e-04,-2.100000000000000087e-04,-2.000000000000000164e-05,-4.000000000000000327e-05,7.000000000000000000e+00,2.700000000000000000e+01
7.648600000000000000e+04,-4.000000000000000327e-05,-5.999999999999999474e-05,-2.000000000000000096e-04,-2.399999999999999790e-04,-1.100000000000000039e-04,-2.100000000000000087e-04,-2.000000000000000164e-05,-4.000000000000000327e-05,7.000000000000000000e+00,2.700000000000000000e+01
7.648900000000000000e+04,1.000000000000000082e-05,2.999999999999999737e-05,5.000000000000000240e-05,2.299999999999999799e-04,4.200000000000000174e-04,-1.000000000000000082e-05,2.000000000000000096e-04,-1.199999999999999895e-04,7.000000000000000000e+00,2.700000000000000000e+01
7.649000000000000000e+04,1.000000000000000082e-05,2.999999999999999737e-05,5.000000000000000240e-05,2.299999999999999799e-04,4.200000000000000174e-04,-1.000000000000000082e-05,2.000000000000000096e-04,-1.199999999999999895e-04,7.000000000000000000e+00,2.700000000000000000e+01
7.649100000000000000e+04,1.000000000000000082e-05,2.999999999999999737e-05,5.000000000000000240e-05,2.299999999999999799e-04,4.200000000000000174e-04,-1.000000000000000082e-05,2.000000000000000096e-04,-1.199999999999999895e-04,7.000000000000000000e+00,2.700000000000000000e+01
7.649200000000000000e+04,1.000000000000000082e-05,2.999999999999999737e-05,5.000000000000000240e-05,2.299999999999999799e-04,4.200000000000000174e-04,-1.000000000000000082e-05,2.000000000000000096e-04,-1.199999999999999895e-04,7.000000000000000000e+00,2.700000000000000000e+01
7.649300000000000000e+04,1.000000000000000082e-05,2.999999999999999737e-05,5.000000000000000240e-05,2.299999999999999799e-04,4.200000000000000174e-04,-1.000000000000000082e-05,2.000000000000000096e-04,-1.199999999999999895e-04,7.000000000000000000e+00,2.700000000000000000e+01
7.649400000000000000e+04,1.000000000000000082e-05,2.999999999999999737e-05,5.000000000000000240e-05,2.299999999999999799e-04,4.200000000000000174e-04,-1.000000000000000082e-05,2.000000000000000096e-04,-1.199999999999999895e-04,7.000000000000000000e+00,2.700000000000000000e+01
7.649500000000000000e+04,1.000000000000000082e-05,2.999999999999999737e-05,5.000000000000000240e-05,2.299999999999999799e-04,4.200000000000000174e-04,-1.000000000000000082e-05,2.000000000000000096e-04,-1.199999999999999895e-04,7.000000000000000000e+00,2.700000000000000000e+01
7.649600000000000000e+04,1.000000000000000082e-05,2.999999999999999737e-05,5.000000000000000240e-05,2.299999999999999799e-04,4.200000000000000174e-04,-1.000000000000000082e-05,2.000000000000000096e-04,-1.199999999999999895e-04,7.000000000000000000e+00,2.700000000000000000e+01
7.649700000000000000e+04,1.000000000000000082e-05,2.999999999999999737e-05,5.000000000000000240e-05,2.299999999999999799e-04,4.200000000000000174e-04,-1.000000000000000082e-05,2.000000000000000096e-04,-1.199999999999999895e-04,7.000000000000000000e+00,2.700000000000000000e+01
7.649800000000000000e+04,1.000000000000000082e-05,2.999999999999999737e-05,5.000000000000000240e-05,2.299999999999999799e-04,4.200000000000000174e-04,-1.000000000000000082e-05,2.000000000000000096e-04,-1.199999999999999895e-04,7.000000000000000000e+00,2.700000000000000000e+01
7.649900000000000000e+04,1.000000000000000082e-05,2.999999999999999737e-05,5.000000000000000240e-05,2.299999999999999799e-04,4.200000000000000174e-04,-1.000000000000000082e-05,2.000000000000000096e-04,-1.199999999999999895e-04,7.000000000000000000e+00,2.700000000000000000e+01
7.650000000000000000e+04,1.000000000000000082e-05,2.999999999999999737e-05,5.000000000000000240e-05,2.299999999999999799e-04,4.200000000000000174e-04,-1.000000000000000082e-05,2.000000000000000096e-04,-1.199999999999999895e-04,7.000000000000000000e+00,2.700000000000000000e+01
7.650100000000000000e+04,1.000000000000000082e-05,2.999999999999999737e-05,5.000000000000000240e-05,2.299999999999999799e-04,4.200000000000000174e-04,-1.000000000000000082e-05,2.000000000000000096e-04,-1.199999999999999895e-04,7.000000000000000000e+00,2.700000000000000000e+01
7.650200000000000000e+04,1.000000000000000082e-05,2.999999999999999737e-05,5.000000000000000240e-05,2.299999999999999799e-04,4.200000000000000174e-04,-1.000000000000000082e-05,2.000000000000000096e-04,-1.199999999999999895e-04,7.000000000000000000e+00,2.700000000000000000e+01
7.650300000000000000e+04,1.000000000000000082e-05,2.999999999999999737e-05,5.000000000000000240e-05,2.299999999999999799e-04,4.200000000000000174e-04,-1.000000000000000082e-05,2.000000000000000096e-04,-1.199999999999999895e-04,7.000000000000000000e+00,2.700000000000000000e+01
7.650400000000000000e+04,1.000000000000000082e-05,2.999999999999999737e-05,5.000000000000000240e-05,2.299999999999999799e-04,4.200000000000000174e-04,-1.000000000000000082e-05,2.000000000000000096e-04,-1.199999999999999895e-04,7.000000000000000000e+00,2.700000000000000000e+01
7.650500000000000000e+04,1.000000000000000082e-05,2.999999999999999737e-05,5.000000000000000240e-05,2.299999999999999799e-04,4.200000000000000174e-04,-1.000000000000000082e-05,2.000000000000000096e-04,-1.199999999999999895e-04,7.000000000000000000e+00,2.700000000000000000e+01
7.650600000000000000e+04,1.000000000000000082e-05,2.999999999999999737e-05,5.000000000000000240e-05,2.299999999999999799e-04,4.200000000000000174e-04,-1.000000000000000082e-05,2.000000000000000096e-04,-1.199999999999999895e-04,7.000000000000000000e+00,2.700000000000000000e+01
7.650700000000000000e+04,1.000000000000000082e-05,2.999999999999999737e-05,5.000000000000000240e-05,2.299999999999999799e-04,4.200000000000000174e-04,-1.000000000000000082e-05,2.000000000000000096e-04,-1.199999999999999895e-04,7.000000000000000000e+00,2.700000000000000000e+01
7.650800000000000000e+04,1.000000000000000082e-05,2.999999999999999737e-05,5.000000000000000240e-05,2.299999999999999799e-04,4.200000000000000174e-04,-1.000000000000000082e-05,2.000000000000000096e-04,-1.199999999999999895e-04,7.000000000000000000e+00,2.700000000000000000e+01
7.650900000000000000e+04,1.000000000000000082e-05,2.999999999999999737e-05,5.000000000000000240e-05,2.299999999999999799e-04,4.200000000000000174e-04,-1.000000000000000082e-05,2.000000000000000096e-04,-1.199999999999999895e-04,7.000000000000000000e+00,2.700000000000000000e+01
7.651000000000000000e+04,-5.999999999999999474e-05,-1.000000000000000082e-05,-1.000000000000000082e-05,-1.199999999999999895e-04,5.000000000000000104e-04,5.000000000000000240e-05,0.000000000000000000e+00,5.999999999999999474e-05,7.000000000000000000e+00,2.700000000000000000e+01
7.651100000000000000e+04,-5.999999999999999474e-05,-1.000000000000000048e-04,-1.600000000000000131e-04,-6.999999999999999387e-05,2.999999999999999737e-05,-1.199999999999999895e-04,-4.000000000000000327e-05,2.999999999999999737e-05,7.000000000000000000e+00,2.700000000000000000e+01
7.651200000000000000e+04,-5.999999999999999474e-05,-1.000000000000000048e-04,-1.600000000000000131e-04,-6.999999999999999387e-05,2.999999999999999737e-05,-1.199999999999999895e-04,-4.000000000000000327e-05,2.999999999999999737e-05,7.000000000000000000e+00,2.700000000000000000e+01
7.651300000000000000e+04,-5.999999999999999474e-05,-1.000000000000000048e-04,-1.600000000000000131e-04,-6.999999999999999387e-05,2.999999999999999737e-05,-1.199999999999999895e-04,-4.000000000000000327e-05,2.999999999999999737e-05,7.000000000000000000e+00,2.700000000000000000e+01
7.651400000000000000e+04,-5.999999999999999474e-05,-1.000000000000000048e-04,-1.600000000000000131e-04,-6.999999999999999387e-05,2.999999999999999737e-05,-1.199999999999999895e-04,-4.000000000000000327e-05,2.999999999999999737e-05,7.000000000000000000e+00,2.700000000000000000e+01
7.651500000000000000e+04,-5.999999999999999474e-05,-1.000000000000000048e-04,-1.600000000000000131e-04,-6.999999999999999387e-05,2.999999999999999737e-05,-1.199999999999999895e-04,-4.000000000000000327e-05,2.999999999999999737e-05,7.000000000000000000e+00,2.700000000000000000e+01
7.651600000000000000e+04,-5.999999999999999474e-05,-1.000000000000000048e-04,-1.600000000000000131e-04,-6.999999999999999387e-05,2.999999999999999737e-05,-1.199999999999999895e-04,-4.000000000000000327e-05,2.999999999999999737e-05,7.000000000000000000e+00,2.700000000000000000e+01
7.651700000000000000e+04,-5.999999999999999474e-05,-1.000000000000000048e-04,-1.600000000000000131e-04,-6.999999999999999387e-05,2.999999999999999737e-05,-1.199999999999999895e-04,-4.000000000000000327e-05,2.999999999999999737e-05,7.000000000000000000e+00,2.700000000000000000e+01
7.651800000000000000e+04,-5.999999999999999474e-05,-1.000000000000000048e-04,-1.600000000000000131e-04,-6.999999999999999387e-05,2.999999999999999737e-05,-1.199999999999999895e-04,-4.000000000000000327e-05,2.999999999999999737e-05,7.000000000000000000e+00,2.700000000000000000e+01
7.651900000000000000e+04,-5.999999999999999474e-05,-1.000000000000000048e-04,-1.600000000000000131e-04,-6.999999999999999387e-05,2.999999999999999737e-05,-1.199999999999999895e-04,-4.000000000000000327e-05,2.999999999999999737e-05,7.000000000000000000e+00,2.700000000000000000e+01
7.652000000000000000e+04,-5.999999999999999474e-05,-1.000000000000000048e-04,-1.600000000000000131e-04,-6.999999999999999387e-05,2.999999999999999737e-05,-1.199999999999999895e-04,-4.000000000000000327e-05,2.999999999999999737e-05,7.000000000000000000e+00,2.700000000000000000e+01
7.652100000000000000e+04,-5.999999999999999474e-05,-1.000000000000000048e-04,-1.600000000000000131e-04,-6.999999999999999387e-05,2.999999999999999737e-05,-1.199999999999999895e-04,-4.000000000000000327e-05,2.999999999999999737e-05,7.000000000000000000e+00,2.700000000000000000e+01
7.652200000000000000e+04,-5.999999999999999474e-05,-1.000000000000000048e-04,-1.600000000000000131e-04,-6.999999999999999387e-05,2.999999999999999737e-05,-1.199999999999999895e-04,-4.000000000000000327e-05,2.999999999999999737e-05,7.000000000000000000e+00,2.700000000000000000e+01
7.652300000000000000e+04,2.000000000000000164e-05,2.000000000000000164e-05,1.000000000000000082e-05,-8.000000000000000654e-05,-5.400000000000000069e-04,-1.100000000000000039e-04,-2.000000000000000164e-05,8.000000000000000654e-05,7.000000000000000000e+00,2.700000000000000000e+01
7.652400000000000000e+04,2.000000000000000164e-05,2.000000000000000164e-05,1.000000000000000082e-05,-8.000000000000000654e-05,-5.400000000000000069e-04,-1.100000000000000039e-04,-2.000000000000000164e-05,8.000000000000000654e-05,7.000000000000000000e+00,2.700000000000000000e+01
7.652500000000000000e+04,2.000000000000000164e-05,2.000000000000000164e-05,1.000000000000000082e-05,-8.000000000000000654e-05,-5.400000000000000069e-04,-1.100000000000000039e-04,-2.000000000000000164e-05,8.000000000000000654e-05,7.000000000000000000e+00,2.700000000000000000e+01
7.652600000000000000e+04,2.000000000000000164e-05,2.000000000000000164e-05,1.000000000000000082e-05,-8.000000000000000654e-05,-5.400000000000000069e-04,-1.100000000000000039e-04,-2.000000000000000164e-05,8.000000000000000654e-05,7.000000000000000000e+00,2.700000000000000000e+01
7.652700000000000000e+04,2.000000000000000164e-05,2.000000000000000164e-05,1.000000000000000082e-05,-8.000000000000000654e-05,-5.400000000000000069e-04,-1.100000000000000039e-04,-2.000000000000000164e-05,8.000000000000000654e-05,7.000000000000000000e+00,2.700000000000000000e+01
7.652800000000000000e+04,2.000000000000000164e-05,2.000000000000000164e-05,1.000000000000000082e-05,-8.000000000000000654e-05,-5.400000000000000069e-04,-1.100000000000000039e-04,-2.000000000000000164e-05,8.000000000000000654e-05,7.000000000000000000e+00,2.700000000000000000e+01
7.652900000000000000e+04,2.000000000000000164e-05,2.000000000000000164e-05,1.000000000000000082e-05,-8.000000000000000654e-05,-5.400000000000000069e-04,-1.100000000000000039e-04,-2.000000000000000164e-05,8.000000000000000654e-05,7.000000000000000000e+00,2.700000000000000000e+01
7.653000000000000000e+04,2.000000000000000164e-05,2.000000000000000164e-05,1.000000000000000082e-05,-8.000000000000000654e-05,-5.400000000000000069e-04,-1.100000000000000039e-04,-2.000000000000000164e-05,8.000000000000000654e-05,7.000000000000000000e+00,2.700000000000000000e+01
7.653100000000000000e+04,2.000000000000000164e-05,2.000000000000000164e-05,1.000000000000000082e-05,-8.000000000000000654e-05,-5.400000000000000069e-04,-1.100000000000000039e-04,-2.000000000000000164e-05,8.000000000000000654e-05,7.000000000000000000e+00,2.700000000000000000e+01
7.653200000000000000e+04,4.000000000000000327e-05,2.000000000000000164e-05,1.000000000000000082e-05,1.800000000000000113e-04,-2.000000000000000096e-04,-1.000000000000000082e-05,5.000000000000000240e-05,2.700000000000000035e-04,7.000000000000000000e+00,2.700000000000000000e+01
7.653300000000000000e+04,4.000000000000000327e-05,2.000000000000000164e-05,1.000000000000000082e-05,1.800000000000000113e-04,-2.000000000000000096e-04,-1.000000000000000082e-05,5.000000000000000240e-05,2.700000000000000035e-04,7.000000000000000000e+00,2.700000000000000000e+01
7.653400000000000000e+04,4.000000000000000327e-05,2.000000000000000164e-05,1.000000000000000082e-05,1.800000000000000113e-04,-2.000000000000000096e-04,-1.000000000000000082e-05,5.000000000000000240e-05,2.700000000000000035e-04,7.000000000000000000e+00,2.700000000000000000e+01
7.653500000000000000e+04,4.000000000000000327e-05,2.000000000000000164e-05,1.000000000000000082e-05,1.800000000000000113e-04,-2.000000000000000096e-04,-1.000000000000000082e-05,5.000000000000000240e-05,2.700000000000000035e-04,7.000000000000000000e+00,2.700000000000000000e+01
7.653600000000000000e+04,4.000000000000000327e-05,2.000000000000000164e-05,1.000000000000000082e-05,1.800000000000000113e-04,-2.000000000000000096e-04,-1.000000000000000082e-05,5.000000000000000240e-05,2.700000000000000035e-04,7.000000000000000000e+00,2.700000000000000000e+01
7.653800000000000000e+04,4.000000000000000327e-05,2.000000000000000164e-05,1.000000000000000082e-05,1.800000000000000113e-04,-2.000000000000000096e-04,-1.000000000000000082e-05,5.000000000000000240e-05,2.700000000000000035e-04,7.000000000000000000e+00,2.700000000000000000e+01
7.653900000000000000e+04,4.000000000000000327e-05,2.000000000000000164e-05,1.000000000000000082e-05,1.800000000000000113e-04,-2.000000000000000096e-04,-1.000000000000000082e-05,5.000000000000000240e-05,2.700000000000000035e-04,7.000000000000000000e+00,2.700000000000000000e+01
7.654000000000000000e+04,4.000000000000000327e-05,2.000000000000000164e-05,1.000000000000000082e-05,1.800000000000000113e-04,-2.000000000000000096e-04,-1.000000000000000082e-05,5.000000000000000240e-05,2.700000000000000035e-04,7.000000000000000000e+00,2.700000000000000000e+01
7.654100000000000000e+04,4.000000000000000327e-05,2.000000000000000164e-05,1.000000000000000082e-05,1.800000000000000113e-04,-2.000000000000000096e-04,-1.000000000000000082e-05,5.000000000000000240e-05,2.700000000000000035e-04,7.000000000000000000e+00,2.700000000000000000e+01
7.654200000000000000e+04,4.000000000000000327e-05,2.000000000000000164e-05,1.000000000000000082e-05,1.800000000000000113e-04,-2.000000000000000096e-04,-1.000000000000000082e-05,5.000000000000000240e-05,2.700000000000000035e-04,7.000000000000000000e+00,2.700000000000000000e+01
7.654300000000000000e+04,4.000000000000000327e-05,2.000000000000000164e-05,1.000000000000000082e-05,1.800000000000000113e-04,-2.000000000000000096e-04,-1.000000000000000082e-05,5.000000000000000240e-05,2.700000000000000035e-04,7.000000000000000000e+00,2.700000000000000000e+01
7.654400000000000000e+04,4.000000000000000327e-05,2.000000000000000164e-05,1.000000000000000082e-05,1.800000000000000113e-04,-2.000000000000000096e-04,-1.000000000000000082e-05,5.000000000000000240e-05,2.700000000000000035e-04,7.000000000000000000e+00,2.700000000000000000e+01
7.654500000000000000e+04,4.000000000000000327e-05,2.000000000000000164e-05,1.000000000000000082e-05,1.800000000000000113e-04,-2.000000000000000096e-04,-1.000000000000000082e-05,5.000000000000000240e-05,2.700000000000000035e-04,7.000000000000000000e+00,2.700000000000000000e+01
7.654600000000000000e+04,4.000000000000000327e-05,2.000000000000000164e-05,1.000000000000000082e-05,1.800000000000000113e-04,-2.000000000000000096e-04,-1.000000000000000082e-05,5.000000000000000240e-05,2.700000000000000035e-04,7.000000000000000000e+00,2.700000000000000000e+01
7.654700000000000000e+04,0.000000000000000000e+00,-2.999999999999999737e-05,-2.200000000000000078e-04,-3.399999999999999702e-04,1.899999999999999834e-04,2.100000000000000087e-04,5.999999999999999474e-05,2.600000000000000314e-04,7.000000000000000000e+00,2.700000000000000000e+01
7.654800000000000000e+04,0.000000000000000000e+00,-2.999999999999999737e-05,-2.200000000000000078e-04,-3.399999999999999702e-04,1.899999999999999834e-04,2.100000000000000087e-04,5.999999999999999474e-05,2.600000000000000314e-04,7.000000000000000000e+00,2.700000000000000000e+01
7.654900000000000000e+04,4.000000000000000327e-05,2.999999999999999737e-05,1.000000000000000048e-04,1.399999999999999877e-04,9.000000000000000567e-05,-1.000000000000000048e-04,5.999999999999999474e-05,4.000000000000000327e-05,7.000000000000000000e+00,2.700000000000000000e+01
7.655000000000000000e+04,4.000000000000000327e-05,2.999999999999999737e-05,1.000000000000000048e-04,1.399999999999999877e-04,9.000000000000000567e-05,-1.000000000000000048e-04,5.999999999999999474e-05,4.000000000000000327e-05,7.000000000000000000e+00,2.700000000000000000e+01
7.655100000000000000e+04,4.000000000000000327e-05,2.999999999999999737e-05,1.000000000000000048e-04,1.399999999999999877e-04,9.000000000000000567e-05,-1.000000000000000048e-04,5.999999999999999474e-05,4.000000000000000327e-05,7.000000000000000000e+00,2.700000000000000000e+01
7.655200000000000000e+04,4.000000000000000327e-05,2.999999999999999737e-05,1.000000000000000048e-04,1.399999999999999877e-04,9.000000000000000567e-05,-1.000000000000000048e-04,5.999999999999999474e-05,4.000000000000000327e-05,7.000000000000000000e+00,2.700000000000000000e+01
7.655300000000000000e+04,4.000000000000000327e-05,2.999999999999999737e-05,1.000000000000000048e-04,1.399999999999999877e-04,9.000000000000000567e-05,-1.000000000000000048e-04,5.999999999999999474e-05,4.000000000000000327e-05,7.000000000000000000e+00,2.700000000000000000e+01
7.655400000000000000e+04,4.000000000000000327e-05,2.999999999999999737e-05,1.000000000000000048e-04,1.399999999999999877e-04,9.000000000000000567e-05,-1.000000000000000048e-04,5.999999999999999474e-05,4.000000000000000327e-05,7.000000000000000000e+00,2.700000000000000000e+01
7.655500000000000000e+04,4.000000000000000327e-05,2.999999999999999737e-05,1.000000000000000048e-04,1.399999999999999877e-04,9.000000000000000567e-05,-1.000000000000000048e-04,5.999999999999999474e-05,4.000000000000000327e-05,7.000000000000000000e+00,2.700000000000000000e+01
7.655600000000000000e+04,4.000000000000000327e-05,2.999999999999999737e-05,1.000000000000000048e-04,1.399999999999999877e-04,9.000000000000000567e-05,-1.000000000000000048e-04,5.999999999999999474e-05,4.000000000000000327e-05,7.000000000000000000e+00,2.700000000000000000e+01
7.655700000000000000e+04,4.000000000000000327e-05,2.999999999999999737e-05,1.000000000000000048e-04,1.399999999999999877e-04,9.000000000000000567e-05,-1.000000000000000048e-04,5.999999999999999474e-05,4.000000000000000327e-05,7.000000000000000000e+00,2.700000000000000000e+01
7.655800000000000000e+04,4.000000000000000327e-05,2.999999999999999737e-05,1.000000000000000048e-04,1.399999999999999877e-04,9.000000000000000567e-05,-1.000000000000000048e-04,5.999999999999999474e-05,4.000000000000000327e-05,7.000000000000000000e+00,2.700000000000000000e+01
7.655900000000000000e+04,4.000000000000000327e-05,2.999999999999999737e-05,1.000000000000000048e-04,1.399999999999999877e-04,9.000000000000000567e-05,-1.000000000000000048e-04,5.999999999999999474e-05,4.000000000000000327e-05,7.000000000000000000e+00,2.700000000000000000e+01
7.656000000000000000e+04,4.000000000000000327e-05,2.999999999999999737e-05,1.000000000000000048e-04,1.399999999999999877e-04,9.000000000000000567e-05,-1.000000000000000048e-04,5.999999999999999474e-05,4.000000000000000327e-05,7.000000000000000000e+00,2.700000000000000000e+01
7.656100000000000000e+04,4.000000000000000327e-05,2.999999999999999737e-05,1.000000000000000048e-04,1.399999999999999877e-04,9.000000000000000567e-05,-1.000000000000000048e-04,5.999999999999999474e-05,4.000000000000000327e-05,7.000000000000000000e+00,2.700000000000000000e+01
7.656200000000000000e+04,4.000000000000000327e-05,2.999999999999999737e-05,1.000000000000000048e-04,1.399999999999999877e-04,9.000000000000000567e-05,-1.000000000000000048e-04,5.999999999999999474e-05,4.000000000000000327e-05,7.000000000000000000e+00,2.700000000000000000e+01
7.656300000000000000e+04,4.000000000000000327e-05,2.999999999999999737e-05,1.000000000000000048e-04,1.399999999999999877e-04,9.000000000000000567e-05,-1.000000000000000048e-04,5.999999999999999474e-05,4.000000000000000327e-05,7.000000000000000000e+00,2.700000000000000000e+01
7.656400000000000000e+04,4.000000000000000327e-05,2.999999999999999737e-05,1.000000000000000048e-04,1.399999999999999877e-04,9.000000000000000567e-05,-1.000000000000000048e-04,5.999999999999999474e-05,4.000000000000000327e-05,7.000000000000000000e+00,2.700000000000000000e+01
7.656500000000000000e+04,4.000000000000000327e-05,2.999999999999999737e-05,1.000000000000000048e-04,1.399999999999999877e-04,9.000000000000000567e-05,-1.000000000000000048e-04,5.999999999999999474e-05,4.000000000000000327e-05,7.000000000000000000e+00,2.700000000000000000e+01
7.656600000000000000e+04,4.000000000000000327e-05,2.999999999999999737e-05,1.000000000000000048e-04,1.399999999999999877e-04,9.000000000000000567e-05,-1.000000000000000048e-04,5.999999999999999474e-05,4.000000000000000327e-05,7.000000000000000000e+00,2.700000000000000000e+01
7.656700000000000000e+04,4.000000000000000327e-05,2.999999999999999737e-05,1.000000000000000048e-04,1.399999999999999877e-04,9.000000000000000567e-05,-1.000000000000000048e-04,5.999999999999999474e-05,4.000000000000000327e-05,7.000000000000000000e+00,2.700000000000000000e+01
7.656800000000000000e+04,4.000000000000000327e-05,2.999999999999999737e-05,1.000000000000000048e-04,1.399999999999999877e-04,9.000000000000000567e-05,-1.000000000000000048e-04,5.999999999999999474e-05,4.000000000000000327e-05,7.000000000000000000e+00,2.700000000000000000e+01
7.656900000000000000e+04,4.000000000000000327e-05,2.999999999999999737e-05,1.000000000000000048e-04,1.399999999999999877e-04,9.000000000000000567e-05,-1.000000000000000048e-04,5.999999999999999474e-05,4.000000000000000327e-05,7.000000000000000000e+00,2.700000000000000000e+01
7.657000000000000000e+04,-2.999999999999999737e-05,-4.000000000000000327e-05,-1.000000000000000082e-05,2.000000000000000164e-05,5.999999999999999474e-05,5.999999999999999474e-05,-5.999999999999999474e-05,1.800000000000000113e-04,7.000000000000000000e+00,2.700000000000000000e+01
7.657100000000000000e+04,2.999999999999999737e-05,-2.999999999999999737e-05,-4.000000000000000327e-05,-6.999999999999999387e-05,-5.000000000000000240e-05,-5.000000000000000240e-05,-9.000000000000000567e-05,1.800000000000000113e-04,7.000000000000000000e+00,2.700000000000000000e+01
7.657200000000000000e+04,2.999999999999999737e-05,-2.999999999999999737e-05,-4.000000000000000327e-05,-6.999999999999999387e-05,-5.000000000000000240e-05,-5.000000000000000240e-05,-9.000000000000000567e-05,1.800000000000000113e-04,7.000000000000000000e+00,2.700000000000000000e+01
7.657300000000000000e+04,2.999999999999999737e-05,-2.999999999999999737e-05,-4.000000000000000327e-05,-6.999999999999999387e-05,-5.000000000000000240e-05,-5.000000000000000240e-05,-9.000000000000000567e-05,1.800000000000000113e-04,7.000000000000000000e+00,2.700000000000000000e+01
7.657400000000000000e+04,2.999999999999999737e-05,-2.999999999999999737e-05,-4.000000000000000327e-05,-6.999999999999999387e-05,-5.000000000000000240e-05,-5.000000000000000240e-05,-9.000000000000000567e-05,1.800000000000000113e-04,7.000000000000000000e+00,2.700000000000000000e+01
7.657500000000000000e+04,2.999999999999999737e-05,-2.999999999999999737e-05,-4.000000000000000327e-05,-6.999999999999999387e-05,-5.000000000000000240e-05,-5.000000000000000240e-05,-9.000000000000000567e-05,1.800000000000000113e-04,7.000000000000000000e+00,2.700000000000000000e+01
7.657600000000000000e+04,2.999999999999999737e-05,-2.999999999999999737e-05,-4.000000000000000327e-05,-6.999999999999999387e-05,-5.000000000000000240e-05,-5.000000000000000240e-05,-9.000000000000000567e-05,1.800000000000000113e-04,7.000000000000000000e+00,2.700000000000000000e+01
7.657700000000000000e+04,2.999999999999999737e-05,-2.999999999999999737e-05,-4.000000000000000327e-05,-6.999999999999999387e-05,-5.000000000000000240e-05,-5.000000000000000240e-05,-9.000000000000000567e-05,1.800000000000000113e-04,7.000000000000000000e+00,2.700000000000000000e+01
7.657800000000000000e+04,2.999999999999999737e-05,-2.999999999999999737e-05,-4.000000000000000327e-05,-6.999999999999999387e-05,-5.000000000000000240e-05,-5.000000000000000240e-05,-9.000000000000000567e-05,1.800000000000000113e-04,7.000000000000000000e+00,2.700000000000000000e+01
7.657900000000000000e+04,2.999999999999999737e-05,-2.999999999999999737e-05,-4.000000000000000327e-05,-6.999999999999999387e-05,-5.000000000000000240e-05,-5.000000000000000240e-05,-9.000000000000000567e-05,1.800000000000000113e-04,7.000000000000000000e+00,2.700000000000000000e+01
7.658000000000000000e+04,2.999999999999999737e-05,-2.999999999999999737e-05,-4.000000000000000327e-05,-6.999999999999999387e-05,-5.000000000000000240e-05,-5.000000000000000240e-05,-9.000000000000000567e-05,1.800000000000000113e-04,7.000000000000000000e+00,2.700000000000000000e+01
7.658100000000000000e+04,2.999999999999999737e-05,-2.999999999999999737e-05,-4.000000000000000327e-05,-6.999999999999999387e-05,-5.000000000000000240e-05,-5.000000000000000240e-05,-9.000000000000000567e-05,1.800000000000000113e-04,7.000000000000000000e+00,2.700000000000000000e+01
7.658200000000000000e+04,2.999999999999999737e-05,-2.999999999999999737e-05,-4.000000000000000327e-05,-6.999999999999999387e-05,-5.000000000000000240e-05,-5.000000000000000240e-05,-9.000000000000000567e-05,1.800000000000000113e-04,7.000000000000000000e+00,2.700000000000000000e+01
7.658300000000000000e+04,2.999999999999999737e-05,-2.999999999999999737e-05,-4.000000000000000327e-05,-6.999999999999999387e-05,-5.000000000000000240e-05,-5.000000000000000240e-05,-9.000000000000000567e-05,1.800000000000000113e-04,7.000000000000000000e+00,2.700000000000000000e+01
7.658400000000000000e+04,2.999999999999999737e-05,-2.999999999999999737e-05,-4.000000000000000327e-05,-6.999999999999999387e-05,-5.000000000000000240e-05,-5.000000000000000240e-05,-9.000000000000000567e-05,1.800000000000000113e-04,7.000000000000000000e+00,2.700000000000000000e+01
7.658500000000000000e+04,2.999999999999999737e-05,-2.999999999999999737e-05,-4.000000000000000327e-05,-6.999999999999999387e-05,-5.000000000000000240e-05,-5.000000000000000240e-05,-9.000000000000000567e-05,1.800000000000000113e-04,7.000000000000000000e+00,2.700000000000000000e+01
7.658600000000000000e+04,2.999999999999999737e-05,-2.999999999999999737e-05,-4.000000000000000327e-05,-6.999999999999999387e-05,-5.000000000000000240e-05,-5.000000000000000240e-05,-9.000000000000000567e-05,1.800000000000000113e-04,7.000000000000000000e+00,2.700000000000000000e+01
7.658800000000000000e+04,2.999999999999999737e-05,-2.999999999999999737e-05,-4.000000000000000327e-05,-6.999999999999999387e-05,-5.000000000000000240e-05,-5.000000000000000240e-05,-9.000000000000000567e-05,1.800000000000000113e-04,7.000000000000000000e+00,2.700000000000000000e+01
7.658900000000000000e+04,2.999999999999999737e-05,-2.999999999999999737e-05,-4.000000000000000327e-05,-6.999999999999999387e-05,-5.000000000000000240e-05,-5.000000000000000240e-05,-9.000000000000000567e-05,1.800000000000000113e-04,7.000000000000000000e+00,2.700000000000000000e+01
7.659000000000000000e+04,2.999999999999999737e-05,-2.999999999999999737e-05,-4.000000000000000327e-05,-6.999999999999999387e-05,-5.000000000000000240e-05,-5.000000000000000240e-05,-9.000000000000000567e-05,1.800000000000000113e-04,7.000000000000000000e+00,2.700000000000000000e+01
7.659100000000000000e+04,2.999999999999999737e-05,-2.999999999999999737e-05,-4.000000000000000327e-05,-6.999999999999999387e-05,-5.000000000000000240e-05,-5.000000000000000240e-05,-9.000000000000000567e-05,1.800000000000000113e-04,7.000000000000000000e+00,2.700000000000000000e+01
7.659200000000000000e+04,1.000000000000000082e-05,-4.000000000000000327e-05,-6.999999999999999387e-05,-1.699999999999999851e-04,-1.499999999999999869e-04,-1.699999999999999851e-04,-9.000000000000000567e-05,1.000000000000000048e-04,7.000000000000000000e+00,2.700000000000000000e+01
7.659300000000000000e+04,1.000000000000000082e-05,-4.000000000000000327e-05,-6.999999999999999387e-05,-1.699999999999999851e-04,-1.499999999999999869e-04,-1.699999999999999851e-04,-9.000000000000000567e-05,1.000000000000000048e-04,7.000000000000000000e+00,2.700000000000000000e+01
7.659400000000000000e+04,1.000000000000000082e-05,5.000000000000000240e-05,1.199999999999999895e-04,6.999999999999999387e-05,-4.000000000000000327e-05,3.299999999999999982e-04,-2.999999999999999737e-05,-5.000000000000000240e-05,7.000000000000000000e+00,2.700000000000000000e+01
7.659500000000000000e+04,1.000000000000000082e-05,5.000000000000000240e-05,1.199999999999999895e-04,6.999999999999999387e-05,-4.000000000000000327e-05,3.299999999999999982e-04,-2.999999999999999737e-05,-5.000000000000000240e-05,7.000000000000000000e+00,2.700000000000000000e+01
7.659600000000000000e+04,1.000000000000000082e-05,5.000000000000000240e-05,1.199999999999999895e-04,6.999999999999999387e-05,-4.000000000000000327e-05,3.299999999999999982e-04,-2.999999999999999737e-05,-5.000000000000000240e-05,7.000000000000000000e+00,2.700000000000000000e+01
7.659700000000000000e+04,1.000000000000000082e-05,5.000000000000000240e-05,1.199999999999999895e-04,6.999999999999999387e-05,-4.000000000000000327e-05,3.299999999999999982e-04,-2.999999999999999737e-05,-5.000000000000000240e-05,7.000000000000000000e+00,2.700000000000000000e+01
7.659800000000000000e+04,1.000000000000000082e-05,5.000000000000000240e-05,1.199999999999999895e-04,6.999999999999999387e-05,-4.000000000000000327e-05,3.299999999999999982e-04,-2.999999999999999737e-05,-5.000000000000000240e-05,7.000000000000000000e+00,2.700000000000000000e+01
7.659900000000000000e+04,1.000000000000000082e-05,5.000000000000000240e-05,1.199999999999999895e-04,6.999999999999999387e-05,-4.000000000000000327e-05,3.299999999999999982e-04,-2.999999999999999737e-05,-5.000000000000000240e-05,7.000000000000000000e+00,2.700000000000000000e+01
7.660000000000000000e+04,1.000000000000000082e-05,5.000000000000000240e-05,1.199999999999999895e-04,6.999999999999999387e-05,-4.000000000000000327e-05,3.299999999999999982e-04,-2.999999999999999737e-05,-5.000000000000000240e-05,7.000000000000000000e+00,2.700000000000000000e+01
7.660100000000000000e+04,1.000000000000000082e-05,5.000000000000000240e-05,1.199999999999999895e-04,6.999999999999999387e-05,-4.000000000000000327e-05,3.299999999999999982e-04,-2.999999999999999737e-05,-5.000000000000000240e-05,7.000000000000000000e+00,2.700000000000000000e+01
7.660200000000000000e+04,1.000000000000000082e-05,5.000000000000000240e-05,1.199999999999999895e-04,6.999999999999999387e-05,-4.000000000000000327e-05,3.299999999999999982e-04,-2.999999999999999737e-05,-5.000000000000000240e-05,7.000000000000000000e+00,2.700000000000000000e+01
7.660300000000000000e+04,1.000000000000000082e-05,5.000000000000000240e-05,1.199999999999999895e-04,6.999999999999999387e-05,-4.000000000000000327e-05,3.299999999999999982e-04,-2.999999999999999737e-05,-5.000000000000000240e-05,7.000000000000000000e+00,2.700000000000000000e+01
7.660400000000000000e+04,1.000000000000000082e-05,5.000000000000000240e-05,1.199999999999999895e-04,6.999999999999999387e-05,-4.000000000000000327e-05,3.299999999999999982e-04,-2.999999999999999737e-05,-5.000000000000000240e-05,7.000000000000000000e+00,2.700000000000000000e+01
7.660500000000000000e+04,1.000000000000000082e-05,5.000000000000000240e-05,1.199999999999999895e-04,6.999999999999999387e-05,-4.000000000000000327e-05,3.299999999999999982e-04,-2.999999999999999737e-05,-5.000000000000000240e-05,7.000000000000000000e+00,2.700000000000000000e+01
7.660600000000000000e+04,-2.000000000000000164e-05,-2.999999999999999737e-05,-1.100000000000000039e-04,-5.999999999999999474e-05,-2.000000000000000164e-05,-1.899999999999999834e-04,5.000000000000000240e-05,9.000000000000000567e-05,7.000000000000000000e+00,2.700000000000000000e+01
7.660700000000000000e+04,0.000000000000000000e+00,-5.999999999999999474e-05,-5.000000000000000240e-05,2.999999999999999737e-05,-2.000000000000000096e-04,-3.699999999999999947e-04,-2.000000000000000164e-05,-2.000000000000000164e-05,7.000000000000000000e+00,2.700000000000000000e+01
7.660800000000000000e+04,0.000000000000000000e+00,-5.999999999999999474e-05,-5.000000000000000240e-05,2.999999999999999737e-05,-2.000000000000000096e-04,-3.699999999999999947e-04,-2.000000000000000164e-05,-2.000000000000000164e-05,7.000000000000000000e+00,2.700000000000000000e+01
7.660900000000000000e+04,0.000000000000000000e+00,-5.999999999999999474e-05,-5.000000000000000240e-05,2.999999999999999737e-05,-2.000000000000000096e-04,-3.699999999999999947e-04,-2.000000000000000164e-05,-2.000000000000000164e-05,7.000000000000000000e+00,2.700000000000000000e+01
7.661000000000000000e+04,0.000000000000000000e+00,-5.999999999999999474e-05,-5.000000000000000240e-05,2.999999999999999737e-05,-2.000000000000000096e-04,-3.699999999999999947e-04,-2.000000000000000164e-05,-2.000000000000000164e-05,7.000000000000000000e+00,2.700000000000000000e+01
7.661100000000000000e+04,0.000000000000000000e+00,-5.999999999999999474e-05,-5.000000000000000240e-05,2.999999999999999737e-05,-2.000000000000000096e-04,-3.699999999999999947e-04,-2.000000000000000164e-05,-2.000000000000000164e-05,7.000000000000000000e+00,2.700000000000000000e+01
7.661200000000000000e+04,0.000000000000000000e+00,-5.999999999999999474e-05,-5.000000000000000240e-05,2.999999999999999737e-05,-2.000000000000000096e-04,-3.699999999999999947e-04,-2.000000000000000164e-05,-2.000000000000000164e-05,7.000000000000000000e+00,2.700000000000000000e+01
7.661300000000000000e+04,0.000000000000000000e+00,-5.999999999999999474e-05,-5.000000000000000240e-05,2.999999999999999737e-05,-2.000000000000000096e-04,-3.699999999999999947e-04,-2.000000000000000164e-05,-2.000000000000000164e-05,7.000000000000000000e+00,2.700000000000000000e+01
7.661400000000000000e+04,0.000000000000000000e+00,-5.999999999999999474e-05,-5.000000000000000240e-05,2.999999999999999737e-05,-2.000000000000000096e-04,-3.699999999999999947e-04,-2.000000000000000164e-05,-2.000000000000000164e-05,7.000000000000000000e+00,2.700000000000000000e+01
7.661500000000000000e+04,-4.000000000000000327e-05,0.000000000000000000e+00,-1.000000000000000082e-05,-8.000000000000000654e-05,-1.399999999999999877e-04,8.000000000000000654e-05,-2.000000000000000164e-05,1.000000000000000082e-05,7.000000000000000000e+00,2.700000000000000000e+01
7.661600000000000000e+04,-4.000000000000000327e-05,0.000000000000000000e+00,-1.000000000000000082e-05,-8.000000000000000654e-05,-1.399999999999999877e-04,8.000000000000000654e-05,-2.000000000000000164e-05,1.000000000000000082e-05,7.000000000000000000e+00,2.700000000000000000e+01
7.661700000000000000e+04,-4.000000000000000327e-05,0.000000000000000000e+00,-1.000000000000000082e-05,-8.000000000000000654e-05,-1.399999999999999877e-04,8.000000000000000654e-05,-2.000000000000000164e-05,1.000000000000000082e-05,7.000000000000000000e+00,2.700000000000000000e+01
7.661800000000000000e+04,-4.000000000000000327e-05,0.000000000000000000e+00,-1.000000000000000082e-05,-8.000000000000000654e-05,-1.399999999999999877e-04,8.000000000000000654e-05,-2.000000000000000164e-05,1.000000000000000082e-05,7.000000000000000000e+00,2.700000000000000000e+01
7.661900000000000000e+04,-4.000000000000000327e-05,0.000000000000000000e+00,-1.000000000000000082e-05,-8.000000000000000654e-05,-1.399999999999999877e-04,8.000000000000000654e-05,-2.000000000000000164e-05,1.000000000000000082e-05,7.000000000000000000e+00,2.700000000000000000e+01
7.662000000000000000e+04,-4.000000000000000327e-05,0.000000000000000000e+00,-1.000000000000000082e-05,-8.000000000000000654e-05,-1.399999999999999877e-04,8.000000000000000654e-05,-2.000000000000000164e-05,1.000000000000000082e-05,7.000000000000000000e+00,2.700000000000000000e+01
7.662100000000000000e+04,-4.000000000000000327e-05,0.000000000000000000e+00,-1.000000000000000082e-05,-8.000000000000000654e-05,-1.399999999999999877e-04,8.000000000000000654e-05,-2.000000000000000164e-05,1.000000000000000082e-05,7.000000000000000000e+00,2.700000000000000000e+01
7.662200000000000000e+04,-4.000000000000000327e-05,0.000000000000000000e+00,-1.000000000000000082e-05,-8.000000000000000654e-05,-1.399999999999999877e-04,8.000000000000000654e-05,-2.000000000000000164e-05,1.000000000000000082e-05,7.000000000000000000e+00,2.700000000000000000e+01
7.662300000000000000e+04,-4.000000000000000327e-05,0.000000000000000000e+00,-1.000000000000000082e-05,-8.000000000000000654e-05,-1.399999999999999877e-04,8.000000000000000654e-05,-2.000000000000000164e-05,1.000000000000000082e-05,7.000000000000000000e+00,2.700000000000000000e+01
7.662400000000000000e+04,-4.000000000000000327e-05,0.000000000000000000e+00,-1.000000000000000082e-05,-8.000000000000000654e-05,-1.399999999999999877e-04,8.000000000000000654e-05,-2.000000000000000164e-05,1.000000000000000082e-05,7.000000000000000000e+00,2.700000000000000000e+01
7.662500000000000000e+04,-4.000000000000000327e-05,0.000000000000000000e+00,-1.000000000000000082e-05,-8.000000000000000654e-05,-1.399999999999999877e-04,8.000000000000000654e-05,-2.000000000000000164e-05,1.000000000000000082e-05,7.000000000000000000e+00,2.700000000000000000e+01
7.662600000000000000e+04,-4.000000000000000327e-05,0.000000000000000000e+00,-1.000000000000000082e-05,-8.000000000000000654e-05,-1.399999999999999877e-04,8.000000000000000654e-05,-2.000000000000000164e-05,1.000000000000000082e-05,7.000000000000000000e+00,2.700000000000000000e+01
7.662700000000000000e+04,-4.000000000000000327e-05,0.000000000000000000e+00,-1.000000000000000082e-05,-8.000000000000000654e-05,-1.399999999999999877e-04,8.000000000000000654e-05,-2.000000000000000164e-05,1.000000000000000082e-05,7.000000000000000000e+00,2.700000000000000000e+01
7.662800000000000000e+04,-4.000000000000000327e-05,0.000000000000000000e+00,-1.000000000000000082e-05,-8.000000000000000654e-05,-1.399999999999999877e-04,8.000000000000000654e-05,-2.000000000000000164e-05,1.000000000000000082e-05,7.000000000000000000e+00,2.700000000000000000e+01
7.662900000000000000e+04,-4.000000000000000327e-05,0.000000000000000000e+00,-1.000000000000000082e-05,-8.000000000000000654e-05,-1.399999999999999877e-04,8.000000000000000654e-05,-2.000000000000000164e-05,1.000000000000000082e-05,7.000000000000000000e+00,2.700000000000000000e+01
7.663000000000000000e+04,-4.000000000000000327e-05,-2.999999999999999737e-05,-5.999999999999999474e-05,-3.299999999999999982e-04,-2.999999999999999737e-04,-5.000000000000000240e-05,4.000000000000000327e-05,-1.100000000000000039e-04,7.000000000000000000e+00,2.700000000000000000e+01
7.663100000000000000e+04,-1.000000000000000082e-05,2.000000000000000164e-05,1.399999999999999877e-04,1.300000000000000157e-04,1.399999999999999877e-04,-1.600000000000000131e-04,9.000000000000000567e-05,2.900000000000000017e-04,7.000000000000000000e+00,2.700000000000000000e+01
7.663200000000000000e+04,-1.000000000000000082e-05,2.000000000000000164e-05,1.399999999999999877e-04,1.300000000000000157e-04,1.399999999999999877e-04,-1.600000000000000131e-04,9.000000000000000567e-05,2.900000000000000017e-04,7.000000000000000000e+00,2.700000000000000000e+01
7.663300000000000000e+04,-1.000000000000000082e-05,2.000000000000000164e-05,1.399999999999999877e-04,1.300000000000000157e-04,1.399999999999999877e-04,-1.600000000000000131e-04,9.000000000000000567e-05,2.900000000000000017e-04,7.000000000000000000e+00,2.700000000000000000e+01
7.663400000000000000e+04,-1.000000000000000082e-05,2.000000000000000164e-05,1.399999999999999877e-04,1.300000000000000157e-04,1.399999999999999877e-04,-1.600000000000000131e-04,9.000000000000000567e-05,2.900000000000000017e-04,7.000000000000000000e+00,2.700000000000000000e+01
7.663500000000000000e+04,-1.000000000000000082e-05,2.000000000000000164e-05,1.399999999999999877e-04,1.300000000000000157e-04,1.399999999999999877e-04,-1.600000000000000131e-04,9.000000000000000567e-05,2.900000000000000017e-04,7.000000000000000000e+00,2.700000000000000000e+01
7.663600000000000000e+04,-1.000000000000000082e-05,2.000000000000000164e-05,1.399999999999999877e-04,1.300000000000000157e-04,1.399999999999999877e-04,-1.600000000000000131e-04,9.000000000000000567e-05,2.900000000000000017e-04,7.000000000000000000e+00,2.700000000000000000e+01
7.663800000000000000e+04,-1.000000000000000082e-05,2.000000000000000164e-05,1.399999999999999877e-04,1.300000000000000157e-04,1.399999999999999877e-04,-1.600000000000000131e-04,9.000000000000000567e-05,2.900000000000000017e-04,7.000000000000000000e+00,2.700000000000000000e+01
7.663900000000000000e+04,-1.000000000000000082e-05,2.000000000000000164e-05,1.399999999999999877e-04,1.300000000000000157e-04,1.399999999999999877e-04,-1.600000000000000131e-04,9.000000000000000567e-05,2.900000000000000017e-04,7.000000000000000000e+00,2.700000000000000000e+01
7.664000000000000000e+04,-1.000000000000000082e-05,2.000000000000000164e-05,1.399999999999999877e-04,1.300000000000000157e-04,1.399999999999999877e-04,-1.600000000000000131e-04,9.000000000000000567e-05,2.900000000000000017e-04,7.000000000000000000e+00,2.700000000000000000e+01
7.664100000000000000e+04,-1.000000000000000082e-05,2.000000000000000164e-05,1.399999999999999877e-04,1.300000000000000157e-04,1.399999999999999877e-04,-1.600000000000000131e-04,9.000000000000000567e-05,2.900000000000000017e-04,7.000000000000000000e+00,2.700000000000000000e+01
7.664200000000000000e+04,-1.000000000000000082e-05,2.000000000000000164e-05,1.399999999999999877e-04,1.300000000000000157e-04,1.399999999999999877e-04,-1.600000000000000131e-04,9.000000000000000567e-05,2.900000000000000017e-04,7.000000000000000000e+00,2.700000000000000000e+01
7.664300000000000000e+04,-2.000000000000000164e-05,-2.000000000000000164e-05,1.000000000000000082e-05,-1.199999999999999895e-04,1.600000000000000131e-04,-2.399999999999999790e-04,-2.000000000000000096e-04,-1.800000000000000113e-04,7.000000000000000000e+00,2.700000000000000000e+01
7.664400000000000000e+04,2.000000000000000164e-05,2.000000000000000164e-05,-5.000000000000000240e-05,-1.000000000000000048e-04,-5.699999999999999772e-04,-4.000000000000000327e-05,-6.999999999999999387e-05,-6.999999999999999387e-05,7.000000000000000000e+00,2.700000000000000000e+01
7.664500000000000000e+04,2.000000000000000164e-05,2.000000000000000164e-05,-5.000000000000000240e-05,-1.000000000000000048e-04,-5.699999999999999772e-04,-4.000000000000000327e-05,-6.999999999999999387e-05,-6.999999999999999387e-05,7.000000000000000000e+00,2.700000000000000000e+01
7.664600000000000000e+04,2.000000000000000164e-05,2.000000000000000164e-05,-5.000000000000000240e-05,-1.000000000000000048e-04,-5.699999999999999772e-04,-4.000000000000000327e-05,-6.999999999999999387e-05,-6.999999999999999387e-05,7.000000000000000000e+00,2.700000000000000000e+01
7.664700000000000000e+04,2.000000000000000164e-05,2.000000000000000164e-05,-5.000000000000000240e-05,-1.000000000000000048e-04,-5.699999999999999772e-04,-4.000000000000000327e-05,-6.999999999999999387e-05,-6.999999999999999387e-05,7.000000000000000000e+00,2.700000000000000000e+01
7.664800000000000000e+04,2.000000000000000164e-05,2.000000000000000164e-05,-5.000000000000000240e-05,-1.000000000000000048e-04,-5.699999999999999772e-04,-4.000000000000000327e-05,-6.999999999999999387e-05,-6.999999999999999387e-05,7.000000000000000000e+00,2.700000000000000000e+01
7.664900000000000000e+04,2.000000000000000164e-05,2.000000000000000164e-05,-5.000000000000000240e-05,-1.000000000000000048e-04,-5.699999999999999772e-04,-4.000000000000000327e-05,-6.999999999999999387e-05,-6.999999999999999387e-05,7.000000000000000000e+00,2.700000000000000000e+01
7.665000000000000000e+04,2.000000000000000164e-05,2.000000000000000164e-05,-5.000000000000000240e-05,-1.000000000000000048e-04,-5.699999999999999772e-04,-4.000000000000000327e-05,-6.999999999999999387e-05,-6.999999999999999387e-05,7.000000000000000000e+00,2.700000000000000000e+01
7.665100000000000000e+04,2.000000000000000164e-05,2.000000000000000164e-05,-5.000000000000000240e-05,-1.000000000000000048e-04,-5.699999999999999772e-04,-4.000000000000000327e-05,-6.999999999999999387e-05,-6.999999999999999387e-05,7.000000000000000000e+00,2.700000000000000000e+01
7.665200000000000000e+04,1.000000000000000082e-05,-2.000000000000000164e-05,-5.000000000000000240e-05,2.299999999999999799e-04,2.900000000000000017e-04,0.000000000000000000e+00,1.000000000000000082e-05,2.999999999999999737e-04,7.000000000000000000e+00,2.700000000000000000e+01
7.665300000000000000e+04,1.000000000000000082e-05,-2.000000000000000164e-05,-5.000000000000000240e-05,2.299999999999999799e-04,2.900000000000000017e-04,0.000000000000000000e+00,1.000000000000000082e-05,2.999999999999999737e-04,7.000000000000000000e+00,2.700000000000000000e+01
7.665400000000000000e+04,1.000000000000000082e-05,-2.000000000000000164e-05,-5.000000000000000240e-05,2.299999999999999799e-04,2.900000000000000017e-04,0.000000000000000000e+00,1.000000000000000082e-05,2.999999999999999737e-04,7.000000000000000000e+00,2.700000000000000000e+01
7.665500000000000000e+04,1.000000000000000082e-05,-2.000000000000000164e-05,-5.000000000000000240e-05,2.299999999999999799e-04,2.900000000000000017e-04,0.000000000000000000e+00,1.000000000000000082e-05,2.999999999999999737e-04,7.000000000000000000e+00,2.700000000000000000e+01
7.665600000000000000e+04,1.000000000000000082e-05,-2.000000000000000164e-05,-5.000000000000000240e-05,2.299999999999999799e-04,2.900000000000000017e-04,0.000000000000000000e+00,1.000000000000000082e-05,2.999999999999999737e-04,7.000000000000000000e+00,2.700000000000000000e+01
7.665700000000000000e+04,1.000000000000000082e-05,-2.000000000000000164e-05,-5.000000000000000240e-05,2.299999999999999799e-04,2.900000000000000017e-04,0.000000000000000000e+00,1.000000000000000082e-05,2.999999999999999737e-04,7.000000000000000000e+00,2.700000000000000000e+01
7.665800000000000000e+04,1.000000000000000082e-05,-2.000000000000000164e-05,-5.000000000000000240e-05,2.299999999999999799e-04,2.900000000000000017e-04,0.000000000000000000e+00,1.000000000000000082e-05,2.999999999999999737e-04,7.000000000000000000e+00,2.700000000000000000e+01
7.665900000000000000e+04,1.000000000000000082e-05,-2.000000000000000164e-05,-5.000000000000000240e-05,2.299999999999999799e-04,2.900000000000000017e-04,0.000000000000000000e+00,1.000000000000000082e-05,2.999999999999999737e-04,7.000000000000000000e+00,2.700000000000000000e+01
7.666000000000000000e+04,1.000000000000000082e-05,-2.000000000000000164e-05,-5.000000000000000240e-05,2.299999999999999799e-04,2.900000000000000017e-04,0.000000000000000000e+00,1.000000000000000082e-05,2.999999999999999737e-04,7.000000000000000000e+00,2.700000000000000000e+01
7.666100000000000000e+04,1.000000000000000082e-05,-2.000000000000000164e-05,-5.000000000000000240e-05,2.299999999999999799e-04,2.900000000000000017e-04,0.000000000000000000e+00,1.000000000000000082e-05,2.999999999999999737e-04,7.000000000000000000e+00,2.700000000000000000e+01
7.666200000000000000e+04,1.000000000000000082e-05,-2.000000000000000164e-05,-5.000000000000000240e-05,2.299999999999999799e-04,2.900000000000000017e-04,0.000000000000000000e+00,1.000000000000000082e-05,2.999999999999999737e-04,7.000000000000000000e+00,2.700000000000000000e+01
7.666300000000000000e+04,1.000000000000000082e-05,-2.000000000000000164e-05,-5.000000000000000240e-05,2.299999999999999799e-04,2.900000000000000017e-04,0.000000000000000000e+00,1.000000000000000082e-05,2.999999999999999737e-04,7.000000000000000000e+00,2.700000000000000000e+01
7.666400000000000000e+04,1.000000000000000082e-05,-2.000000000000000164e-05,-5.000000000000000240e-05,2.299999999999999799e-04,2.900000000000000017e-04,0.000000000000000000e+00,1.000000000000000082e-05,2.999999999999999737e-04,7.000000000000000000e+00,2.700000000000000000e+01
7.666500000000000000e+04,1.000000000000000082e-05,-2.000000000000000164e-05,-5.000000000000000240e-05,2.299999999999999799e-04,2.900000000000000017e-04,0.000000000000000000e+00,1.000000000000000082e-05,2.999999999999999737e-04,7.000000000000000000e+00,2.700000000000000000e+01
7.666600000000000000e+04,1.000000000000000082e-05,-2.000000000000000164e-05,-5.000000000000000240e-05,2.299999999999999799e-04,2.900000000000000017e-04,0.000000000000000000e+00,1.000000000000000082e-05,2.999999999999999737e-04,7.000000000000000000e+00,2.700000000000000000e+01
7.666700000000000000e+04,5.999999999999999474e-05,-2.000000000000000164e-05,-2.000000000000000164e-05,4.000000000000000327e-05,-1.000000000000000082e-05,5.000000000000000240e-05,-9.000000000000000567e-05,-4.000000000000000327e-05,7.000000000000000000e+00,2.700000000000000000e+01
7.666800000000000000e+04,5.999999999999999474e-05,-2.000000000000000164e-05,-2.000000000000000164e-05,4.000000000000000327e-05,-1.000000000000000082e-05,5.000000000000000240e-05,-9.000000000000000567e-05,-4.000000000000000327e-05,7.000000000000000000e+00,2.700000000000000000e+01
7.666900000000000000e+04,0.000000000000000000e+00,2.999999999999999737e-05,5.999999999999999474e-05,2.500000000000000052e-04,1.499999999999999869e-04,2.600000000000000314e-04,-6.999999999999999387e-05,-5.999999999999999474e-05,7.000000000000000000e+00,2.700000000000000000e+01
7.667000000000000000e+04,0.000000000000000000e+00,2.999999999999999737e-05,5.999999999999999474e-05,2.500000000000000052e-04,1.499999999999999869e-04,2.600000000000000314e-04,-6.999999999999999387e-05,-5.999999999999999474e-05,7.000000000000000000e+00,2.700000000000000000e+01
7.667100000000000000e+04,0.000000000000000000e+00,2.999999999999999737e-05,5.999999999999999474e-05,2.500000000000000052e-04,1.499999999999999869e-04,2.600000000000000314e-04,-6.999999999999999387e-05,-5.999999999999999474e-05,7.000000000000000000e+00,2.700000000000000000e+01
7.667200000000000000e+04,0.000000000000000000e+00,2.999999999999999737e-05,5.999999999999999474e-05,2.500000000000000052e-04,1.499999999999999869e-04,2.600000000000000314e-04,-6.999999999999999387e-05,-5.999999999999999474e-05,7.000000000000000000e+00,2.700000000000000000e+01
7.667300000000000000e+04,0.000000000000000000e+00,2.999999999999999737e-05,5.999999999999999474e-05,2.500000000000000052e-04,1.499999999999999869e-04,2.600000000000000314e-04,-6.999999999999999387e-05,-5.999999999999999474e-05,7.000000000000000000e+00,2.700000000000000000e+01
7.667400000000000000e+04,0.000000000000000000e+00,2.999999999999999737e-05,5.999999999999999474e-05,2.500000000000000052e-04,1.499999999999999869e-04,2.600000000000000314e-04,-6.999999999999999387e-05,-5.999999999999999474e-05,7.000000000000000000e+00,2.700000000000000000e+01
7.667500000000000000e+04,0.000000000000000000e+00,2.999999999999999737e-05,5.999999999999999474e-05,2.500000000000000052e-04,1.499999999999999869e-04,2.600000000000000314e-04,-6.999999999999999387e-05,-5.999999999999999474e-05,7.000000000000000000e+00,2.700000000000000000e+01
7.667600000000000000e+04,0.000000000000000000e+00,2.999999999999999737e-05,5.999999999999999474e-05,2.500000000000000052e-04,1.499999999999999869e-04,2.600000000000000314e-04,-6.999999999999999387e-05,-5.999999999999999474e-05,7.000000000000000000e+00,2.700000000000000000e+01
7.667700000000000000e+04,0.000000000000000000e+00,2.999999999999999737e-05,5.999999999999999474e-05,2.500000000000000052e-04,1.499999999999999869e-04,2.600000000000000314e-04,-6.999999999999999387e-05,-5.999999999999999474e-05,7.000000000000000000e+00,2.700000000000000000e+01
7.667800000000000000e+04,0.000000000000000000e+00,2.999999999999999737e-05,5.999999999999999474e-05,2.500000000000000052e-04,1.499999999999999869e-04,2.600000000000000314e-04,-6.999999999999999387e-05,-5.999999999999999474e-05,7.000000000000000000e+00,2.700000000000000000e+01
7.667900000000000000e+04,0.000000000000000000e+00,2.999999999999999737e-05,5.999999999999999474e-05,2.500000000000000052e-04,1.499999999999999869e-04,2.600000000000000314e-04,-6.999999999999999387e-05,-5.999999999999999474e-05,7.000000000000000000e+00,2.700000000000000000e+01
7.668000000000000000e+04,0.000000000000000000e+00,2.999999999999999737e-05,5.999999999999999474e-05,2.500000000000000052e-04,1.499999999999999869e-04,2.600000000000000314e-04,-6.999999999999999387e-05,-5.999999999999999474e-05,7.000000000000000000e+00,2.700000000000000000e+01
7.668100000000000000e+04,0.000000000000000000e+00,2.999999999999999737e-05,5.999999999999999474e-05,2.500000000000000052e-04,1.499999999999999869e-04,2.600000000000000314e-04,-6.999999999999999387e-05,-5.999999999999999474e-05,7.000000000000000000e+00,2.700000000000000000e+01
7.668200000000000000e+04,0.000000000000000000e+00,2.999999999999999737e-05,5.999999999999999474e-05,2.500000000000000052e-04,1.499999999999999869e-04,2.600000000000000314e-04,-6.999999999999999387e-05,-5.999999999999999474e-05,7.000000000000000000e+00,2.700000000000000000e+01
7.668300000000000000e+04,0.000000000000000000e+00,2.999999999999999737e-05,5.999999999999999474e-05,2.500000000000000052e-04,1.499999999999999869e-04,2.600000000000000314e-04,-6.999999999999999387e-05,-5.999999999999999474e-05,7.000000000000000000e+00,2.700000000000000000e+01
7.668400000000000000e+04,0.000000000000000000e+00,2.999999999999999737e-05,5.999999999999999474e-05,2.500000000000000052e-04,1.499999999999999869e-04,2.600000000000000314e-04,-6.999999999999999387e-05,-5.999999999999999474e-05,7.000000000000000000e+00,2.700000000000000000e+01
7.668500000000000000e+04,0.000000000000000000e+00,2.999999999999999737e-05,5.999999999999999474e-05,2.500000000000000052e-04,1.499999999999999869e-04,2.600000000000000314e-04,-6.999999999999999387e-05,-5.999999999999999474e-05,7.000000000000000000e+00,2.700000000000000000e+01
7.668600000000000000e+04,0.000000000000000000e+00,2.999999999999999737e-05,5.999999999999999474e-05,2.500000000000000052e-04,1.499999999999999869e-04,2.600000000000000314e-04,-6.999999999999999387e-05,-5.999999999999999474e-05,7.000000000000000000e+00,2.700000000000000000e+01
7.668800000000000000e+04,0.000000000000000000e+00,2.999999999999999737e-05,5.999999999999999474e-05,2.500000000000000052e-04,1.499999999999999869e-04,2.600000000000000314e-04,-6.999999999999999387e-05,-5.999999999999999474e-05,7.000000000000000000e+00,2.700000000000000000e+01
7.668900000000000000e+04,0.000000000000000000e+00,2.999999999999999737e-05,5.999999999999999474e-05,2.500000000000000052e-04,1.499999999999999869e-04,2.600000000000000314e-04,-6.999999999999999387e-05,-5.999999999999999474e-05,7.000000000000000000e+00,2.700000000000000000e+01
7.669000000000000000e+04,-4.000000000000000327e-05,-1.000000000000000082e-05,5.000000000000000240e-05,2.100000000000000087e-04,3.600000000000000227e-04,2.299999999999999799e-04,2.999999999999999737e-05,-2.000000000000000164e-05,7.000000000000000000e+00,2.700000000000000000e+01
7.669100000000000000e+04,-6.999999999999999387e-05,-2.999999999999999737e-05,-2.999999999999999737e-05,-6.999999999999999387e-05,0.000000000000000000e+00,-5.000000000000000240e-05,-9.000000000000000567e-05,-3.899999999999999929e-04,7.000000000000000000e+00,2.700000000000000000e+01
7.669200000000000000e+04,-6.999999999999999387e-05,-2.999999999999999737e-05,-2.999999999999999737e-05,-6.999999999999999387e-05,0.000000000000000000e+00,-5.000000000000000240e-05,-9.000000000000000567e-05,-3.899999999999999929e-04,7.000000000000000000e+00,2.700000000000000000e+01
7.669300000000000000e+04,-6.999999999999999387e-05,-2.999999999999999737e-05,-2.999999999999999737e-05,-6.999999999999999387e-05,0.000000000000000000e+00,-5.000000000000000240e-05,-9.000000000000000567e-05,-3.899999999999999929e-04,7.000000000000000000e+00,2.700000000000000000e+01
7.669400000000000000e+04,-6.999999999999999387e-05,-2.999999999999999737e-05,-2.999999999999999737e-05,-6.999999999999999387e-05,0.000000000000000000e+00,-5.000000000000000240e-05,-9.000000000000000567e-05,-3.899999999999999929e-04,7.000000000000000000e+00,2.700000000000000000e+01
7.669500000000000000e+04,-6.999999999999999387e-05,-2.999999999999999737e-05,-2.999999999999999737e-05,-6.999999999999999387e-05,0.000000000000000000e+00,-5.000000000000000240e-05,-9.000000000000000567e-05,-3.899999999999999929e-04,7.000000000000000000e+00,2.700000000000000000e+01
7.669600000000000000e+04,-6.999999999999999387e-05,-2.999999999999999737e-05,-2.999999999999999737e-05,-6.999999999999999387e-05,0.000000000000000000e+00,-5.000000000000000240e-05,-9.000000000000000567e-05,-3.899999999999999929e-04,7.000000000000000000e+00,2.700000000000000000e+01
7.669700000000000000e+04,-6.999999999999999387e-05,-2.999999999999999737e-05,-2.999999999999999737e-05,-6.999999999999999387e-05,0.000000000000000000e+00,-5.000000000000000240e-05,-9.000000000000000567e-05,-3.899999999999999929e-04,7.000000000000000000e+00,2.700000000000000000e+01
7.669800000000000000e+04,-6.999999999999999387e-05,-2.999999999999999737e-05,-2.999999999999999737e-05,-6.999999999999999387e-05,0.000000000000000000e+00,-5.000000000000000240e-05,-9.000000000000000567e-05,-3.899999999999999929e-04,7.000000000000000000e+00,2.700000000000000000e+01
7.669900000000000000e+04,-6.999999999999999387e-05,-2.999999999999999737e-05,-2.999999999999999737e-05,-6.999999999999999387e-05,0.000000000000000000e+00,-5.000000000000000240e-05,-9.000000000000000567e-05,-3.899999999999999929e-04,7.000000000000000000e+00,2.700000000000000000e+01
7.670000000000000000e+04,-6.999999999999999387e-05,-2.999999999999999737e-05,-2.999999999999999737e-05,-6.999999999999999387e-05,0.000000000000000000e+00,-5.000000000000000240e-05,-9.000000000000000567e-05,-3.899999999999999929e-04,7.000000000000000000e+00,2.700000000000000000e+01
7.670100000000000000e+04,-6.999999999999999387e-05,-2.999999999999999737e-05,-2.999999999999999737e-05,-6.999999999999999387e-05,0.000000000000000000e+00,-5.000000000000000240e-05,-9.000000000000000567e-05,-3.899999999999999929e-04,7.000000000000000000e+00,2.700000000000000000e+01
7.670200000000000000e+04,-6.999999999999999387e-05,-2.999999999999999737e-05,-2.999999999999999737e-05,-6.999999999999999387e-05,0.000000000000000000e+00,-5.000000000000000240e-05,-9.000000000000000567e-05,-3.899999999999999929e-04,7.000000000000000000e+00,2.700000000000000000e+01
7.670300000000000000e+04,0.000000000000000000e+00,5.000000000000000240e-05,4.000000000000000327e-05,1.800000000000000113e-04,3.499999999999999964e-04,5.999999999999999474e-05,-2.000000000000000164e-05,-9.000000000000000567e-05,7.000000000000000000e+00,2.700000000000000000e+01
7.670400000000000000e+04,0.000000000000000000e+00,5.000000000000000240e-05,4.000000000000000327e-05,1.800000000000000113e-04,3.499999999999999964e-04,5.999999999999999474e-05,-2.000000000000000164e-05,-9.000000000000000567e-05,7.000000000000000000e+00,2.700000000000000000e+01
7.670500000000000000e+04,0.000000000000000000e+00,5.000000000000000240e-05,4.000000000000000327e-05,1.800000000000000113e-04,3.499999999999999964e-04,5.999999999999999474e-05,-2.000000000000000164e-05,-9.000000000000000567e-05,7.000000000000000000e+00,2.700000000000000000e+01
7.670600000000000000e+04,0.000000000000000000e+00,5.000000000000000240e-05,4.000000000000000327e-05,1.800000000000000113e-04,3.499999999999999964e-04,5.999999999999999474e-05,-2.000000000000000164e-05,-9.000000000000000567e-05,7.000000000000000000e+00,2.700000000000000000e+01
7.670700000000000000e+04,0.000000000000000000e+00,5.000000000000000240e-05,4.000000000000000327e-05,1.800000000000000113e-04,3.499999999999999964e-04,5.999999999999999474e-05,-2.000000000000000164e-05,-9.000000000000000567e-05,7.000000000000000000e+00,2.700000000000000000e+01
7.670800000000000000e+04,0.000000000000000000e+00,5.000000000000000240e-05,4.000000000000000327e-05,1.800000000000000113e-04,3.499999999999999964e-04,5.999999999999999474e-05,-2.000000000000000164e-05,-9.000000000000000567e-05,7.000000000000000000e+00,2.700000000000000000e+01
7.670900000000000000e+04,0.000000000000000000e+00,5.000000000000000240e-05,4.000000000000000327e-05,1.800000000000000113e-04,3.499999999999999964e-04,5.999999999999999474e-05,-2.000000000000000164e-05,-9.000000000000000567e-05,7.000000000000000000e+00,2.700000000000000000e+01
7.671000000000000000e+04,0.000000000000000000e+00,5.000000000000000240e-05,4.000000000000000327e-05,1.800000000000000113e-04,3.499999999999999964e-04,5.999999999999999474e-05,-2.000000000000000164e-05,-9.000000000000000567e-05,7.000000000000000000e+00,2.700000000000000000e+01
7.671100000000000000e+04,0.000000000000000000e+00,5.000000000000000240e-05,4.000000000000000327e-05,1.800000000000000113e-04,3.499999999999999964e-04,5.999999999999999474e-05,-2.000000000000000164e-05,-9.000000000000000567e-05,7.000000000000000000e+00,2.700000000000000000e+01
7.671200000000000000e+04,-2.000000000000000164e-05,-4.000000000000000327e-05,-1.000000000000000048e-04,-2.000000000000000096e-04,-3.399999999999999702e-04,-1.499999999999999869e-04,-2.000000000000000164e-05,-1.100000000000000039e-04,7.000000000000000000e+00,2.700000000000000000e+01
7.671400000000000000e+04,-2.000000000000000164e-05,-4.000000000000000327e-05,-1.000000000000000048e-04,-2.000000000000000096e-04,-3.399999999999999702e-04,-1.499999999999999869e-04,-2.000000000000000164e-05,-1.100000000000000039e-04,7.000000000000000000e+00,2.700000000000000000e+01
7.671500000000000000e+04,-2.000000000000000164e-05,-4.000000000000000327e-05,-1.000000000000000048e-04,-2.000000000000000096e-04,-3.399999999999999702e-04,-1.499999999999999869e-04,-2.000000000000000164e-05,-1.100000000000000039e-04,7.000000000000000000e+00,2.700000000000000000e+01
7.671600000000000000e+04,-2.000000000000000164e-05,-4.000000000000000327e-05,-1.000000000000000048e-04,-2.000000000000000096e-04,-3.399999999999999702e-04,-1.499999999999999869e-04,-2.000000000000000164e-05,-1.100000000000000039e-04,7.000000000000000000e+00,2.700000000000000000e+01
7.671700000000000000e+04,-2.000000000000000164e-05,-4.000000000000000327e-05,-1.000000000000000048e-04,-2.000000000000000096e-04,-3.399999999999999702e-04,-1.499999999999999869e-04,-2.000000000000000164e-05,-1.100000000000000039e-04,7.000000000000000000e+00,2.700000000000000000e+01
7.671800000000000000e+04,-2.000000000000000164e-05,-4.000000000000000327e-05,-1.000000000000000048e-04,-2.000000000000000096e-04,-3.399999999999999702e-04,-1.499999999999999869e-04,-2.000000000000000164e-05,-1.100000000000000039e-04,7.000000000000000000e+00,2.700000000000000000e+01
7.671900000000000000e+04,-2.000000000000000164e-05,-4.000000000000000327e-05,-1.000000000000000048e-04,-2.000000000000000096e-04,-3.399999999999999702e-04,-1.499999999999999869e-04,-2.000000000000000164e-05,-1.100000000000000039e-04,7.000000000000000000e+00,2.700000000000000000e+01
7.672000000000000000e+04,-2.000000000000000164e-05,-4.000000000000000327e-05,-1.000000000000000048e-04,-2.000000000000000096e-04,-3.399999999999999702e-04,-1.499999999999999869e-04,-2.000000000000000164e-05,-1.100000000000000039e-04,7.000000000000000000e+00,2.700000000000000000e+01
7.672100000000000000e+04,-2.000000000000000164e-05,-4.000000000000000327e-05,-1.000000000000000048e-04,-2.000000000000000096e-04,-3.399999999999999702e-04,-1.499999999999999869e-04,-2.000000000000000164e-05,-1.100000000000000039e-04,7.000000000000000000e+00,2.700000000000000000e+01
7.672200000000000000e+04,-2.000000000000000164e-05,-4.000000000000000327e-05,-1.000000000000000048e-04,-2.000000000000000096e-04,-3.399999999999999702e-04,-1.499999999999999869e-04,-2.000000000000000164e-05,-1.100000000000000039e-04,7.000000000000000000e+00,2.700000000000000000e+01
7.672300000000000000e+04,-2.000000000000000164e-05,-4.000000000000000327e-05,-1.000000000000000048e-04,-2.000000000000000096e-04,-3.399999999999999702e-04,-1.499999999999999869e-04,-2.000000000000000164e-05,-1.100000000000000039e-04,7.000000000000000000e+00,2.700000000000000000e+01
7.672400000000000000e+04,-2.000000000000000164e-05,-4.000000000000000327e-05,-1.000000000000000048e-04,-2.000000000000000096e-04,-3.399999999999999702e-04,-1.499999999999999869e-04,-2.000000000000000164e-05,-1.100000000000000039e-04,7.000000000000000000e+00,2.700000000000000000e+01
7.672500000000000000e+04,-2.000000000000000164e-05,-4.000000000000000327e-05,-1.000000000000000048e-04,-2.000000000000000096e-04,-3.399999999999999702e-04,-1.499999999999999869e-04,-2.000000000000000164e-05,-1.100000000000000039e-04,7.000000000000000000e+00,2.700000000000000000e+01
7.672600000000000000e+04,-2.000000000000000164e-05,-4.000000000000000327e-05,-1.000000000000000048e-04,-2.000000000000000096e-04,-3.399999999999999702e-04,-1.499999999999999869e-04,-2.000000000000000164e-05,-1.100000000000000039e-04,7.000000000000000000e+00,2.700000000000000000e+01
7.672700000000000000e+04,-4.000000000000000327e-05,2.999999999999999737e-05,5.999999999999999474e-05,3.899999999999999929e-04,5.699999999999999772e-04,-6.999999999999999387e-05,1.000000000000000082e-05,-1.100000000000000039e-04,7.000000000000000000e+00,2.700000000000000000e+01
7.672800000000000000e+04,-4.000000000000000327e-05,2.999999999999999737e-05,5.999999999999999474e-05,3.899999999999999929e-04,5.699999999999999772e-04,-6.999999999999999387e-05,1.000000000000000082e-05,-1.100000000000000039e-04,7.000000000000000000e+00,2.700000000000000000e+01
7.672900000000000000e+04,-1.000000000000000082e-05,1.000000000000000082e-05,1.100000000000000039e-04,-3.399999999999999702e-04,-2.299999999999999799e-04,-6.999999999999999387e-05,-8.000000000000000654e-05,-2.700000000000000035e-04,7.000000000000000000e+00,2.700000000000000000e+01
7.673000000000000000e+04,-1.000000000000000082e-05,1.000000000000000082e-05,1.100000000000000039e-04,-3.399999999999999702e-04,-2.299999999999999799e-04,-6.999999999999999387e-05,-8.000000000000000654e-05,-2.700000000000000035e-04,7.000000000000000000e+00,2.700000000000000000e+01
7.673100000000000000e+04,-1.000000000000000082e-05,1.000000000000000082e-05,1.100000000000000039e-04,-3.399999999999999702e-04,-2.299999999999999799e-04,-6.999999999999999387e-05,-8.000000000000000654e-05,-2.700000000000000035e-04,7.000000000000000000e+00,2.700000000000000000e+01
7.673200000000000000e+04,-1.000000000000000082e-05,1.000000000000000082e-05,1.100000000000000039e-04,-3.399999999999999702e-04,-2.299999999999999799e-04,-6.999999999999999387e-05,-8.000000000000000654e-05,-2.700000000000000035e-04,7.000000000000000000e+00,2.700000000000000000e+01
7.673300000000000000e+04,-1.000000000000000082e-05,1.000000000000000082e-05,1.100000000000000039e-04,-3.399999999999999702e-04,-2.299999999999999799e-04,-6.999999999999999387e-05,-8.000000000000000654e-05,-2.700000000000000035e-04,7.000000000000000000e+00,2.700000000000000000e+01
7.673400000000000000e+04,-1.000000000000000082e-05,1.000000000000000082e-05,1.100000000000000039e-04,-3.399999999999999702e-04,-2.299999999999999799e-04,-6.999999999999999387e-05,-8.000000000000000654e-05,-2.700000000000000035e-04,7.000000000000000000e+00,2.700000000000000000e+01
7.673500000000000000e+04,-1.000000000000000082e-05,1.000000000000000082e-05,1.100000000000000039e-04,-3.399999999999999702e-04,-2.299999999999999799e-04,-6.999999999999999387e-05,-8.000000000000000654e-05,-2.700000000000000035e-04,7.000000000000000000e+00,2.700000000000000000e+01
7.673600000000000000e+04,-1.000000000000000082e-05,1.000000000000000082e-05,1.100000000000000039e-04,-3.399999999999999702e-04,-2.299999999999999799e-04,-6.999999999999999387e-05,-8.000000000000000654e-05,-2.700000000000000035e-04,7.000000000000000000e+00,2.700000000000000000e+01
7.673800000000000000e+04,-1.000000000000000082e-05,1.000000000000000082e-05,1.100000000000000039e-04,-3.399999999999999702e-04,-2.299999999999999799e-04,-6.999999999999999387e-05,-8.000000000000000654e-05,-2.700000000000000035e-04,7.000000000000000000e+00,2.700000000000000000e+01
7.673900000000000000e+04,-1.000000000000000082e-05,1.000000000000000082e-05,1.100000000000000039e-04,-3.399999999999999702e-04,-2.299999999999999799e-04,-6.999999999999999387e-05,-8.000000000000000654e-05,-2.700000000000000035e-04,7.000000000000000000e+00,2.700000000000000000e+01
7.674000000000000000e+04,-1.000000000000000082e-05,1.000000000000000082e-05,1.100000000000000039e-04,-3.399999999999999702e-04,-2.299999999999999799e-04,-6.999999999999999387e-05,-8.000000000000000654e-05,-2.700000000000000035e-04,7.000000000000000000e+00,2.700000000000000000e+01
7.674100000000000000e+04,-1.000000000000000082e-05,1.000000000000000082e-05,1.100000000000000039e-04,-3.399999999999999702e-04,-2.299999999999999799e-04,-6.999999999999999387e-05,-8.000000000000000654e-05,-2.700000000000000035e-04,7.000000000000000000e+00,2.700000000000000000e+01
7.674200000000000000e+04,-1.000000000000000082e-05,1.000000000000000082e-05,1.100000000000000039e-04,-3.399999999999999702e-04,-2.299999999999999799e-04,-6.999999999999999387e-05,-8.000000000000000654e-05,-2.700000000000000035e-04,7.000000000000000000e+00,2.700000000000000000e+01
7.674300000000000000e+04,-1.000000000000000082e-05,1.000000000000000082e-05,1.100000000000000039e-04,-3.399999999999999702e-04,-2.299999999999999799e-04,-6.999999999999999387e-05,-8.000000000000000654e-05,-2.700000000000000035e-04,7.000000000000000000e+00,2.700000000000000000e+01
7.674400000000000000e+04,-1.000000000000000082e-05,1.000000000000000082e-05,1.100000000000000039e-04,-3.399999999999999702e-04,-2.299999999999999799e-04,-6.999999999999999387e-05,-8.000000000000000654e-05,-2.700000000000000035e-04,7.000000000000000000e+00,2.700000000000000000e+01
7.674500000000000000e+04,-1.000000000000000082e-05,1.000000000000000082e-05,1.100000000000000039e-04,-3.399999999999999702e-04,-2.299999999999999799e-04,-6.999999999999999387e-05,-8.000000000000000654e-05,-2.700000000000000035e-04,7.000000000000000000e+00,2.700000000000000000e+01
7.674600000000000000e+04,-1.000000000000000082e-05,1.000000000000000082e-05,1.100000000000000039e-04,-3.399999999999999702e-04,-2.299999999999999799e-04,-6.999999999999999387e-05,-8.000000000000000654e-05,-2.700000000000000035e-04,7.000000000000000000e+00,2.700000000000000000e+01
7.674700000000000000e+04,-1.000000000000000082e-05,1.000000000000000082e-05,1.100000000000000039e-04,-3.399999999999999702e-04,-2.299999999999999799e-04,-6.999999999999999387e-05,-8.000000000000000654e-05,-2.700000000000000035e-04,7.000000000000000000e+00,2.700000000000000000e+01
7.674800000000000000e+04,-1.000000000000000082e-05,1.000000000000000082e-05,1.100000000000000039e-04,-3.399999999999999702e-04,-2.299999999999999799e-04,-6.999999999999999387e-05,-8.000000000000000654e-05,-2.700000000000000035e-04,7.000000000000000000e+00,2.700000000000000000e+01
7.674900000000000000e+04,-1.000000000000000082e-05,1.000000000000000082e-05,1.100000000000000039e-04,-3.399999999999999702e-04,-2.299999999999999799e-04,-6.999999999999999387e-05,-8.000000000000000654e-05,-2.700000000000000035e-04,7.000000000000000000e+00,2.700000000000000000e+01
7.675000000000000000e+04,-6.999999999999999387e-05,-9.000000000000000567e-05,-2.100000000000000087e-04,-3.399999999999999702e-04,-3.499999999999999964e-04,-2.000000000000000164e-05,0.000000000000000000e+00,1.100000000000000039e-04,7.000000000000000000e+00,2.700000000000000000e+01
7.675100000000000000e+04,6.999999999999999387e-05,2.999999999999999737e-05,5.000000000000000240e-05,-5.000000000000000240e-05,5.000000000000000240e-05,0.000000000000000000e+00,-6.999999999999999387e-05,-1.499999999999999869e-04,7.000000000000000000e+00,2.700000000000000000e+01
7.675200000000000000e+04,6.999999999999999387e-05,2.999999999999999737e-05,5.000000000000000240e-05,-5.000000000000000240e-05,5.000000000000000240e-05,0.000000000000000000e+00,-6.999999999999999387e-05,-1.499999999999999869e-04,7.000000000000000000e+00,2.700000000000000000e+01
7.675300000000000000e+04,6.999999999999999387e-05,2.999999999999999737e-05,5.000000000000000240e-05,-5.000000000000000240e-05,5.000000000000000240e-05,0.000000000000000000e+00,-6.999999999999999387e-05,-1.499999999999999869e-04,7.000000000000000000e+00,2.700000000000000000e+01
7.675400000000000000e+04,6.999999999999999387e-05,2.999999999999999737e-05,5.000000000000000240e-05,-5.000000000000000240e-05,5.000000000000000240e-05,0.000000000000000000e+00,-6.999999999999999387e-05,-1.499999999999999869e-04,7.000000000000000000e+00,2.700000000000000000e+01
7.675500000000000000e+04,6.999999999999999387e-05,2.999999999999999737e-05,5.000000000000000240e-05,-5.000000000000000240e-05,5.000000000000000240e-05,0.000000000000000000e+00,-6.999999999999999387e-05,-1.499999999999999869e-04,7.000000000000000000e+00,2.700000000000000000e+01
7.675600000000000000e+04,6.999999999999999387e-05,2.999999999999999737e-05,5.000000000000000240e-05,-5.000000000000000240e-05,5.000000000000000240e-05,0.000000000000000000e+00,-6.999999999999999387e-05,-1.499999999999999869e-04,7.000000000000000000e+00,2.700000000000000000e+01
7.675700000000000000e+04,6.999999999999999387e-05,2.999999999999999737e-05,5.000000000000000240e-05,-5.000000000000000240e-05,5.000000000000000240e-05,0.000000000000000000e+00,-6.999999999999999387e-05,-1.499999999999999869e-04,7.000000000000000000e+00,2.700000000000000000e+01
7.675800000000000000e+04,6.999999999999999387e-05,2.999999999999999737e-05,5.000000000000000240e-05,-5.000000000000000240e-05,5.000000000000000240e-05,0.000000000000000000e+00,-6.999999999999999387e-05,-1.499999999999999869e-04,7.000000000000000000e+00,2.700000000000000000e+01
7.675900000000000000e+04,6.999999999999999387e-05,2.999999999999999737e-05,5.000000000000000240e-05,-5.000000000000000240e-05,5.000000000000000240e-05,0.000000000000000000e+00,-6.999999999999999387e-05,-1.499999999999999869e-04,7.000000000000000000e+00,2.700000000000000000e+01
