5.175800000000000000e+04,0.000000000000000000e+00,2.000000000000000164e-05,0.000000000000000000e+00,-8.300000000000001170e-04,-8.000000000000000654e-05,9.000000000000000567e-05,2.000000000000000164e-05,0.000000000000000000e+00,5.000000000000000000e+00,2.100000000000000000e+01
5.176000000000000000e+04,0.000000000000000000e+00,2.000000000000000164e-05,0.000000000000000000e+00,-8.300000000000001170e-04,-8.000000000000000654e-05,9.000000000000000567e-05,2.000000000000000164e-05,0.000000000000000000e+00,5.000000000000000000e+00,2.100000000000000000e+01
5.176100000000000000e+04,-2.000000000000000164e-05,8.000000000000000654e-05,8.000000000000000654e-05,4.899999999999999842e-04,8.000000000000000654e-05,-6.999999999999999387e-05,-5.999999999999999474e-05,-4.000000000000000327e-05,5.000000000000000000e+00,2.100000000000000000e+01
5.176200000000000000e+04,-5.999999999999999474e-05,-1.399999999999999877e-04,-2.999999999999999737e-05,2.999999999999999737e-05,-1.300000000000000157e-04,-6.999999999999999387e-05,1.000000000000000082e-05,-4.000000000000000327e-05,5.000000000000000000e+00,2.100000000000000000e+01
5.176300000000000000e+04,2.000000000000000164e-05,1.199999999999999895e-04,1.199999999999999895e-04,-5.000000000000000240e-05,1.000000000000000048e-04,2.999999999999999737e-05,2.000000000000000164e-05,0.000000000000000000e+00,5.000000000000000000e+00,2.100000000000000000e+01
5.176400000000000000e+04,2.000000000000000164e-05,1.199999999999999895e-04,1.199999999999999895e-04,-5.000000000000000240e-05,1.000000000000000048e-04,2.999999999999999737e-05,2.000000000000000164e-05,0.000000000000000000e+00,5.000000000000000000e+00,2.100000000000000000e+01
5.176500000000000000e+04,2.000000000000000164e-05,1.199999999999999895e-04,1.199999999999999895e-04,-5.000000000000000240e-05,1.000000000000000048e-04,2.999999999999999737e-05,2.000000000000000164e-05,0.000000000000000000e+00,5.000000000000000000e+00,2.100000000000000000e+01
5.176600000000000000e+04,2.000000000000000164e-05,1.199999999999999895e-04,1.199999999999999895e-04,-5.000000000000000240e-05,1.000000000000000048e-04,2.999999999999999737e-05,2.000000000000000164e-05,0.000000000000000000e+00,5.000000000000000000e+00,2.100000000000000000e+01
5.176800000000000000e+04,2.000000000000000164e-05,1.199999999999999895e-04,1.199999999999999895e-04,-5.000000000000000240e-05,1.000000000000000048e-04,2.999999999999999737e-05,2.000000000000000164e-05,0.000000000000000000e+00,5.000000000000000000e+00,2.100000000000000000e+01
5.176900000000000000e+04,2.000000000000000164e-05,1.199999999999999895e-04,1.199999999999999895e-04,-5.000000000000000240e-05,1.000000000000000048e-04,2.999999999999999737e-05,2.000000000000000164e-05,0.000000000000000000e+00,5.000000000000000000e+00,2.100000000000000000e+01
5.177000000000000000e+04,2.000000000000000164e-05,1.199999999999999895e-04,1.199999999999999895e-04,-5.000000000000000240e-05,1.000000000000000048e-04,2.999999999999999737e-05,2.000000000000000164e-05,0.000000000000000000e+00,5.000000000000000000e+00,2.100000000000000000e+01
5.177100000000000000e+04,2.000000000000000164e-05,1.199999999999999895e-04,1.199999999999999895e-04,-5.000000000000000240e-05,1.000000000000000048e-04,2.999999999999999737e-05,2.000000000000000164e-05,0.000000000000000000e+00,5.000000000000000000e+00,2.100000000000000000e+01
5.177200000000000000e+04,2.000000000000000164e-05,1.199999999999999895e-04,1.199999999999999895e-04,-5.000000000000000240e-05,1.000000000000000048e-04,2.999999999999999737e-05,2.000000000000000164e-05,0.000000000000000000e+00,5.000000000000000000e+00,2.100000000000000000e+01
5.177300000000000000e+04,2.000000000000000164e-05,1.199999999999999895e-04,1.199999999999999895e-04,-5.000000000000000240e-05,1.000000000000000048e-04,2.999999999999999737e-05,2.000000000000000164e-05,0.000000000000000000e+00,5.000000000000000000e+00,2.100000000000000000e+01
5.177400000000000000e+04,2.000000000000000164e-05,1.199999999999999895e-04,1.199999999999999895e-04,-5.000000000000000240e-05,1.000000000000000048e-04,2.999999999999999737e-05,2.000000000000000164e-05,0.000000000000000000e+00,5.000000000000000000e+00,2.100000000000000000e+01
5.177500000000000000e+04,2.000000000000000164e-05,1.199999999999999895e-04,1.199999999999999895e-04,-5.000000000000000240e-05,1.000000000000000048e-04,2.999999999999999737e-05,2.000000000000000164e-05,0.000000000000000000e+00,5.000000000000000000e+00,2.100000000000000000e+01
5.177600000000000000e+04,-1.000000000000000082e-05,2.000000000000000164e-05,-4.099999999999999912e-04,-4.200000000000000174e-04,-1.600000000000000131e-04,-8.000000000000000654e-05,-9.000000000000000567e-05,1.000000000000000082e-05,5.000000000000000000e+00,2.100000000000000000e+01
5.177700000000000000e+04,-1.000000000000000082e-05,2.000000000000000164e-05,-4.099999999999999912e-04,-4.200000000000000174e-04,-1.600000000000000131e-04,-8.000000000000000654e-05,-9.000000000000000567e-05,1.000000000000000082e-05,5.000000000000000000e+00,2.100000000000000000e+01
5.177800000000000000e+04,5.000000000000000240e-05,8.000000000000000654e-05,3.600000000000000227e-04,4.400000000000000157e-04,1.300000000000000157e-04,2.000000000000000164e-05,4.000000000000000327e-05,-4.000000000000000327e-05,5.000000000000000000e+00,2.100000000000000000e+01
5.177900000000000000e+04,5.000000000000000240e-05,8.000000000000000654e-05,3.600000000000000227e-04,4.400000000000000157e-04,1.300000000000000157e-04,2.000000000000000164e-05,4.000000000000000327e-05,-4.000000000000000327e-05,5.000000000000000000e+00,2.100000000000000000e+01
5.178000000000000000e+04,5.000000000000000240e-05,8.000000000000000654e-05,3.600000000000000227e-04,4.400000000000000157e-04,1.300000000000000157e-04,2.000000000000000164e-05,4.000000000000000327e-05,-4.000000000000000327e-05,5.000000000000000000e+00,2.100000000000000000e+01
5.178100000000000000e+04,5.000000000000000240e-05,8.000000000000000654e-05,3.600000000000000227e-04,4.400000000000000157e-04,1.300000000000000157e-04,2.000000000000000164e-05,4.000000000000000327e-05,-4.000000000000000327e-05,5.000000000000000000e+00,2.100000000000000000e+01
5.178200000000000000e+04,5.000000000000000240e-05,8.000000000000000654e-05,3.600000000000000227e-04,4.400000000000000157e-04,1.300000000000000157e-04,2.000000000000000164e-05,4.000000000000000327e-05,-4.000000000000000327e-05,5.000000000000000000e+00,2.100000000000000000e+01
5.178300000000000000e+04,5.000000000000000240e-05,8.000000000000000654e-05,3.600000000000000227e-04,4.400000000000000157e-04,1.300000000000000157e-04,2.000000000000000164e-05,4.000000000000000327e-05,-4.000000000000000327e-05,5.000000000000000000e+00,2.100000000000000000e+01
5.178400000000000000e+04,5.000000000000000240e-05,8.000000000000000654e-05,3.600000000000000227e-04,4.400000000000000157e-04,1.300000000000000157e-04,2.000000000000000164e-05,4.000000000000000327e-05,-4.000000000000000327e-05,5.000000000000000000e+00,2.100000000000000000e+01
5.178500000000000000e+04,5.000000000000000240e-05,8.000000000000000654e-05,3.600000000000000227e-04,4.400000000000000157e-04,1.300000000000000157e-04,2.000000000000000164e-05,4.000000000000000327e-05,-4.000000000000000327e-05,5.000000000000000000e+00,2.100000000000000000e+01
5.178600000000000000e+04,5.000000000000000240e-05,8.000000000000000654e-05,3.600000000000000227e-04,4.400000000000000157e-04,1.300000000000000157e-04,2.000000000000000164e-05,4.000000000000000327e-05,-4.000000000000000327e-05,5.000000000000000000e+00,2.100000000000000000e+01
5.178800000000000000e+04,5.000000000000000240e-05,8.000000000000000654e-05,3.600000000000000227e-04,4.400000000000000157e-04,1.300000000000000157e-04,2.000000000000000164e-05,4.000000000000000327e-05,-4.000000000000000327e-05,5.000000000000000000e+00,2.100000000000000000e+01
5.178900000000000000e+04,5.000000000000000240e-05,8.000000000000000654e-05,3.600000000000000227e-04,4.400000000000000157e-04,1.300000000000000157e-04,2.000000000000000164e-05,4.000000000000000327e-05,-4.000000000000000327e-05,5.000000000000000000e+00,2.100000000000000000e+01
5.179000000000000000e+04,5.000000000000000240e-05,8.000000000000000654e-05,3.600000000000000227e-04,4.400000000000000157e-04,1.300000000000000157e-04,2.000000000000000164e-05,4.000000000000000327e-05,-4.000000000000000327e-05,5.000000000000000000e+00,2.100000000000000000e+01
5.179100000000000000e+04,5.000000000000000240e-05,8.000000000000000654e-05,3.600000000000000227e-04,4.400000000000000157e-04,1.300000000000000157e-04,2.000000000000000164e-05,4.000000000000000327e-05,-4.000000000000000327e-05,5.000000000000000000e+00,2.100000000000000000e+01
5.179200000000000000e+04,5.000000000000000240e-05,8.000000000000000654e-05,3.600000000000000227e-04,4.400000000000000157e-04,1.300000000000000157e-04,2.000000000000000164e-05,4.000000000000000327e-05,-4.000000000000000327e-05,5.000000000000000000e+00,2.100000000000000000e+01
5.179300000000000000e+04,5.000000000000000240e-05,8.000000000000000654e-05,3.600000000000000227e-04,4.400000000000000157e-04,1.300000000000000157e-04,2.000000000000000164e-05,4.000000000000000327e-05,-4.000000000000000327e-05,5.000000000000000000e+00,2.100000000000000000e+01
5.179400000000000000e+04,5.000000000000000240e-05,8.000000000000000654e-05,3.600000000000000227e-04,4.400000000000000157e-04,1.300000000000000157e-04,2.000000000000000164e-05,4.000000000000000327e-05,-4.000000000000000327e-05,5.000000000000000000e+00,2.100000000000000000e+01
5.179500000000000000e+04,5.000000000000000240e-05,8.000000000000000654e-05,3.600000000000000227e-04,4.400000000000000157e-04,1.300000000000000157e-04,2.000000000000000164e-05,4.000000000000000327e-05,-4.000000000000000327e-05,5.000000000000000000e+00,2.100000000000000000e+01
5.179600000000000000e+04,5.000000000000000240e-05,8.000000000000000654e-05,3.600000000000000227e-04,4.400000000000000157e-04,1.300000000000000157e-04,2.000000000000000164e-05,4.000000000000000327e-05,-4.000000000000000327e-05,5.000000000000000000e+00,2.100000000000000000e+01
5.179700000000000000e+04,5.000000000000000240e-05,8.000000000000000654e-05,3.600000000000000227e-04,4.400000000000000157e-04,1.300000000000000157e-04,2.000000000000000164e-05,4.000000000000000327e-05,-4.000000000000000327e-05,5.000000000000000000e+00,2.100000000000000000e+01
5.179800000000000000e+04,5.000000000000000240e-05,8.000000000000000654e-05,3.600000000000000227e-04,4.400000000000000157e-04,1.300000000000000157e-04,2.000000000000000164e-05,4.000000000000000327e-05,-4.000000000000000327e-05,5.000000000000000000e+00,2.100000000000000000e+01
5.179900000000000000e+04,-1.000000000000000082e-05,0.000000000000000000e+00,-6.599999999999999964e-04,-3.200000000000000262e-04,1.100000000000000039e-04,2.999999999999999737e-05,-6.999999999999999387e-05,-5.000000000000000240e-05,5.000000000000000000e+00,2.100000000000000000e+01
5.180000000000000000e+04,-1.000000000000000082e-05,0.000000000000000000e+00,-6.599999999999999964e-04,-3.200000000000000262e-04,1.100000000000000039e-04,2.999999999999999737e-05,-6.999999999999999387e-05,-5.000000000000000240e-05,5.000000000000000000e+00,2.100000000000000000e+01
5.180100000000000000e+04,2.999999999999999737e-05,-1.000000000000000082e-05,1.800000000000000113e-04,6.900000000000000751e-04,1.100000000000000039e-04,6.999999999999999387e-05,4.000000000000000327e-05,1.000000000000000082e-05,5.000000000000000000e+00,2.100000000000000000e+01
5.180200000000000000e+04,2.999999999999999737e-05,-1.000000000000000082e-05,1.800000000000000113e-04,6.900000000000000751e-04,1.100000000000000039e-04,6.999999999999999387e-05,4.000000000000000327e-05,1.000000000000000082e-05,5.000000000000000000e+00,2.100000000000000000e+01
5.180300000000000000e+04,2.999999999999999737e-05,-1.000000000000000082e-05,1.800000000000000113e-04,6.900000000000000751e-04,1.100000000000000039e-04,6.999999999999999387e-05,4.000000000000000327e-05,1.000000000000000082e-05,5.000000000000000000e+00,2.100000000000000000e+01
5.180400000000000000e+04,2.999999999999999737e-05,-1.000000000000000082e-05,1.800000000000000113e-04,6.900000000000000751e-04,1.100000000000000039e-04,6.999999999999999387e-05,4.000000000000000327e-05,1.000000000000000082e-05,5.000000000000000000e+00,2.100000000000000000e+01
5.180500000000000000e+04,2.999999999999999737e-05,-1.000000000000000082e-05,1.800000000000000113e-04,6.900000000000000751e-04,1.100000000000000039e-04,6.999999999999999387e-05,4.000000000000000327e-05,1.000000000000000082e-05,5.000000000000000000e+00,2.100000000000000000e+01
5.180600000000000000e+04,2.999999999999999737e-05,-1.000000000000000082e-05,1.800000000000000113e-04,6.900000000000000751e-04,1.100000000000000039e-04,6.999999999999999387e-05,4.000000000000000327e-05,1.000000000000000082e-05,5.000000000000000000e+00,2.100000000000000000e+01
5.180700000000000000e+04,2.999999999999999737e-05,-1.000000000000000082e-05,1.800000000000000113e-04,6.900000000000000751e-04,1.100000000000000039e-04,6.999999999999999387e-05,4.000000000000000327e-05,1.000000000000000082e-05,5.000000000000000000e+00,2.100000000000000000e+01
5.180800000000000000e+04,2.999999999999999737e-05,-1.000000000000000082e-05,1.800000000000000113e-04,6.900000000000000751e-04,1.100000000000000039e-04,6.999999999999999387e-05,4.000000000000000327e-05,1.000000000000000082e-05,5.000000000000000000e+00,2.100000000000000000e+01
5.180900000000000000e+04,2.999999999999999737e-05,-1.000000000000000082e-05,1.800000000000000113e-04,6.900000000000000751e-04,1.100000000000000039e-04,6.999999999999999387e-05,4.000000000000000327e-05,1.000000000000000082e-05,5.000000000000000000e+00,2.100000000000000000e+01
5.181000000000000000e+04,2.999999999999999737e-05,-1.000000000000000082e-05,1.800000000000000113e-04,6.900000000000000751e-04,1.100000000000000039e-04,6.999999999999999387e-05,4.000000000000000327e-05,1.000000000000000082e-05,5.000000000000000000e+00,2.100000000000000000e+01
5.181100000000000000e+04,2.999999999999999737e-05,-1.000000000000000082e-05,1.800000000000000113e-04,6.900000000000000751e-04,1.100000000000000039e-04,6.999999999999999387e-05,4.000000000000000327e-05,1.000000000000000082e-05,5.000000000000000000e+00,2.100000000000000000e+01
5.181200000000000000e+04,2.999999999999999737e-05,-1.000000000000000082e-05,1.800000000000000113e-04,6.900000000000000751e-04,1.100000000000000039e-04,6.999999999999999387e-05,4.000000000000000327e-05,1.000000000000000082e-05,5.000000000000000000e+00,2.100000000000000000e+01
5.181300000000000000e+04,2.999999999999999737e-05,-1.000000000000000082e-05,1.800000000000000113e-04,6.900000000000000751e-04,1.100000000000000039e-04,6.999999999999999387e-05,4.000000000000000327e-05,1.000000000000000082e-05,5.000000000000000000e+00,2.100000000000000000e+01
5.181400000000000000e+04,2.999999999999999737e-05,1.100000000000000039e-04,1.899999999999999834e-04,-2.200000000000000078e-04,2.000000000000000164e-05,2.000000000000000164e-05,-6.999999999999999387e-05,-5.999999999999999474e-05,5.000000000000000000e+00,2.100000000000000000e+01
5.181500000000000000e+04,-4.000000000000000327e-05,-1.000000000000000082e-05,-2.500000000000000052e-04,3.499999999999999964e-04,-9.000000000000000567e-05,-8.000000000000000654e-05,0.000000000000000000e+00,-5.000000000000000240e-05,5.000000000000000000e+00,2.100000000000000000e+01
5.181600000000000000e+04,-4.000000000000000327e-05,-1.000000000000000082e-05,-2.500000000000000052e-04,3.499999999999999964e-04,-9.000000000000000567e-05,-8.000000000000000654e-05,0.000000000000000000e+00,-5.000000000000000240e-05,5.000000000000000000e+00,2.100000000000000000e+01
5.181700000000000000e+04,-4.000000000000000327e-05,-1.000000000000000082e-05,-2.500000000000000052e-04,3.499999999999999964e-04,-9.000000000000000567e-05,-8.000000000000000654e-05,0.000000000000000000e+00,-5.000000000000000240e-05,5.000000000000000000e+00,2.100000000000000000e+01
5.181800000000000000e+04,-4.000000000000000327e-05,-1.000000000000000082e-05,-2.500000000000000052e-04,3.499999999999999964e-04,-9.000000000000000567e-05,-8.000000000000000654e-05,0.000000000000000000e+00,-5.000000000000000240e-05,5.000000000000000000e+00,2.100000000000000000e+01
5.181900000000000000e+04,-4.000000000000000327e-05,-1.000000000000000082e-05,-2.500000000000000052e-04,3.499999999999999964e-04,-9.000000000000000567e-05,-8.000000000000000654e-05,0.000000000000000000e+00,-5.000000000000000240e-05,5.000000000000000000e+00,2.100000000000000000e+01
5.182000000000000000e+04,-4.000000000000000327e-05,-1.000000000000000082e-05,-2.500000000000000052e-04,3.499999999999999964e-04,-9.000000000000000567e-05,-8.000000000000000654e-05,0.000000000000000000e+00,-5.000000000000000240e-05,5.000000000000000000e+00,2.100000000000000000e+01
5.182100000000000000e+04,-4.000000000000000327e-05,-1.000000000000000082e-05,-2.500000000000000052e-04,3.499999999999999964e-04,-9.000000000000000567e-05,-8.000000000000000654e-05,0.000000000000000000e+00,-5.000000000000000240e-05,5.000000000000000000e+00,2.100000000000000000e+01
5.182200000000000000e+04,-4.000000000000000327e-05,-1.000000000000000082e-05,-2.500000000000000052e-04,3.499999999999999964e-04,-9.000000000000000567e-05,-8.000000000000000654e-05,0.000000000000000000e+00,-5.000000000000000240e-05,5.000000000000000000e+00,2.100000000000000000e+01
5.182300000000000000e+04,-4.000000000000000327e-05,-1.000000000000000082e-05,-2.500000000000000052e-04,3.499999999999999964e-04,-9.000000000000000567e-05,-8.000000000000000654e-05,0.000000000000000000e+00,-5.000000000000000240e-05,5.000000000000000000e+00,2.100000000000000000e+01
5.182400000000000000e+04,-4.000000000000000327e-05,-1.000000000000000082e-05,-2.500000000000000052e-04,3.499999999999999964e-04,-9.000000000000000567e-05,-8.000000000000000654e-05,0.000000000000000000e+00,-5.000000000000000240e-05,5.000000000000000000e+00,2.100000000000000000e+01
5.182500000000000000e+04,-4.000000000000000327e-05,-1.000000000000000082e-05,-2.500000000000000052e-04,3.499999999999999964e-04,-9.000000000000000567e-05,-8.000000000000000654e-05,0.000000000000000000e+00,-5.000000000000000240e-05,5.000000000000000000e+00,2.100000000000000000e+01
5.182600000000000000e+04,-4.000000000000000327e-05,-1.000000000000000082e-05,-2.500000000000000052e-04,3.499999999999999964e-04,-9.000000000000000567e-05,-8.000000000000000654e-05,0.000000000000000000e+00,-5.000000000000000240e-05,5.000000000000000000e+00,2.100000000000000000e+01
5.182700000000000000e+04,-4.000000000000000327e-05,-1.000000000000000082e-05,-2.500000000000000052e-04,3.499999999999999964e-04,-9.000000000000000567e-05,-8.000000000000000654e-05,0.000000000000000000e+00,-5.000000000000000240e-05,5.000000000000000000e+00,2.100000000000000000e+01
5.182800000000000000e+04,-4.000000000000000327e-05,-1.000000000000000082e-05,-2.500000000000000052e-04,3.499999999999999964e-04,-9.000000000000000567e-05,-8.000000000000000654e-05,0.000000000000000000e+00,-5.000000000000000240e-05,5.000000000000000000e+00,2.100000000000000000e+01
5.182900000000000000e+04,-4.000000000000000327e-05,-1.000000000000000082e-05,-2.500000000000000052e-04,3.499999999999999964e-04,-9.000000000000000567e-05,-8.000000000000000654e-05,0.000000000000000000e+00,-5.000000000000000240e-05,5.000000000000000000e+00,2.100000000000000000e+01
5.183000000000000000e+04,-4.000000000000000327e-05,-1.000000000000000082e-05,-2.500000000000000052e-04,3.499999999999999964e-04,-9.000000000000000567e-05,-8.000000000000000654e-05,0.000000000000000000e+00,-5.000000000000000240e-05,5.000000000000000000e+00,2.100000000000000000e+01
5.183100000000000000e+04,-4.000000000000000327e-05,-1.000000000000000082e-05,-2.500000000000000052e-04,3.499999999999999964e-04,-9.000000000000000567e-05,-8.000000000000000654e-05,0.000000000000000000e+00,-5.000000000000000240e-05,5.000000000000000000e+00,2.100000000000000000e+01
5.183200000000000000e+04,-4.000000000000000327e-05,-1.000000000000000082e-05,-2.500000000000000052e-04,3.499999999999999964e-04,-9.000000000000000567e-05,-8.000000000000000654e-05,0.000000000000000000e+00,-5.000000000000000240e-05,5.000000000000000000e+00,2.100000000000000000e+01
5.183300000000000000e+04,-4.000000000000000327e-05,-1.000000000000000082e-05,-2.500000000000000052e-04,3.499999999999999964e-04,-9.000000000000000567e-05,-8.000000000000000654e-05,0.000000000000000000e+00,-5.000000000000000240e-05,5.000000000000000000e+00,2.100000000000000000e+01
5.183400000000000000e+04,-4.000000000000000327e-05,-1.000000000000000082e-05,-2.500000000000000052e-04,3.499999999999999964e-04,-9.000000000000000567e-05,-8.000000000000000654e-05,0.000000000000000000e+00,-5.000000000000000240e-05,5.000000000000000000e+00,2.100000000000000000e+01
5.183500000000000000e+04,-4.000000000000000327e-05,-1.000000000000000082e-05,-2.500000000000000052e-04,3.499999999999999964e-04,-9.000000000000000567e-05,-8.000000000000000654e-05,0.000000000000000000e+00,-5.000000000000000240e-05,5.000000000000000000e+00,2.100000000000000000e+01
5.183600000000000000e+04,2.000000000000000164e-05,1.100000000000000039e-04,3.600000000000000227e-04,-5.000000000000000240e-05,1.000000000000000082e-05,-5.000000000000000240e-05,2.000000000000000164e-05,2.999999999999999737e-05,5.000000000000000000e+00,2.100000000000000000e+01
5.183800000000000000e+04,1.000000000000000082e-05,5.000000000000000240e-05,2.999999999999999737e-04,-6.999999999999999387e-05,-2.999999999999999737e-05,-5.999999999999999474e-05,-4.000000000000000327e-05,2.999999999999999737e-05,5.000000000000000000e+00,2.100000000000000000e+01
5.183900000000000000e+04,1.000000000000000082e-05,5.000000000000000240e-05,2.999999999999999737e-04,-6.999999999999999387e-05,-2.999999999999999737e-05,-5.999999999999999474e-05,-4.000000000000000327e-05,2.999999999999999737e-05,5.000000000000000000e+00,2.100000000000000000e+01
5.184000000000000000e+04,1.000000000000000082e-05,5.000000000000000240e-05,2.999999999999999737e-04,-6.999999999999999387e-05,-2.999999999999999737e-05,-5.999999999999999474e-05,-4.000000000000000327e-05,2.999999999999999737e-05,5.000000000000000000e+00,2.100000000000000000e+01
5.184100000000000000e+04,1.000000000000000082e-05,5.000000000000000240e-05,2.999999999999999737e-04,-6.999999999999999387e-05,-2.999999999999999737e-05,-5.999999999999999474e-05,-4.000000000000000327e-05,2.999999999999999737e-05,5.000000000000000000e+00,2.100000000000000000e+01
5.184200000000000000e+04,1.000000000000000082e-05,5.000000000000000240e-05,2.999999999999999737e-04,-6.999999999999999387e-05,-2.999999999999999737e-05,-5.999999999999999474e-05,-4.000000000000000327e-05,2.999999999999999737e-05,5.000000000000000000e+00,2.100000000000000000e+01
5.184300000000000000e+04,1.000000000000000082e-05,5.000000000000000240e-05,2.999999999999999737e-04,-6.999999999999999387e-05,-2.999999999999999737e-05,-5.999999999999999474e-05,-4.000000000000000327e-05,2.999999999999999737e-05,5.000000000000000000e+00,2.100000000000000000e+01
5.184400000000000000e+04,1.000000000000000082e-05,5.000000000000000240e-05,2.999999999999999737e-04,-6.999999999999999387e-05,-2.999999999999999737e-05,-5.999999999999999474e-05,-4.000000000000000327e-05,2.999999999999999737e-05,5.000000000000000000e+00,2.100000000000000000e+01
5.184500000000000000e+04,1.000000000000000082e-05,5.000000000000000240e-05,2.999999999999999737e-04,-6.999999999999999387e-05,-2.999999999999999737e-05,-5.999999999999999474e-05,-4.000000000000000327e-05,2.999999999999999737e-05,5.000000000000000000e+00,2.100000000000000000e+01
5.184600000000000000e+04,1.000000000000000082e-05,5.000000000000000240e-05,2.999999999999999737e-04,-6.999999999999999387e-05,-2.999999999999999737e-05,-5.999999999999999474e-05,-4.000000000000000327e-05,2.999999999999999737e-05,5.000000000000000000e+00,2.100000000000000000e+01
5.184700000000000000e+04,1.000000000000000082e-05,5.000000000000000240e-05,2.999999999999999737e-04,-6.999999999999999387e-05,-2.999999999999999737e-05,-5.999999999999999474e-05,-4.000000000000000327e-05,2.999999999999999737e-05,5.000000000000000000e+00,2.100000000000000000e+01
5.184800000000000000e+04,1.000000000000000082e-05,5.000000000000000240e-05,2.999999999999999737e-04,-6.999999999999999387e-05,-2.999999999999999737e-05,-5.999999999999999474e-05,-4.000000000000000327e-05,2.999999999999999737e-05,5.000000000000000000e+00,2.100000000000000000e+01
5.184900000000000000e+04,1.000000000000000082e-05,5.000000000000000240e-05,2.999999999999999737e-04,-6.999999999999999387e-05,-2.999999999999999737e-05,-5.999999999999999474e-05,-4.000000000000000327e-05,2.999999999999999737e-05,5.000000000000000000e+00,2.100000000000000000e+01
5.185000000000000000e+04,1.000000000000000082e-05,5.000000000000000240e-05,2.999999999999999737e-04,-6.999999999999999387e-05,-2.999999999999999737e-05,-5.999999999999999474e-05,-4.000000000000000327e-05,2.999999999999999737e-05,5.000000000000000000e+00,2.100000000000000000e+01
5.185100000000000000e+04,1.000000000000000082e-05,5.000000000000000240e-05,2.999999999999999737e-04,-6.999999999999999387e-05,-2.999999999999999737e-05,-5.999999999999999474e-05,-4.000000000000000327e-05,2.999999999999999737e-05,5.000000000000000000e+00,2.100000000000000000e+01
5.185200000000000000e+04,1.000000000000000082e-05,5.000000000000000240e-05,2.999999999999999737e-04,-6.999999999999999387e-05,-2.999999999999999737e-05,-5.999999999999999474e-05,-4.000000000000000327e-05,2.999999999999999737e-05,5.000000000000000000e+00,2.100000000000000000e+01
5.185300000000000000e+04,1.000000000000000082e-05,5.000000000000000240e-05,2.999999999999999737e-04,-6.999999999999999387e-05,-2.999999999999999737e-05,-5.999999999999999474e-05,-4.000000000000000327e-05,2.999999999999999737e-05,5.000000000000000000e+00,2.100000000000000000e+01
5.185400000000000000e+04,1.000000000000000082e-05,5.000000000000000240e-05,2.999999999999999737e-04,-6.999999999999999387e-05,-2.999999999999999737e-05,-5.999999999999999474e-05,-4.000000000000000327e-05,2.999999999999999737e-05,5.000000000000000000e+00,2.100000000000000000e+01
5.185500000000000000e+04,1.000000000000000082e-05,5.000000000000000240e-05,2.999999999999999737e-04,-6.999999999999999387e-05,-2.999999999999999737e-05,-5.999999999999999474e-05,-4.000000000000000327e-05,2.999999999999999737e-05,5.000000000000000000e+00,2.100000000000000000e+01
5.185600000000000000e+04,1.000000000000000082e-05,5.000000000000000240e-05,2.999999999999999737e-04,-6.999999999999999387e-05,-2.999999999999999737e-05,-5.999999999999999474e-05,-4.000000000000000327e-05,2.999999999999999737e-05,5.000000000000000000e+00,2.100000000000000000e+01
5.185700000000000000e+04,1.000000000000000082e-05,5.000000000000000240e-05,2.999999999999999737e-04,-6.999999999999999387e-05,-2.999999999999999737e-05,-5.999999999999999474e-05,-4.000000000000000327e-05,2.999999999999999737e-05,5.000000000000000000e+00,2.100000000000000000e+01
5.185800000000000000e+04,-2.000000000000000164e-05,1.000000000000000082e-05,1.000000000000000082e-05,-2.200000000000000078e-04,-8.000000000000000654e-05,-2.000000000000000164e-05,0.000000000000000000e+00,8.000000000000000654e-05,5.000000000000000000e+00,2.100000000000000000e+01
5.185900000000000000e+04,-2.000000000000000164e-05,1.000000000000000082e-05,1.000000000000000082e-05,-2.200000000000000078e-04,-8.000000000000000654e-05,-2.000000000000000164e-05,0.000000000000000000e+00,8.000000000000000654e-05,5.000000000000000000e+00,2.100000000000000000e+01
5.186000000000000000e+04,1.000000000000000082e-05,0.000000000000000000e+00,2.999999999999999737e-05,-4.000000000000000327e-05,-1.000000000000000082e-05,1.000000000000000082e-05,-2.000000000000000164e-05,1.000000000000000082e-05,5.000000000000000000e+00,2.100000000000000000e+01
5.186100000000000000e+04,1.000000000000000082e-05,0.000000000000000000e+00,2.999999999999999737e-05,-4.000000000000000327e-05,-1.000000000000000082e-05,1.000000000000000082e-05,-2.000000000000000164e-05,1.000000000000000082e-05,5.000000000000000000e+00,2.100000000000000000e+01
5.186200000000000000e+04,1.000000000000000082e-05,0.000000000000000000e+00,2.999999999999999737e-05,-4.000000000000000327e-05,-1.000000000000000082e-05,1.000000000000000082e-05,-2.000000000000000164e-05,1.000000000000000082e-05,5.000000000000000000e+00,2.100000000000000000e+01
5.186300000000000000e+04,1.000000000000000082e-05,0.000000000000000000e+00,2.999999999999999737e-05,-4.000000000000000327e-05,-1.000000000000000082e-05,1.000000000000000082e-05,-2.000000000000000164e-05,1.000000000000000082e-05,5.000000000000000000e+00,2.100000000000000000e+01
5.186400000000000000e+04,1.000000000000000082e-05,0.000000000000000000e+00,2.999999999999999737e-05,-4.000000000000000327e-05,-1.000000000000000082e-05,1.000000000000000082e-05,-2.000000000000000164e-05,1.000000000000000082e-05,5.000000000000000000e+00,2.100000000000000000e+01
5.186500000000000000e+04,1.000000000000000082e-05,0.000000000000000000e+00,2.999999999999999737e-05,-4.000000000000000327e-05,-1.000000000000000082e-05,1.000000000000000082e-05,-2.000000000000000164e-05,1.000000000000000082e-05,5.000000000000000000e+00,2.100000000000000000e+01
5.186600000000000000e+04,1.000000000000000082e-05,0.000000000000000000e+00,2.999999999999999737e-05,-4.000000000000000327e-05,-1.000000000000000082e-05,1.000000000000000082e-05,-2.000000000000000164e-05,1.000000000000000082e-05,5.000000000000000000e+00,2.100000000000000000e+01
5.186700000000000000e+04,1.000000000000000082e-05,0.000000000000000000e+00,2.999999999999999737e-05,-4.000000000000000327e-05,-1.000000000000000082e-05,1.000000000000000082e-05,-2.000000000000000164e-05,1.000000000000000082e-05,5.000000000000000000e+00,2.100000000000000000e+01
5.186800000000000000e+04,1.000000000000000082e-05,0.000000000000000000e+00,2.999999999999999737e-05,-4.000000000000000327e-05,-1.000000000000000082e-05,1.000000000000000082e-05,-2.000000000000000164e-05,1.000000000000000082e-05,5.000000000000000000e+00,2.100000000000000000e+01
5.186900000000000000e+04,1.000000000000000082e-05,0.000000000000000000e+00,2.999999999999999737e-05,-4.000000000000000327e-05,-1.000000000000000082e-05,1.000000000000000082e-05,-2.000000000000000164e-05,1.000000000000000082e-05,5.000000000000000000e+00,2.100000000000000000e+01
5.187000000000000000e+04,1.000000000000000082e-05,0.000000000000000000e+00,2.999999999999999737e-05,-4.000000000000000327e-05,-1.000000000000000082e-05,1.000000000000000082e-05,-2.000000000000000164e-05,1.000000000000000082e-05,5.000000000000000000e+00,2.100000000000000000e+01
5.187100000000000000e+04,1.000000000000000082e-05,0.000000000000000000e+00,2.999999999999999737e-05,-4.000000000000000327e-05,-1.000000000000000082e-05,1.000000000000000082e-05,-2.000000000000000164e-05,1.000000000000000082e-05,5.000000000000000000e+00,2.100000000000000000e+01
5.187200000000000000e+04,1.000000000000000082e-05,0.000000000000000000e+00,2.999999999999999737e-05,-4.000000000000000327e-05,-1.000000000000000082e-05,1.000000000000000082e-05,-2.000000000000000164e-05,1.000000000000000082e-05,5.000000000000000000e+00,2.100000000000000000e+01
5.187300000000000000e+04,-2.000000000000000164e-05,-4.000000000000000327e-05,-1.000000000000000048e-04,-2.000000000000000096e-04,-1.399999999999999877e-04,-1.000000000000000048e-04,-1.399999999999999877e-04,-5.999999999999999474e-05,5.000000000000000000e+00,2.100000000000000000e+01
5.187400000000000000e+04,0.000000000000000000e+00,6.999999999999999387e-05,-5.999999999999999474e-05,-5.000000000000000240e-05,-2.999999999999999737e-05,0.000000000000000000e+00,-6.999999999999999387e-05,-6.999999999999999387e-05,5.000000000000000000e+00,2.100000000000000000e+01
5.187500000000000000e+04,-5.999999999999999474e-05,-1.399999999999999877e-04,-3.299999999999999982e-04,-1.109999999999999876e-03,-1.800000000000000113e-04,-2.999999999999999737e-05,0.000000000000000000e+00,-5.000000000000000240e-05,5.000000000000000000e+00,2.100000000000000000e+01
5.187600000000000000e+04,-5.999999999999999474e-05,-1.399999999999999877e-04,-3.299999999999999982e-04,-1.109999999999999876e-03,-1.800000000000000113e-04,-2.999999999999999737e-05,0.000000000000000000e+00,-5.000000000000000240e-05,5.000000000000000000e+00,2.100000000000000000e+01
5.187700000000000000e+04,-5.999999999999999474e-05,-1.399999999999999877e-04,-3.299999999999999982e-04,-1.109999999999999876e-03,-1.800000000000000113e-04,-2.999999999999999737e-05,0.000000000000000000e+00,-5.000000000000000240e-05,5.000000000000000000e+00,2.100000000000000000e+01
5.187800000000000000e+04,-5.999999999999999474e-05,-1.399999999999999877e-04,-3.299999999999999982e-04,-1.109999999999999876e-03,-1.800000000000000113e-04,-2.999999999999999737e-05,0.000000000000000000e+00,-5.000000000000000240e-05,5.000000000000000000e+00,2.100000000000000000e+01
5.187900000000000000e+04,-5.999999999999999474e-05,-1.399999999999999877e-04,-3.299999999999999982e-04,-1.109999999999999876e-03,-1.800000000000000113e-04,-2.999999999999999737e-05,0.000000000000000000e+00,-5.000000000000000240e-05,5.000000000000000000e+00,2.100000000000000000e+01
5.188000000000000000e+04,-5.999999999999999474e-05,-1.399999999999999877e-04,-3.299999999999999982e-04,-1.109999999999999876e-03,-1.800000000000000113e-04,-2.999999999999999737e-05,0.000000000000000000e+00,-5.000000000000000240e-05,5.000000000000000000e+00,2.100000000000000000e+01
5.188100000000000000e+04,-5.999999999999999474e-05,-1.399999999999999877e-04,-3.299999999999999982e-04,-1.109999999999999876e-03,-1.800000000000000113e-04,-2.999999999999999737e-05,0.000000000000000000e+00,-5.000000000000000240e-05,5.000000000000000000e+00,2.100000000000000000e+01
5.188200000000000000e+04,-5.999999999999999474e-05,-1.399999999999999877e-04,-3.299999999999999982e-04,-1.109999999999999876e-03,-1.800000000000000113e-04,-2.999999999999999737e-05,0.000000000000000000e+00,-5.000000000000000240e-05,5.000000000000000000e+00,2.100000000000000000e+01
5.188300000000000000e+04,-5.999999999999999474e-05,-1.399999999999999877e-04,-3.299999999999999982e-04,-1.109999999999999876e-03,-1.800000000000000113e-04,-2.999999999999999737e-05,0.000000000000000000e+00,-5.000000000000000240e-05,5.000000000000000000e+00,2.100000000000000000e+01
5.188400000000000000e+04,-5.999999999999999474e-05,-1.399999999999999877e-04,-3.299999999999999982e-04,-1.109999999999999876e-03,-1.800000000000000113e-04,-2.999999999999999737e-05,0.000000000000000000e+00,-5.000000000000000240e-05,5.000000000000000000e+00,2.100000000000000000e+01
5.188500000000000000e+04,-5.999999999999999474e-05,-1.399999999999999877e-04,-3.299999999999999982e-04,-1.109999999999999876e-03,-1.800000000000000113e-04,-2.999999999999999737e-05,0.000000000000000000e+00,-5.000000000000000240e-05,5.000000000000000000e+00,2.100000000000000000e+01
5.188600000000000000e+04,-5.999999999999999474e-05,-1.399999999999999877e-04,-3.299999999999999982e-04,-1.109999999999999876e-03,-1.800000000000000113e-04,-2.999999999999999737e-05,0.000000000000000000e+00,-5.000000000000000240e-05,5.000000000000000000e+00,2.100000000000000000e+01
5.188800000000000000e+04,-5.999999999999999474e-05,-1.399999999999999877e-04,-3.299999999999999982e-04,-1.109999999999999876e-03,-1.800000000000000113e-04,-2.999999999999999737e-05,0.000000000000000000e+00,-5.000000000000000240e-05,5.000000000000000000e+00,2.100000000000000000e+01
5.188900000000000000e+04,-5.999999999999999474e-05,-1.399999999999999877e-04,-3.299999999999999982e-04,-1.109999999999999876e-03,-1.800000000000000113e-04,-2.999999999999999737e-05,0.000000000000000000e+00,-5.000000000000000240e-05,5.000000000000000000e+00,2.100000000000000000e+01
5.189000000000000000e+04,-5.999999999999999474e-05,-1.399999999999999877e-04,-3.299999999999999982e-04,-1.109999999999999876e-03,-1.800000000000000113e-04,-2.999999999999999737e-05,0.000000000000000000e+00,-5.000000000000000240e-05,5.000000000000000000e+00,2.100000000000000000e+01
5.189100000000000000e+04,-5.999999999999999474e-05,-1.399999999999999877e-04,-3.299999999999999982e-04,-1.109999999999999876e-03,-1.800000000000000113e-04,-2.999999999999999737e-05,0.000000000000000000e+00,-5.000000000000000240e-05,5.000000000000000000e+00,2.100000000000000000e+01
5.189200000000000000e+04,-5.999999999999999474e-05,-1.399999999999999877e-04,-3.299999999999999982e-04,-1.109999999999999876e-03,-1.800000000000000113e-04,-2.999999999999999737e-05,0.000000000000000000e+00,-5.000000000000000240e-05,5.000000000000000000e+00,2.100000000000000000e+01
5.189300000000000000e+04,-5.999999999999999474e-05,-1.399999999999999877e-04,-3.299999999999999982e-04,-1.109999999999999876e-03,-1.800000000000000113e-04,-2.999999999999999737e-05,0.000000000000000000e+00,-5.000000000000000240e-05,5.000000000000000000e+00,2.100000000000000000e+01
5.189400000000000000e+04,-5.999999999999999474e-05,-1.399999999999999877e-04,-3.299999999999999982e-04,-1.109999999999999876e-03,-1.800000000000000113e-04,-2.999999999999999737e-05,0.000000000000000000e+00,-5.000000000000000240e-05,5.000000000000000000e+00,2.100000000000000000e+01
5.189500000000000000e+04,-5.999999999999999474e-05,-1.399999999999999877e-04,-3.299999999999999982e-04,-1.109999999999999876e-03,-1.800000000000000113e-04,-2.999999999999999737e-05,0.000000000000000000e+00,-5.000000000000000240e-05,5.000000000000000000e+00,2.100000000000000000e+01
5.189600000000000000e+04,6.999999999999999387e-05,1.000000000000000048e-04,1.600000000000000131e-04,-5.000000000000000240e-05,5.999999999999999474e-05,6.999999999999999387e-05,1.000000000000000082e-05,-1.000000000000000082e-05,5.000000000000000000e+00,2.100000000000000000e+01
5.189700000000000000e+04,6.999999999999999387e-05,1.000000000000000048e-04,1.600000000000000131e-04,-5.000000000000000240e-05,5.999999999999999474e-05,6.999999999999999387e-05,1.000000000000000082e-05,-1.000000000000000082e-05,5.000000000000000000e+00,2.100000000000000000e+01
5.189800000000000000e+04,4.000000000000000327e-05,0.000000000000000000e+00,3.600000000000000227e-04,-2.100000000000000087e-04,2.000000000000000164e-05,-1.000000000000000082e-05,2.999999999999999737e-05,2.999999999999999737e-05,5.000000000000000000e+00,2.100000000000000000e+01
5.189900000000000000e+04,4.000000000000000327e-05,0.000000000000000000e+00,3.600000000000000227e-04,-2.100000000000000087e-04,2.000000000000000164e-05,-1.000000000000000082e-05,2.999999999999999737e-05,2.999999999999999737e-05,5.000000000000000000e+00,2.100000000000000000e+01
5.190000000000000000e+04,4.000000000000000327e-05,0.000000000000000000e+00,3.600000000000000227e-04,-2.100000000000000087e-04,2.000000000000000164e-05,-1.000000000000000082e-05,2.999999999999999737e-05,2.999999999999999737e-05,5.000000000000000000e+00,2.100000000000000000e+01
5.190100000000000000e+04,4.000000000000000327e-05,0.000000000000000000e+00,3.600000000000000227e-04,-2.100000000000000087e-04,2.000000000000000164e-05,-1.000000000000000082e-05,2.999999999999999737e-05,2.999999999999999737e-05,5.000000000000000000e+00,2.100000000000000000e+01
5.190200000000000000e+04,4.000000000000000327e-05,0.000000000000000000e+00,3.600000000000000227e-04,-2.100000000000000087e-04,2.000000000000000164e-05,-1.000000000000000082e-05,2.999999999999999737e-05,2.999999999999999737e-05,5.000000000000000000e+00,2.100000000000000000e+01
5.190300000000000000e+04,4.000000000000000327e-05,0.000000000000000000e+00,3.600000000000000227e-04,-2.100000000000000087e-04,2.000000000000000164e-05,-1.000000000000000082e-05,2.999999999999999737e-05,2.999999999999999737e-05,5.000000000000000000e+00,2.100000000000000000e+01
5.190400000000000000e+04,4.000000000000000327e-05,0.000000000000000000e+00,3.600000000000000227e-04,-2.100000000000000087e-04,2.000000000000000164e-05,-1.000000000000000082e-05,2.999999999999999737e-05,2.999999999999999737e-05,5.000000000000000000e+00,2.100000000000000000e+01
5.190500000000000000e+04,4.000000000000000327e-05,0.000000000000000000e+00,3.600000000000000227e-04,-2.100000000000000087e-04,2.000000000000000164e-05,-1.000000000000000082e-05,2.999999999999999737e-05,2.999999999999999737e-05,5.000000000000000000e+00,2.100000000000000000e+01
5.190600000000000000e+04,4.000000000000000327e-05,0.000000000000000000e+00,3.600000000000000227e-04,-2.100000000000000087e-04,2.000000000000000164e-05,-1.000000000000000082e-05,2.999999999999999737e-05,2.999999999999999737e-05,5.000000000000000000e+00,2.100000000000000000e+01
5.190700000000000000e+04,4.000000000000000327e-05,0.000000000000000000e+00,3.600000000000000227e-04,-2.100000000000000087e-04,2.000000000000000164e-05,-1.000000000000000082e-05,2.999999999999999737e-05,2.999999999999999737e-05,5.000000000000000000e+00,2.100000000000000000e+01
5.190800000000000000e+04,4.000000000000000327e-05,0.000000000000000000e+00,3.600000000000000227e-04,-2.100000000000000087e-04,2.000000000000000164e-05,-1.000000000000000082e-05,2.999999999999999737e-05,2.999999999999999737e-05,5.000000000000000000e+00,2.100000000000000000e+01
5.190900000000000000e+04,4.000000000000000327e-05,0.000000000000000000e+00,3.600000000000000227e-04,-2.100000000000000087e-04,2.000000000000000164e-05,-1.000000000000000082e-05,2.999999999999999737e-05,2.999999999999999737e-05,5.000000000000000000e+00,2.100000000000000000e+01
5.191000000000000000e+04,4.000000000000000327e-05,0.000000000000000000e+00,3.600000000000000227e-04,-2.100000000000000087e-04,2.000000000000000164e-05,-1.000000000000000082e-05,2.999999999999999737e-05,2.999999999999999737e-05,5.000000000000000000e+00,2.100000000000000000e+01
5.191100000000000000e+04,4.000000000000000327e-05,0.000000000000000000e+00,3.600000000000000227e-04,-2.100000000000000087e-04,2.000000000000000164e-05,-1.000000000000000082e-05,2.999999999999999737e-05,2.999999999999999737e-05,5.000000000000000000e+00,2.100000000000000000e+01
5.191200000000000000e+04,4.000000000000000327e-05,0.000000000000000000e+00,3.600000000000000227e-04,-2.100000000000000087e-04,2.000000000000000164e-05,-1.000000000000000082e-05,2.999999999999999737e-05,2.999999999999999737e-05,5.000000000000000000e+00,2.100000000000000000e+01
5.191300000000000000e+04,4.000000000000000327e-05,0.000000000000000000e+00,3.600000000000000227e-04,-2.100000000000000087e-04,2.000000000000000164e-05,-1.000000000000000082e-05,2.999999999999999737e-05,2.999999999999999737e-05,5.000000000000000000e+00,2.100000000000000000e+01
5.191400000000000000e+04,4.000000000000000327e-05,0.000000000000000000e+00,3.600000000000000227e-04,-2.100000000000000087e-04,2.000000000000000164e-05,-1.000000000000000082e-05,2.999999999999999737e-05,2.999999999999999737e-05,5.000000000000000000e+00,2.100000000000000000e+01
5.191500000000000000e+04,4.000000000000000327e-05,0.000000000000000000e+00,3.600000000000000227e-04,-2.100000000000000087e-04,2.000000000000000164e-05,-1.000000000000000082e-05,2.999999999999999737e-05,2.999999999999999737e-05,5.000000000000000000e+00,2.100000000000000000e+01
5.191600000000000000e+04,4.000000000000000327e-05,0.000000000000000000e+00,3.600000000000000227e-04,-2.100000000000000087e-04,2.000000000000000164e-05,-1.000000000000000082e-05,2.999999999999999737e-05,2.999999999999999737e-05,5.000000000000000000e+00,2.100000000000000000e+01
5.191700000000000000e+04,4.000000000000000327e-05,0.000000000000000000e+00,3.600000000000000227e-04,-2.100000000000000087e-04,2.000000000000000164e-05,-1.000000000000000082e-05,2.999999999999999737e-05,2.999999999999999737e-05,5.000000000000000000e+00,2.100000000000000000e+01
5.191800000000000000e+04,4.000000000000000327e-05,0.000000000000000000e+00,3.600000000000000227e-04,-2.100000000000000087e-04,2.000000000000000164e-05,-1.000000000000000082e-05,2.999999999999999737e-05,2.999999999999999737e-05,5.000000000000000000e+00,2.100000000000000000e+01
5.191900000000000000e+04,-4.000000000000000327e-05,-9.000000000000000567e-05,-2.100000000000000087e-04,4.299999999999999894e-04,2.999999999999999737e-05,-2.000000000000000164e-05,-6.999999999999999387e-05,-5.999999999999999474e-05,5.000000000000000000e+00,2.100000000000000000e+01
5.192000000000000000e+04,1.000000000000000082e-05,4.000000000000000327e-05,-1.399999999999999877e-04,1.000000000000000048e-04,9.000000000000000567e-05,4.000000000000000327e-05,1.000000000000000082e-05,4.000000000000000327e-05,5.000000000000000000e+00,2.100000000000000000e+01
5.192100000000000000e+04,1.000000000000000082e-05,4.000000000000000327e-05,-1.399999999999999877e-04,1.000000000000000048e-04,9.000000000000000567e-05,4.000000000000000327e-05,1.000000000000000082e-05,4.000000000000000327e-05,5.000000000000000000e+00,2.100000000000000000e+01
5.192200000000000000e+04,1.000000000000000082e-05,4.000000000000000327e-05,-1.399999999999999877e-04,1.000000000000000048e-04,9.000000000000000567e-05,4.000000000000000327e-05,1.000000000000000082e-05,4.000000000000000327e-05,5.000000000000000000e+00,2.100000000000000000e+01
5.192300000000000000e+04,1.000000000000000082e-05,4.000000000000000327e-05,-1.399999999999999877e-04,1.000000000000000048e-04,9.000000000000000567e-05,4.000000000000000327e-05,1.000000000000000082e-05,4.000000000000000327e-05,5.000000000000000000e+00,2.100000000000000000e+01
5.192400000000000000e+04,1.000000000000000082e-05,4.000000000000000327e-05,-1.399999999999999877e-04,1.000000000000000048e-04,9.000000000000000567e-05,4.000000000000000327e-05,1.000000000000000082e-05,4.000000000000000327e-05,5.000000000000000000e+00,2.100000000000000000e+01
5.192500000000000000e+04,1.000000000000000082e-05,4.000000000000000327e-05,-1.399999999999999877e-04,1.000000000000000048e-04,9.000000000000000567e-05,4.000000000000000327e-05,1.000000000000000082e-05,4.000000000000000327e-05,5.000000000000000000e+00,2.100000000000000000e+01
5.192600000000000000e+04,1.000000000000000082e-05,4.000000000000000327e-05,-1.399999999999999877e-04,1.000000000000000048e-04,9.000000000000000567e-05,4.000000000000000327e-05,1.000000000000000082e-05,4.000000000000000327e-05,5.000000000000000000e+00,2.100000000000000000e+01
5.192700000000000000e+04,1.000000000000000082e-05,4.000000000000000327e-05,-1.399999999999999877e-04,1.000000000000000048e-04,9.000000000000000567e-05,4.000000000000000327e-05,1.000000000000000082e-05,4.000000000000000327e-05,5.000000000000000000e+00,2.100000000000000000e+01
5.192800000000000000e+04,1.000000000000000082e-05,4.000000000000000327e-05,-1.399999999999999877e-04,1.000000000000000048e-04,9.000000000000000567e-05,4.000000000000000327e-05,1.000000000000000082e-05,4.000000000000000327e-05,5.000000000000000000e+00,2.100000000000000000e+01
5.192900000000000000e+04,1.000000000000000082e-05,4.000000000000000327e-05,-1.399999999999999877e-04,1.000000000000000048e-04,9.000000000000000567e-05,4.000000000000000327e-05,1.000000000000000082e-05,4.000000000000000327e-05,5.000000000000000000e+00,2.100000000000000000e+01
5.193000000000000000e+04,1.000000000000000082e-05,4.000000000000000327e-05,-1.399999999999999877e-04,1.000000000000000048e-04,9.000000000000000567e-05,4.000000000000000327e-05,1.000000000000000082e-05,4.000000000000000327e-05,5.000000000000000000e+00,2.100000000000000000e+01
5.193100000000000000e+04,1.000000000000000082e-05,4.000000000000000327e-05,-1.399999999999999877e-04,1.000000000000000048e-04,9.000000000000000567e-05,4.000000000000000327e-05,1.000000000000000082e-05,4.000000000000000327e-05,5.000000000000000000e+00,2.100000000000000000e+01
5.193200000000000000e+04,1.000000000000000082e-05,4.000000000000000327e-05,-1.399999999999999877e-04,1.000000000000000048e-04,9.000000000000000567e-05,4.000000000000000327e-05,1.000000000000000082e-05,4.000000000000000327e-05,5.000000000000000000e+00,2.100000000000000000e+01
5.193300000000000000e+04,1.000000000000000082e-05,4.000000000000000327e-05,-1.399999999999999877e-04,1.000000000000000048e-04,9.000000000000000567e-05,4.000000000000000327e-05,1.000000000000000082e-05,4.000000000000000327e-05,5.000000000000000000e+00,2.100000000000000000e+01
5.193400000000000000e+04,0.000000000000000000e+00,5.999999999999999474e-05,2.200000000000000078e-04,-2.000000000000000164e-05,0.000000000000000000e+00,5.999999999999999474e-05,-6.999999999999999387e-05,-2.000000000000000096e-04,5.000000000000000000e+00,2.100000000000000000e+01
5.193500000000000000e+04,-2.000000000000000164e-05,0.000000000000000000e+00,-1.300000000000000157e-04,2.000000000000000096e-04,1.000000000000000082e-05,-2.000000000000000164e-05,-2.999999999999999737e-05,-2.999999999999999737e-05,5.000000000000000000e+00,2.100000000000000000e+01
5.193600000000000000e+04,-2.000000000000000164e-05,0.000000000000000000e+00,-1.300000000000000157e-04,2.000000000000000096e-04,1.000000000000000082e-05,-2.000000000000000164e-05,-2.999999999999999737e-05,-2.999999999999999737e-05,5.000000000000000000e+00,2.100000000000000000e+01
5.193800000000000000e+04,-2.000000000000000164e-05,0.000000000000000000e+00,-1.300000000000000157e-04,2.000000000000000096e-04,1.000000000000000082e-05,-2.000000000000000164e-05,-2.999999999999999737e-05,-2.999999999999999737e-05,5.000000000000000000e+00,2.100000000000000000e+01
5.193900000000000000e+04,-2.000000000000000164e-05,0.000000000000000000e+00,-1.300000000000000157e-04,2.000000000000000096e-04,1.000000000000000082e-05,-2.000000000000000164e-05,-2.999999999999999737e-05,-2.999999999999999737e-05,5.000000000000000000e+00,2.100000000000000000e+01
5.194000000000000000e+04,-2.000000000000000164e-05,0.000000000000000000e+00,-1.300000000000000157e-04,2.000000000000000096e-04,1.000000000000000082e-05,-2.000000000000000164e-05,-2.999999999999999737e-05,-2.999999999999999737e-05,5.000000000000000000e+00,2.100000000000000000e+01
5.194100000000000000e+04,-2.000000000000000164e-05,0.000000000000000000e+00,-1.300000000000000157e-04,2.000000000000000096e-04,1.000000000000000082e-05,-2.000000000000000164e-05,-2.999999999999999737e-05,-2.999999999999999737e-05,5.000000000000000000e+00,2.100000000000000000e+01
5.194200000000000000e+04,-2.000000000000000164e-05,0.000000000000000000e+00,-1.300000000000000157e-04,2.000000000000000096e-04,1.000000000000000082e-05,-2.000000000000000164e-05,-2.999999999999999737e-05,-2.999999999999999737e-05,5.000000000000000000e+00,2.100000000000000000e+01
5.194300000000000000e+04,-2.000000000000000164e-05,0.000000000000000000e+00,-1.300000000000000157e-04,2.000000000000000096e-04,1.000000000000000082e-05,-2.000000000000000164e-05,-2.999999999999999737e-05,-2.999999999999999737e-05,5.000000000000000000e+00,2.100000000000000000e+01
5.194400000000000000e+04,-2.000000000000000164e-05,0.000000000000000000e+00,-1.300000000000000157e-04,2.000000000000000096e-04,1.000000000000000082e-05,-2.000000000000000164e-05,-2.999999999999999737e-05,-2.999999999999999737e-05,5.000000000000000000e+00,2.100000000000000000e+01
5.194500000000000000e+04,-2.000000000000000164e-05,0.000000000000000000e+00,-1.300000000000000157e-04,2.000000000000000096e-04,1.000000000000000082e-05,-2.000000000000000164e-05,-2.999999999999999737e-05,-2.999999999999999737e-05,5.000000000000000000e+00,2.100000000000000000e+01
5.194600000000000000e+04,-2.000000000000000164e-05,0.000000000000000000e+00,-1.300000000000000157e-04,2.000000000000000096e-04,1.000000000000000082e-05,-2.000000000000000164e-05,-2.999999999999999737e-05,-2.999999999999999737e-05,5.000000000000000000e+00,2.100000000000000000e+01
5.194700000000000000e+04,-2.000000000000000164e-05,0.000000000000000000e+00,-1.300000000000000157e-04,2.000000000000000096e-04,1.000000000000000082e-05,-2.000000000000000164e-05,-2.999999999999999737e-05,-2.999999999999999737e-05,5.000000000000000000e+00,2.100000000000000000e+01
5.194800000000000000e+04,-2.000000000000000164e-05,0.000000000000000000e+00,-1.300000000000000157e-04,2.000000000000000096e-04,1.000000000000000082e-05,-2.000000000000000164e-05,-2.999999999999999737e-05,-2.999999999999999737e-05,5.000000000000000000e+00,2.100000000000000000e+01
5.194900000000000000e+04,-2.000000000000000164e-05,0.000000000000000000e+00,-1.300000000000000157e-04,2.000000000000000096e-04,1.000000000000000082e-05,-2.000000000000000164e-05,-2.999999999999999737e-05,-2.999999999999999737e-05,5.000000000000000000e+00,2.100000000000000000e+01
5.195000000000000000e+04,-2.000000000000000164e-05,0.000000000000000000e+00,-1.300000000000000157e-04,2.000000000000000096e-04,1.000000000000000082e-05,-2.000000000000000164e-05,-2.999999999999999737e-05,-2.999999999999999737e-05,5.000000000000000000e+00,2.100000000000000000e+01
5.195100000000000000e+04,-2.000000000000000164e-05,0.000000000000000000e+00,-1.300000000000000157e-04,2.000000000000000096e-04,1.000000000000000082e-05,-2.000000000000000164e-05,-2.999999999999999737e-05,-2.999999999999999737e-05,5.000000000000000000e+00,2.100000000000000000e+01
5.195200000000000000e+04,-2.000000000000000164e-05,0.000000000000000000e+00,-1.300000000000000157e-04,2.000000000000000096e-04,1.000000000000000082e-05,-2.000000000000000164e-05,-2.999999999999999737e-05,-2.999999999999999737e-05,5.000000000000000000e+00,2.100000000000000000e+01
5.195300000000000000e+04,-2.000000000000000164e-05,0.000000000000000000e+00,-1.300000000000000157e-04,2.000000000000000096e-04,1.000000000000000082e-05,-2.000000000000000164e-05,-2.999999999999999737e-05,-2.999999999999999737e-05,5.000000000000000000e+00,2.100000000000000000e+01
5.195400000000000000e+04,-2.000000000000000164e-05,0.000000000000000000e+00,-1.300000000000000157e-04,2.000000000000000096e-04,1.000000000000000082e-05,-2.000000000000000164e-05,-2.999999999999999737e-05,-2.999999999999999737e-05,5.000000000000000000e+00,2.100000000000000000e+01
5.195500000000000000e+04,-2.000000000000000164e-05,0.000000000000000000e+00,-1.300000000000000157e-04,2.000000000000000096e-04,1.000000000000000082e-05,-2.000000000000000164e-05,-2.999999999999999737e-05,-2.999999999999999737e-05,5.000000000000000000e+00,2.100000000000000000e+01
5.195600000000000000e+04,-2.000000000000000164e-05,0.000000000000000000e+00,-1.300000000000000157e-04,2.000000000000000096e-04,1.000000000000000082e-05,-2.000000000000000164e-05,-2.999999999999999737e-05,-2.999999999999999737e-05,5.000000000000000000e+00,2.100000000000000000e+01
5.195700000000000000e+04,-2.000000000000000164e-05,0.000000000000000000e+00,-1.300000000000000157e-04,2.000000000000000096e-04,1.000000000000000082e-05,-2.000000000000000164e-05,-2.999999999999999737e-05,-2.999999999999999737e-05,5.000000000000000000e+00,2.100000000000000000e+01
5.195800000000000000e+04,-2.000000000000000164e-05,0.000000000000000000e+00,-1.300000000000000157e-04,2.000000000000000096e-04,1.000000000000000082e-05,-2.000000000000000164e-05,-2.999999999999999737e-05,-2.999999999999999737e-05,5.000000000000000000e+00,2.100000000000000000e+01
5.195900000000000000e+04,-2.000000000000000164e-05,0.000000000000000000e+00,-1.300000000000000157e-04,2.000000000000000096e-04,1.000000000000000082e-05,-2.000000000000000164e-05,-2.999999999999999737e-05,-2.999999999999999737e-05,5.000000000000000000e+00,2.100000000000000000e+01
5.196000000000000000e+04,-2.000000000000000164e-05,0.000000000000000000e+00,-1.300000000000000157e-04,2.000000000000000096e-04,1.000000000000000082e-05,-2.000000000000000164e-05,-2.999999999999999737e-05,-2.999999999999999737e-05,5.000000000000000000e+00,2.100000000000000000e+01
5.196100000000000000e+04,-2.000000000000000164e-05,0.000000000000000000e+00,-1.300000000000000157e-04,2.000000000000000096e-04,1.000000000000000082e-05,-2.000000000000000164e-05,-2.999999999999999737e-05,-2.999999999999999737e-05,5.000000000000000000e+00,2.100000000000000000e+01
5.196200000000000000e+04,-2.000000000000000164e-05,0.000000000000000000e+00,-1.300000000000000157e-04,2.000000000000000096e-04,1.000000000000000082e-05,-2.000000000000000164e-05,-2.999999999999999737e-05,-2.999999999999999737e-05,5.000000000000000000e+00,2.100000000000000000e+01
5.196300000000000000e+04,-2.000000000000000164e-05,0.000000000000000000e+00,-1.300000000000000157e-04,2.000000000000000096e-04,1.000000000000000082e-05,-2.000000000000000164e-05,-2.999999999999999737e-05,-2.999999999999999737e-05,5.000000000000000000e+00,2.100000000000000000e+01
5.196400000000000000e+04,-2.999999999999999737e-05,1.000000000000000082e-05,1.800000000000000113e-04,1.199999999999999895e-04,-2.999999999999999737e-05,2.000000000000000164e-05,2.000000000000000164e-05,-4.000000000000000327e-05,5.000000000000000000e+00,2.100000000000000000e+01
5.196500000000000000e+04,-4.000000000000000327e-05,-4.000000000000000327e-05,-1.100000000000000039e-04,0.000000000000000000e+00,-2.000000000000000164e-05,-6.999999999999999387e-05,-1.199999999999999895e-04,-8.000000000000000654e-05,5.000000000000000000e+00,2.100000000000000000e+01
5.196600000000000000e+04,-4.000000000000000327e-05,-4.000000000000000327e-05,-1.100000000000000039e-04,0.000000000000000000e+00,-2.000000000000000164e-05,-6.999999999999999387e-05,-1.199999999999999895e-04,-8.000000000000000654e-05,5.000000000000000000e+00,2.100000000000000000e+01
5.196700000000000000e+04,-4.000000000000000327e-05,-4.000000000000000327e-05,-1.100000000000000039e-04,0.000000000000000000e+00,-2.000000000000000164e-05,-6.999999999999999387e-05,-1.199999999999999895e-04,-8.000000000000000654e-05,5.000000000000000000e+00,2.100000000000000000e+01
5.196800000000000000e+04,-4.000000000000000327e-05,-4.000000000000000327e-05,-1.100000000000000039e-04,0.000000000000000000e+00,-2.000000000000000164e-05,-6.999999999999999387e-05,-1.199999999999999895e-04,-8.000000000000000654e-05,5.000000000000000000e+00,2.100000000000000000e+01
5.196900000000000000e+04,-4.000000000000000327e-05,-4.000000000000000327e-05,-1.100000000000000039e-04,0.000000000000000000e+00,-2.000000000000000164e-05,-6.999999999999999387e-05,-1.199999999999999895e-04,-8.000000000000000654e-05,5.000000000000000000e+00,2.100000000000000000e+01
5.197000000000000000e+04,-4.000000000000000327e-05,-4.000000000000000327e-05,-1.100000000000000039e-04,0.000000000000000000e+00,-2.000000000000000164e-05,-6.999999999999999387e-05,-1.199999999999999895e-04,-8.000000000000000654e-05,5.000000000000000000e+00,2.100000000000000000e+01
5.197100000000000000e+04,-4.000000000000000327e-05,-4.000000000000000327e-05,-1.100000000000000039e-04,0.000000000000000000e+00,-2.000000000000000164e-05,-6.999999999999999387e-05,-1.199999999999999895e-04,-8.000000000000000654e-05,5.000000000000000000e+00,2.100000000000000000e+01
5.197200000000000000e+04,-4.000000000000000327e-05,-4.000000000000000327e-05,-1.100000000000000039e-04,0.000000000000000000e+00,-2.000000000000000164e-05,-6.999999999999999387e-05,-1.199999999999999895e-04,-8.000000000000000654e-05,5.000000000000000000e+00,2.100000000000000000e+01
5.197300000000000000e+04,-4.000000000000000327e-05,-4.000000000000000327e-05,-1.100000000000000039e-04,0.000000000000000000e+00,-2.000000000000000164e-05,-6.999999999999999387e-05,-1.199999999999999895e-04,-8.000000000000000654e-05,5.000000000000000000e+00,2.100000000000000000e+01
5.197400000000000000e+04,-4.000000000000000327e-05,-4.000000000000000327e-05,-1.100000000000000039e-04,0.000000000000000000e+00,-2.000000000000000164e-05,-6.999999999999999387e-05,-1.199999999999999895e-04,-8.000000000000000654e-05,5.000000000000000000e+00,2.100000000000000000e+01
5.197500000000000000e+04,-4.000000000000000327e-05,-4.000000000000000327e-05,-1.100000000000000039e-04,0.000000000000000000e+00,-2.000000000000000164e-05,-6.999999999999999387e-05,-1.199999999999999895e-04,-8.000000000000000654e-05,5.000000000000000000e+00,2.100000000000000000e+01
5.197600000000000000e+04,-4.000000000000000327e-05,-4.000000000000000327e-05,-1.100000000000000039e-04,0.000000000000000000e+00,-2.000000000000000164e-05,-6.999999999999999387e-05,-1.199999999999999895e-04,-8.000000000000000654e-05,5.000000000000000000e+00,2.100000000000000000e+01
5.197700000000000000e+04,-4.000000000000000327e-05,-4.000000000000000327e-05,-1.100000000000000039e-04,0.000000000000000000e+00,-2.000000000000000164e-05,-6.999999999999999387e-05,-1.199999999999999895e-04,-8.000000000000000654e-05,5.000000000000000000e+00,2.100000000000000000e+01
5.197800000000000000e+04,-4.000000000000000327e-05,-4.000000000000000327e-05,-1.100000000000000039e-04,0.000000000000000000e+00,-2.000000000000000164e-05,-6.999999999999999387e-05,-1.199999999999999895e-04,-8.000000000000000654e-05,5.000000000000000000e+00,2.100000000000000000e+01
5.197900000000000000e+04,1.600000000000000131e-04,9.000000000000000567e-05,-1.199999999999999895e-04,-1.000000000000000082e-05,1.100000000000000039e-04,1.600000000000000131e-04,9.000000000000000567e-05,1.000000000000000048e-04,5.000000000000000000e+00,2.100000000000000000e+01
5.198000000000000000e+04,5.000000000000000240e-05,4.000000000000000327e-05,-1.000000000000000048e-04,-2.600000000000000314e-04,-2.000000000000000164e-05,2.999999999999999737e-05,4.000000000000000327e-05,8.000000000000000654e-05,5.000000000000000000e+00,2.100000000000000000e+01
5.198100000000000000e+04,5.000000000000000240e-05,4.000000000000000327e-05,-1.000000000000000048e-04,-2.600000000000000314e-04,-2.000000000000000164e-05,2.999999999999999737e-05,4.000000000000000327e-05,8.000000000000000654e-05,5.000000000000000000e+00,2.100000000000000000e+01
5.198200000000000000e+04,5.000000000000000240e-05,4.000000000000000327e-05,-1.000000000000000048e-04,-2.600000000000000314e-04,-2.000000000000000164e-05,2.999999999999999737e-05,4.000000000000000327e-05,8.000000000000000654e-05,5.000000000000000000e+00,2.100000000000000000e+01
5.198300000000000000e+04,5.000000000000000240e-05,4.000000000000000327e-05,-1.000000000000000048e-04,-2.600000000000000314e-04,-2.000000000000000164e-05,2.999999999999999737e-05,4.000000000000000327e-05,8.000000000000000654e-05,5.000000000000000000e+00,2.100000000000000000e+01
5.198400000000000000e+04,5.000000000000000240e-05,4.000000000000000327e-05,-1.000000000000000048e-04,-2.600000000000000314e-04,-2.000000000000000164e-05,2.999999999999999737e-05,4.000000000000000327e-05,8.000000000000000654e-05,5.000000000000000000e+00,2.100000000000000000e+01
5.198500000000000000e+04,5.000000000000000240e-05,4.000000000000000327e-05,-1.000000000000000048e-04,-2.600000000000000314e-04,-2.000000000000000164e-05,2.999999999999999737e-05,4.000000000000000327e-05,8.000000000000000654e-05,5.000000000000000000e+00,2.100000000000000000e+01
5.198600000000000000e+04,5.000000000000000240e-05,4.000000000000000327e-05,-1.000000000000000048e-04,-2.600000000000000314e-04,-2.000000000000000164e-05,2.999999999999999737e-05,4.000000000000000327e-05,8.000000000000000654e-05,5.000000000000000000e+00,2.100000000000000000e+01
5.198800000000000000e+04,5.000000000000000240e-05,4.000000000000000327e-05,-1.000000000000000048e-04,-2.600000000000000314e-04,-2.000000000000000164e-05,2.999999999999999737e-05,4.000000000000000327e-05,8.000000000000000654e-05,5.000000000000000000e+00,2.100000000000000000e+01
5.198900000000000000e+04,5.000000000000000240e-05,4.000000000000000327e-05,-1.000000000000000048e-04,-2.600000000000000314e-04,-2.000000000000000164e-05,2.999999999999999737e-05,4.000000000000000327e-05,8.000000000000000654e-05,5.000000000000000000e+00,2.100000000000000000e+01
5.199000000000000000e+04,5.000000000000000240e-05,4.000000000000000327e-05,-1.000000000000000048e-04,-2.600000000000000314e-04,-2.000000000000000164e-05,2.999999999999999737e-05,4.000000000000000327e-05,8.000000000000000654e-05,5.000000000000000000e+00,2.100000000000000000e+01
5.199100000000000000e+04,5.000000000000000240e-05,4.000000000000000327e-05,-1.000000000000000048e-04,-2.600000000000000314e-04,-2.000000000000000164e-05,2.999999999999999737e-05,4.000000000000000327e-05,8.000000000000000654e-05,5.000000000000000000e+00,2.100000000000000000e+01
5.199200000000000000e+04,5.000000000000000240e-05,4.000000000000000327e-05,-1.000000000000000048e-04,-2.600000000000000314e-04,-2.000000000000000164e-05,2.999999999999999737e-05,4.000000000000000327e-05,8.000000000000000654e-05,5.000000000000000000e+00,2.100000000000000000e+01
5.199300000000000000e+04,-2.999999999999999737e-05,-1.399999999999999877e-04,1.000000000000000048e-04,0.000000000000000000e+00,-1.100000000000000039e-04,-8.000000000000000654e-05,-4.000000000000000327e-05,1.000000000000000082e-05,5.000000000000000000e+00,2.100000000000000000e+01
5.199400000000000000e+04,-2.999999999999999737e-05,-1.399999999999999877e-04,1.000000000000000048e-04,0.000000000000000000e+00,-1.100000000000000039e-04,-8.000000000000000654e-05,-4.000000000000000327e-05,1.000000000000000082e-05,5.000000000000000000e+00,2.100000000000000000e+01
5.199500000000000000e+04,-2.999999999999999737e-05,-1.399999999999999877e-04,1.000000000000000048e-04,0.000000000000000000e+00,-1.100000000000000039e-04,-8.000000000000000654e-05,-4.000000000000000327e-05,1.000000000000000082e-05,5.000000000000000000e+00,2.100000000000000000e+01
5.199600000000000000e+04,-2.999999999999999737e-05,-1.399999999999999877e-04,1.000000000000000048e-04,0.000000000000000000e+00,-1.100000000000000039e-04,-8.000000000000000654e-05,-4.000000000000000327e-05,1.000000000000000082e-05,5.000000000000000000e+00,2.100000000000000000e+01
5.199700000000000000e+04,-2.999999999999999737e-05,-1.399999999999999877e-04,1.000000000000000048e-04,0.000000000000000000e+00,-1.100000000000000039e-04,-8.000000000000000654e-05,-4.000000000000000327e-05,1.000000000000000082e-05,5.000000000000000000e+00,2.100000000000000000e+01
5.199800000000000000e+04,-2.999999999999999737e-05,-1.399999999999999877e-04,1.000000000000000048e-04,0.000000000000000000e+00,-1.100000000000000039e-04,-8.000000000000000654e-05,-4.000000000000000327e-05,1.000000000000000082e-05,5.000000000000000000e+00,2.100000000000000000e+01
5.199900000000000000e+04,-2.999999999999999737e-05,-1.399999999999999877e-04,1.000000000000000048e-04,0.000000000000000000e+00,-1.100000000000000039e-04,-8.000000000000000654e-05,-4.000000000000000327e-05,1.000000000000000082e-05,5.000000000000000000e+00,2.100000000000000000e+01
5.200000000000000000e+04,6.999999999999999387e-05,1.300000000000000157e-04,1.699999999999999851e-04,-4.000000000000000327e-05,2.999999999999999737e-05,8.000000000000000654e-05,5.999999999999999474e-05,2.999999999999999737e-05,5.000000000000000000e+00,2.100000000000000000e+01
5.200100000000000000e+04,6.999999999999999387e-05,1.300000000000000157e-04,1.699999999999999851e-04,-4.000000000000000327e-05,2.999999999999999737e-05,8.000000000000000654e-05,5.999999999999999474e-05,2.999999999999999737e-05,5.000000000000000000e+00,2.100000000000000000e+01
5.200200000000000000e+04,6.999999999999999387e-05,1.300000000000000157e-04,1.699999999999999851e-04,-4.000000000000000327e-05,2.999999999999999737e-05,8.000000000000000654e-05,5.999999999999999474e-05,2.999999999999999737e-05,5.000000000000000000e+00,2.100000000000000000e+01
5.200300000000000000e+04,6.999999999999999387e-05,1.300000000000000157e-04,1.699999999999999851e-04,-4.000000000000000327e-05,2.999999999999999737e-05,8.000000000000000654e-05,5.999999999999999474e-05,2.999999999999999737e-05,5.000000000000000000e+00,2.100000000000000000e+01
5.200400000000000000e+04,6.999999999999999387e-05,1.300000000000000157e-04,1.699999999999999851e-04,-4.000000000000000327e-05,2.999999999999999737e-05,8.000000000000000654e-05,5.999999999999999474e-05,2.999999999999999737e-05,5.000000000000000000e+00,2.100000000000000000e+01
5.200500000000000000e+04,6.999999999999999387e-05,1.300000000000000157e-04,1.699999999999999851e-04,-4.000000000000000327e-05,2.999999999999999737e-05,8.000000000000000654e-05,5.999999999999999474e-05,2.999999999999999737e-05,5.000000000000000000e+00,2.100000000000000000e+01
5.200600000000000000e+04,6.999999999999999387e-05,1.300000000000000157e-04,1.699999999999999851e-04,-4.000000000000000327e-05,2.999999999999999737e-05,8.000000000000000654e-05,5.999999999999999474e-05,2.999999999999999737e-05,5.000000000000000000e+00,2.100000000000000000e+01
5.200700000000000000e+04,6.999999999999999387e-05,1.300000000000000157e-04,1.699999999999999851e-04,-4.000000000000000327e-05,2.999999999999999737e-05,8.000000000000000654e-05,5.999999999999999474e-05,2.999999999999999737e-05,5.000000000000000000e+00,2.100000000000000000e+01
5.200800000000000000e+04,6.999999999999999387e-05,1.300000000000000157e-04,1.699999999999999851e-04,-4.000000000000000327e-05,2.999999999999999737e-05,8.000000000000000654e-05,5.999999999999999474e-05,2.999999999999999737e-05,5.000000000000000000e+00,2.100000000000000000e+01
5.200900000000000000e+04,6.999999999999999387e-05,1.300000000000000157e-04,1.699999999999999851e-04,-4.000000000000000327e-05,2.999999999999999737e-05,8.000000000000000654e-05,5.999999999999999474e-05,2.999999999999999737e-05,5.000000000000000000e+00,2.100000000000000000e+01
5.201000000000000000e+04,6.999999999999999387e-05,1.300000000000000157e-04,1.699999999999999851e-04,-4.000000000000000327e-05,2.999999999999999737e-05,8.000000000000000654e-05,5.999999999999999474e-05,2.999999999999999737e-05,5.000000000000000000e+00,2.100000000000000000e+01
5.201100000000000000e+04,6.999999999999999387e-05,1.300000000000000157e-04,1.699999999999999851e-04,-4.000000000000000327e-05,2.999999999999999737e-05,8.000000000000000654e-05,5.999999999999999474e-05,2.999999999999999737e-05,5.000000000000000000e+00,2.100000000000000000e+01
5.201200000000000000e+04,6.999999999999999387e-05,1.300000000000000157e-04,1.699999999999999851e-04,-4.000000000000000327e-05,2.999999999999999737e-05,8.000000000000000654e-05,5.999999999999999474e-05,2.999999999999999737e-05,5.000000000000000000e+00,2.100000000000000000e+01
5.201300000000000000e+04,6.999999999999999387e-05,1.300000000000000157e-04,1.699999999999999851e-04,-4.000000000000000327e-05,2.999999999999999737e-05,8.000000000000000654e-05,5.999999999999999474e-05,2.999999999999999737e-05,5.000000000000000000e+00,2.100000000000000000e+01
5.201400000000000000e+04,6.999999999999999387e-05,1.300000000000000157e-04,1.699999999999999851e-04,-4.000000000000000327e-05,2.999999999999999737e-05,8.000000000000000654e-05,5.999999999999999474e-05,2.999999999999999737e-05,5.000000000000000000e+00,2.100000000000000000e+01
5.201500000000000000e+04,6.999999999999999387e-05,1.300000000000000157e-04,1.699999999999999851e-04,-4.000000000000000327e-05,2.999999999999999737e-05,8.000000000000000654e-05,5.999999999999999474e-05,2.999999999999999737e-05,5.000000000000000000e+00,2.100000000000000000e+01
5.201600000000000000e+04,-5.000000000000000240e-05,5.000000000000000240e-05,4.499999999999999877e-04,1.899999999999999834e-04,-2.000000000000000164e-05,-6.999999999999999387e-05,2.000000000000000164e-05,6.999999999999999387e-05,5.000000000000000000e+00,2.100000000000000000e+01
5.201700000000000000e+04,-5.000000000000000240e-05,5.000000000000000240e-05,4.499999999999999877e-04,1.899999999999999834e-04,-2.000000000000000164e-05,-6.999999999999999387e-05,2.000000000000000164e-05,6.999999999999999387e-05,5.000000000000000000e+00,2.100000000000000000e+01
5.201800000000000000e+04,-5.000000000000000240e-05,5.000000000000000240e-05,4.499999999999999877e-04,1.899999999999999834e-04,-2.000000000000000164e-05,-6.999999999999999387e-05,2.000000000000000164e-05,6.999999999999999387e-05,5.000000000000000000e+00,2.100000000000000000e+01
5.201900000000000000e+04,-2.999999999999999737e-05,-4.000000000000000327e-05,4.099999999999999912e-04,5.900000000000000296e-04,6.999999999999999387e-05,-4.000000000000000327e-05,-5.999999999999999474e-05,-2.000000000000000164e-05,5.000000000000000000e+00,2.100000000000000000e+01
5.202000000000000000e+04,-2.999999999999999737e-05,-4.000000000000000327e-05,4.099999999999999912e-04,5.900000000000000296e-04,6.999999999999999387e-05,-4.000000000000000327e-05,-5.999999999999999474e-05,-2.000000000000000164e-05,5.000000000000000000e+00,2.100000000000000000e+01
5.202100000000000000e+04,-2.999999999999999737e-05,-4.000000000000000327e-05,4.099999999999999912e-04,5.900000000000000296e-04,6.999999999999999387e-05,-4.000000000000000327e-05,-5.999999999999999474e-05,-2.000000000000000164e-05,5.000000000000000000e+00,2.100000000000000000e+01
5.202200000000000000e+04,-2.999999999999999737e-05,-4.000000000000000327e-05,4.099999999999999912e-04,5.900000000000000296e-04,6.999999999999999387e-05,-4.000000000000000327e-05,-5.999999999999999474e-05,-2.000000000000000164e-05,5.000000000000000000e+00,2.100000000000000000e+01
5.202300000000000000e+04,-2.999999999999999737e-05,-4.000000000000000327e-05,4.099999999999999912e-04,5.900000000000000296e-04,6.999999999999999387e-05,-4.000000000000000327e-05,-5.999999999999999474e-05,-2.000000000000000164e-05,5.000000000000000000e+00,2.100000000000000000e+01
5.202400000000000000e+04,-2.999999999999999737e-05,-4.000000000000000327e-05,4.099999999999999912e-04,5.900000000000000296e-04,6.999999999999999387e-05,-4.000000000000000327e-05,-5.999999999999999474e-05,-2.000000000000000164e-05,5.000000000000000000e+00,2.100000000000000000e+01
5.202500000000000000e+04,-2.999999999999999737e-05,-4.000000000000000327e-05,4.099999999999999912e-04,5.900000000000000296e-04,6.999999999999999387e-05,-4.000000000000000327e-05,-5.999999999999999474e-05,-2.000000000000000164e-05,5.000000000000000000e+00,2.100000000000000000e+01
5.202600000000000000e+04,-2.999999999999999737e-05,-4.000000000000000327e-05,4.099999999999999912e-04,5.900000000000000296e-04,6.999999999999999387e-05,-4.000000000000000327e-05,-5.999999999999999474e-05,-2.000000000000000164e-05,5.000000000000000000e+00,2.100000000000000000e+01
5.202700000000000000e+04,-2.999999999999999737e-05,-4.000000000000000327e-05,4.099999999999999912e-04,5.900000000000000296e-04,6.999999999999999387e-05,-4.000000000000000327e-05,-5.999999999999999474e-05,-2.000000000000000164e-05,5.000000000000000000e+00,2.100000000000000000e+01
5.202800000000000000e+04,-2.999999999999999737e-05,-4.000000000000000327e-05,4.099999999999999912e-04,5.900000000000000296e-04,6.999999999999999387e-05,-4.000000000000000327e-05,-5.999999999999999474e-05,-2.000000000000000164e-05,5.000000000000000000e+00,2.100000000000000000e+01
5.202900000000000000e+04,-2.999999999999999737e-05,-4.000000000000000327e-05,4.099999999999999912e-04,5.900000000000000296e-04,6.999999999999999387e-05,-4.000000000000000327e-05,-5.999999999999999474e-05,-2.000000000000000164e-05,5.000000000000000000e+00,2.100000000000000000e+01
5.203000000000000000e+04,-2.999999999999999737e-05,-4.000000000000000327e-05,4.099999999999999912e-04,5.900000000000000296e-04,6.999999999999999387e-05,-4.000000000000000327e-05,-5.999999999999999474e-05,-2.000000000000000164e-05,5.000000000000000000e+00,2.100000000000000000e+01
5.203100000000000000e+04,-2.999999999999999737e-05,-4.000000000000000327e-05,4.099999999999999912e-04,5.900000000000000296e-04,6.999999999999999387e-05,-4.000000000000000327e-05,-5.999999999999999474e-05,-2.000000000000000164e-05,5.000000000000000000e+00,2.100000000000000000e+01
5.203200000000000000e+04,-2.999999999999999737e-05,-4.000000000000000327e-05,4.099999999999999912e-04,5.900000000000000296e-04,6.999999999999999387e-05,-4.000000000000000327e-05,-5.999999999999999474e-05,-2.000000000000000164e-05,5.000000000000000000e+00,2.100000000000000000e+01
5.203300000000000000e+04,-2.999999999999999737e-05,-4.000000000000000327e-05,4.099999999999999912e-04,5.900000000000000296e-04,6.999999999999999387e-05,-4.000000000000000327e-05,-5.999999999999999474e-05,-2.000000000000000164e-05,5.000000000000000000e+00,2.100000000000000000e+01
5.203400000000000000e+04,-2.999999999999999737e-05,-4.000000000000000327e-05,4.099999999999999912e-04,5.900000000000000296e-04,6.999999999999999387e-05,-4.000000000000000327e-05,-5.999999999999999474e-05,-2.000000000000000164e-05,5.000000000000000000e+00,2.100000000000000000e+01
5.203500000000000000e+04,-2.999999999999999737e-05,-4.000000000000000327e-05,4.099999999999999912e-04,5.900000000000000296e-04,6.999999999999999387e-05,-4.000000000000000327e-05,-5.999999999999999474e-05,-2.000000000000000164e-05,5.000000000000000000e+00,2.100000000000000000e+01
5.203600000000000000e+04,-2.999999999999999737e-05,-4.000000000000000327e-05,4.099999999999999912e-04,5.900000000000000296e-04,6.999999999999999387e-05,-4.000000000000000327e-05,-5.999999999999999474e-05,-2.000000000000000164e-05,5.000000000000000000e+00,2.100000000000000000e+01
5.203800000000000000e+04,-2.999999999999999737e-05,-4.000000000000000327e-05,4.099999999999999912e-04,5.900000000000000296e-04,6.999999999999999387e-05,-4.000000000000000327e-05,-5.999999999999999474e-05,-2.000000000000000164e-05,5.000000000000000000e+00,2.100000000000000000e+01
5.203900000000000000e+04,-2.999999999999999737e-05,-4.000000000000000327e-05,6.999999999999999387e-05,2.999999999999999737e-04,5.999999999999999474e-05,-4.000000000000000327e-05,-1.000000000000000082e-05,-2.999999999999999737e-05,5.000000000000000000e+00,2.100000000000000000e+01
5.204000000000000000e+04,-2.999999999999999737e-05,-4.000000000000000327e-05,6.999999999999999387e-05,2.999999999999999737e-04,5.999999999999999474e-05,-4.000000000000000327e-05,-1.000000000000000082e-05,-2.999999999999999737e-05,5.000000000000000000e+00,2.100000000000000000e+01
5.204100000000000000e+04,2.000000000000000164e-05,-5.000000000000000240e-05,-2.000000000000000096e-04,-1.100000000000000039e-04,-6.999999999999999387e-05,-4.000000000000000327e-05,-2.000000000000000164e-05,4.000000000000000327e-05,5.000000000000000000e+00,2.100000000000000000e+01
5.204200000000000000e+04,2.000000000000000164e-05,-5.000000000000000240e-05,-2.000000000000000096e-04,-1.100000000000000039e-04,-6.999999999999999387e-05,-4.000000000000000327e-05,-2.000000000000000164e-05,4.000000000000000327e-05,5.000000000000000000e+00,2.100000000000000000e+01
5.204300000000000000e+04,2.000000000000000164e-05,-5.000000000000000240e-05,-2.000000000000000096e-04,-1.100000000000000039e-04,-6.999999999999999387e-05,-4.000000000000000327e-05,-2.000000000000000164e-05,4.000000000000000327e-05,5.000000000000000000e+00,2.100000000000000000e+01
5.204400000000000000e+04,2.000000000000000164e-05,-5.000000000000000240e-05,-2.000000000000000096e-04,-1.100000000000000039e-04,-6.999999999999999387e-05,-4.000000000000000327e-05,-2.000000000000000164e-05,4.000000000000000327e-05,5.000000000000000000e+00,2.100000000000000000e+01
5.204500000000000000e+04,2.000000000000000164e-05,-5.000000000000000240e-05,-2.000000000000000096e-04,-1.100000000000000039e-04,-6.999999999999999387e-05,-4.000000000000000327e-05,-2.000000000000000164e-05,4.000000000000000327e-05,5.000000000000000000e+00,2.100000000000000000e+01
5.204600000000000000e+04,2.000000000000000164e-05,-5.000000000000000240e-05,-2.000000000000000096e-04,-1.100000000000000039e-04,-6.999999999999999387e-05,-4.000000000000000327e-05,-2.000000000000000164e-05,4.000000000000000327e-05,5.000000000000000000e+00,2.100000000000000000e+01
5.204700000000000000e+04,2.000000000000000164e-05,-5.000000000000000240e-05,-2.000000000000000096e-04,-1.100000000000000039e-04,-6.999999999999999387e-05,-4.000000000000000327e-05,-2.000000000000000164e-05,4.000000000000000327e-05,5.000000000000000000e+00,2.100000000000000000e+01
5.204800000000000000e+04,2.000000000000000164e-05,-5.000000000000000240e-05,-2.000000000000000096e-04,-1.100000000000000039e-04,-6.999999999999999387e-05,-4.000000000000000327e-05,-2.000000000000000164e-05,4.000000000000000327e-05,5.000000000000000000e+00,2.100000000000000000e+01
5.204900000000000000e+04,2.000000000000000164e-05,-5.000000000000000240e-05,-2.000000000000000096e-04,-1.100000000000000039e-04,-6.999999999999999387e-05,-4.000000000000000327e-05,-2.000000000000000164e-05,4.000000000000000327e-05,5.000000000000000000e+00,2.100000000000000000e+01
5.205000000000000000e+04,2.000000000000000164e-05,-5.000000000000000240e-05,-2.000000000000000096e-04,-1.100000000000000039e-04,-6.999999999999999387e-05,-4.000000000000000327e-05,-2.000000000000000164e-05,4.000000000000000327e-05,5.000000000000000000e+00,2.100000000000000000e+01
5.205100000000000000e+04,2.000000000000000164e-05,-5.000000000000000240e-05,-2.000000000000000096e-04,-1.100000000000000039e-04,-6.999999999999999387e-05,-4.000000000000000327e-05,-2.000000000000000164e-05,4.000000000000000327e-05,5.000000000000000000e+00,2.100000000000000000e+01
5.205200000000000000e+04,2.000000000000000164e-05,-5.000000000000000240e-05,-2.000000000000000096e-04,-1.100000000000000039e-04,-6.999999999999999387e-05,-4.000000000000000327e-05,-2.000000000000000164e-05,4.000000000000000327e-05,5.000000000000000000e+00,2.100000000000000000e+01
5.205300000000000000e+04,-2.000000000000000164e-05,5.999999999999999474e-05,-1.000000000000000048e-04,-3.099999999999999999e-04,-1.600000000000000131e-04,-5.000000000000000240e-05,2.000000000000000164e-05,-1.000000000000000082e-05,5.000000000000000000e+00,2.100000000000000000e+01
5.205400000000000000e+04,-2.000000000000000164e-05,5.999999999999999474e-05,-1.000000000000000048e-04,-3.099999999999999999e-04,-1.600000000000000131e-04,-5.000000000000000240e-05,2.000000000000000164e-05,-1.000000000000000082e-05,5.000000000000000000e+00,2.100000000000000000e+01
5.205500000000000000e+04,-2.000000000000000164e-05,5.999999999999999474e-05,-1.000000000000000048e-04,-3.099999999999999999e-04,-1.600000000000000131e-04,-5.000000000000000240e-05,2.000000000000000164e-05,-1.000000000000000082e-05,5.000000000000000000e+00,2.100000000000000000e+01
5.205600000000000000e+04,-2.000000000000000164e-05,5.999999999999999474e-05,-1.000000000000000048e-04,-3.099999999999999999e-04,-1.600000000000000131e-04,-5.000000000000000240e-05,2.000000000000000164e-05,-1.000000000000000082e-05,5.000000000000000000e+00,2.100000000000000000e+01
5.205700000000000000e+04,-2.000000000000000164e-05,5.999999999999999474e-05,-1.000000000000000048e-04,-3.099999999999999999e-04,-1.600000000000000131e-04,-5.000000000000000240e-05,2.000000000000000164e-05,-1.000000000000000082e-05,5.000000000000000000e+00,2.100000000000000000e+01
5.205800000000000000e+04,-2.000000000000000164e-05,5.999999999999999474e-05,-1.000000000000000048e-04,-3.099999999999999999e-04,-1.600000000000000131e-04,-5.000000000000000240e-05,2.000000000000000164e-05,-1.000000000000000082e-05,5.000000000000000000e+00,2.100000000000000000e+01
5.205900000000000000e+04,-2.000000000000000164e-05,5.999999999999999474e-05,-1.000000000000000048e-04,-3.099999999999999999e-04,-1.600000000000000131e-04,-5.000000000000000240e-05,2.000000000000000164e-05,-1.000000000000000082e-05,5.000000000000000000e+00,2.100000000000000000e+01
5.206000000000000000e+04,0.000000000000000000e+00,-1.100000000000000039e-04,-6.199999999999999999e-04,5.699999999999999772e-04,4.000000000000000327e-05,6.999999999999999387e-05,5.000000000000000240e-05,2.000000000000000164e-05,5.000000000000000000e+00,2.100000000000000000e+01
5.206100000000000000e+04,0.000000000000000000e+00,-1.100000000000000039e-04,-6.199999999999999999e-04,5.699999999999999772e-04,4.000000000000000327e-05,6.999999999999999387e-05,5.000000000000000240e-05,2.000000000000000164e-05,5.000000000000000000e+00,2.100000000000000000e+01
5.206200000000000000e+04,0.000000000000000000e+00,-1.100000000000000039e-04,-6.199999999999999999e-04,5.699999999999999772e-04,4.000000000000000327e-05,6.999999999999999387e-05,5.000000000000000240e-05,2.000000000000000164e-05,5.000000000000000000e+00,2.100000000000000000e+01
5.206300000000000000e+04,0.000000000000000000e+00,-1.100000000000000039e-04,-6.199999999999999999e-04,5.699999999999999772e-04,4.000000000000000327e-05,6.999999999999999387e-05,5.000000000000000240e-05,2.000000000000000164e-05,5.000000000000000000e+00,2.100000000000000000e+01
5.206400000000000000e+04,0.000000000000000000e+00,-1.100000000000000039e-04,-6.199999999999999999e-04,5.699999999999999772e-04,4.000000000000000327e-05,6.999999999999999387e-05,5.000000000000000240e-05,2.000000000000000164e-05,5.000000000000000000e+00,2.100000000000000000e+01
5.206500000000000000e+04,0.000000000000000000e+00,-1.100000000000000039e-04,-6.199999999999999999e-04,5.699999999999999772e-04,4.000000000000000327e-05,6.999999999999999387e-05,5.000000000000000240e-05,2.000000000000000164e-05,5.000000000000000000e+00,2.100000000000000000e+01
5.206600000000000000e+04,0.000000000000000000e+00,-1.100000000000000039e-04,-6.199999999999999999e-04,5.699999999999999772e-04,4.000000000000000327e-05,6.999999999999999387e-05,5.000000000000000240e-05,2.000000000000000164e-05,5.000000000000000000e+00,2.100000000000000000e+01
5.206700000000000000e+04,0.000000000000000000e+00,-1.100000000000000039e-04,-6.199999999999999999e-04,5.699999999999999772e-04,4.000000000000000327e-05,6.999999999999999387e-05,5.000000000000000240e-05,2.000000000000000164e-05,5.000000000000000000e+00,2.100000000000000000e+01
5.206800000000000000e+04,0.000000000000000000e+00,-1.100000000000000039e-04,-6.199999999999999999e-04,5.699999999999999772e-04,4.000000000000000327e-05,6.999999999999999387e-05,5.000000000000000240e-05,2.000000000000000164e-05,5.000000000000000000e+00,2.100000000000000000e+01
5.206900000000000000e+04,0.000000000000000000e+00,-1.100000000000000039e-04,-6.199999999999999999e-04,5.699999999999999772e-04,4.000000000000000327e-05,6.999999999999999387e-05,5.000000000000000240e-05,2.000000000000000164e-05,5.000000000000000000e+00,2.100000000000000000e+01
5.207000000000000000e+04,0.000000000000000000e+00,-1.100000000000000039e-04,-6.199999999999999999e-04,5.699999999999999772e-04,4.000000000000000327e-05,6.999999999999999387e-05,5.000000000000000240e-05,2.000000000000000164e-05,5.000000000000000000e+00,2.100000000000000000e+01
5.207100000000000000e+04,0.000000000000000000e+00,-1.100000000000000039e-04,-6.199999999999999999e-04,5.699999999999999772e-04,4.000000000000000327e-05,6.999999999999999387e-05,5.000000000000000240e-05,2.000000000000000164e-05,5.000000000000000000e+00,2.100000000000000000e+01
5.207200000000000000e+04,0.000000000000000000e+00,-1.100000000000000039e-04,-6.199999999999999999e-04,5.699999999999999772e-04,4.000000000000000327e-05,6.999999999999999387e-05,5.000000000000000240e-05,2.000000000000000164e-05,5.000000000000000000e+00,2.100000000000000000e+01
5.207300000000000000e+04,0.000000000000000000e+00,-1.100000000000000039e-04,-6.199999999999999999e-04,5.699999999999999772e-04,4.000000000000000327e-05,6.999999999999999387e-05,5.000000000000000240e-05,2.000000000000000164e-05,5.000000000000000000e+00,2.100000000000000000e+01
5.207400000000000000e+04,0.000000000000000000e+00,-1.100000000000000039e-04,-6.199999999999999999e-04,5.699999999999999772e-04,4.000000000000000327e-05,6.999999999999999387e-05,5.000000000000000240e-05,2.000000000000000164e-05,5.000000000000000000e+00,2.100000000000000000e+01
5.207500000000000000e+04,0.000000000000000000e+00,-1.100000000000000039e-04,-6.199999999999999999e-04,5.699999999999999772e-04,4.000000000000000327e-05,6.999999999999999387e-05,5.000000000000000240e-05,2.000000000000000164e-05,5.000000000000000000e+00,2.100000000000000000e+01
5.207600000000000000e+04,-4.000000000000000327e-05,-4.000000000000000327e-05,8.000000000000000654e-05,-1.600000000000000131e-04,-6.999999999999999387e-05,-5.999999999999999474e-05,-2.999999999999999737e-05,-2.999999999999999737e-05,5.000000000000000000e+00,2.100000000000000000e+01
5.207700000000000000e+04,-4.000000000000000327e-05,-4.000000000000000327e-05,8.000000000000000654e-05,-1.600000000000000131e-04,-6.999999999999999387e-05,-5.999999999999999474e-05,-2.999999999999999737e-05,-2.999999999999999737e-05,5.000000000000000000e+00,2.100000000000000000e+01
5.207800000000000000e+04,0.000000000000000000e+00,4.000000000000000327e-05,2.000000000000000164e-05,-1.300000000000000157e-04,-1.000000000000000082e-05,2.999999999999999737e-05,2.000000000000000164e-05,-1.000000000000000082e-05,5.000000000000000000e+00,2.100000000000000000e+01
5.207900000000000000e+04,0.000000000000000000e+00,4.000000000000000327e-05,2.000000000000000164e-05,-1.300000000000000157e-04,-1.000000000000000082e-05,2.999999999999999737e-05,2.000000000000000164e-05,-1.000000000000000082e-05,5.000000000000000000e+00,2.100000000000000000e+01
5.208000000000000000e+04,0.000000000000000000e+00,4.000000000000000327e-05,2.000000000000000164e-05,-1.300000000000000157e-04,-1.000000000000000082e-05,2.999999999999999737e-05,2.000000000000000164e-05,-1.000000000000000082e-05,5.000000000000000000e+00,2.100000000000000000e+01
5.208100000000000000e+04,0.000000000000000000e+00,4.000000000000000327e-05,2.000000000000000164e-05,-1.300000000000000157e-04,-1.000000000000000082e-05,2.999999999999999737e-05,2.000000000000000164e-05,-1.000000000000000082e-05,5.000000000000000000e+00,2.100000000000000000e+01
5.208200000000000000e+04,0.000000000000000000e+00,4.000000000000000327e-05,2.000000000000000164e-05,-1.300000000000000157e-04,-1.000000000000000082e-05,2.999999999999999737e-05,2.000000000000000164e-05,-1.000000000000000082e-05,5.000000000000000000e+00,2.100000000000000000e+01
5.208300000000000000e+04,0.000000000000000000e+00,4.000000000000000327e-05,2.000000000000000164e-05,-1.300000000000000157e-04,-1.000000000000000082e-05,2.999999999999999737e-05,2.000000000000000164e-05,-1.000000000000000082e-05,5.000000000000000000e+00,2.100000000000000000e+01
5.208400000000000000e+04,0.000000000000000000e+00,4.000000000000000327e-05,2.000000000000000164e-05,-1.300000000000000157e-04,-1.000000000000000082e-05,2.999999999999999737e-05,2.000000000000000164e-05,-1.000000000000000082e-05,5.000000000000000000e+00,2.100000000000000000e+01
5.208500000000000000e+04,0.000000000000000000e+00,4.000000000000000327e-05,2.000000000000000164e-05,-1.300000000000000157e-04,-1.000000000000000082e-05,2.999999999999999737e-05,2.000000000000000164e-05,-1.000000000000000082e-05,5.000000000000000000e+00,2.100000000000000000e+01
5.208600000000000000e+04,0.000000000000000000e+00,4.000000000000000327e-05,2.000000000000000164e-05,-1.300000000000000157e-04,-1.000000000000000082e-05,2.999999999999999737e-05,2.000000000000000164e-05,-1.000000000000000082e-05,5.000000000000000000e+00,2.100000000000000000e+01
5.208800000000000000e+04,0.000000000000000000e+00,4.000000000000000327e-05,2.000000000000000164e-05,-1.300000000000000157e-04,-1.000000000000000082e-05,2.999999999999999737e-05,2.000000000000000164e-05,-1.000000000000000082e-05,5.000000000000000000e+00,2.100000000000000000e+01
5.208900000000000000e+04,0.000000000000000000e+00,4.000000000000000327e-05,2.000000000000000164e-05,-1.300000000000000157e-04,-1.000000000000000082e-05,2.999999999999999737e-05,2.000000000000000164e-05,-1.000000000000000082e-05,5.000000000000000000e+00,2.100000000000000000e+01
5.209000000000000000e+04,0.000000000000000000e+00,4.000000000000000327e-05,2.000000000000000164e-05,-1.300000000000000157e-04,-1.000000000000000082e-05,2.999999999999999737e-05,2.000000000000000164e-05,-1.000000000000000082e-05,5.000000000000000000e+00,2.100000000000000000e+01
5.209100000000000000e+04,0.000000000000000000e+00,4.000000000000000327e-05,2.000000000000000164e-05,-1.300000000000000157e-04,-1.000000000000000082e-05,2.999999999999999737e-05,2.000000000000000164e-05,-1.000000000000000082e-05,5.000000000000000000e+00,2.100000000000000000e+01
5.209200000000000000e+04,0.000000000000000000e+00,4.000000000000000327e-05,2.000000000000000164e-05,-1.300000000000000157e-04,-1.000000000000000082e-05,2.999999999999999737e-05,2.000000000000000164e-05,-1.000000000000000082e-05,5.000000000000000000e+00,2.100000000000000000e+01
5.209300000000000000e+04,0.000000000000000000e+00,4.000000000000000327e-05,2.000000000000000164e-05,-1.300000000000000157e-04,-1.000000000000000082e-05,2.999999999999999737e-05,2.000000000000000164e-05,-1.000000000000000082e-05,5.000000000000000000e+00,2.100000000000000000e+01
5.209400000000000000e+04,0.000000000000000000e+00,4.000000000000000327e-05,2.000000000000000164e-05,-1.300000000000000157e-04,-1.000000000000000082e-05,2.999999999999999737e-05,2.000000000000000164e-05,-1.000000000000000082e-05,5.000000000000000000e+00,2.100000000000000000e+01
5.209500000000000000e+04,0.000000000000000000e+00,4.000000000000000327e-05,2.000000000000000164e-05,-1.300000000000000157e-04,-1.000000000000000082e-05,2.999999999999999737e-05,2.000000000000000164e-05,-1.000000000000000082e-05,5.000000000000000000e+00,2.100000000000000000e+01
5.209600000000000000e+04,0.000000000000000000e+00,4.000000000000000327e-05,2.000000000000000164e-05,-1.300000000000000157e-04,-1.000000000000000082e-05,2.999999999999999737e-05,2.000000000000000164e-05,-1.000000000000000082e-05,5.000000000000000000e+00,2.100000000000000000e+01
5.209700000000000000e+04,0.000000000000000000e+00,4.000000000000000327e-05,2.000000000000000164e-05,-1.300000000000000157e-04,-1.000000000000000082e-05,2.999999999999999737e-05,2.000000000000000164e-05,-1.000000000000000082e-05,5.000000000000000000e+00,2.100000000000000000e+01
5.209800000000000000e+04,0.000000000000000000e+00,4.000000000000000327e-05,2.000000000000000164e-05,-1.300000000000000157e-04,-1.000000000000000082e-05,2.999999999999999737e-05,2.000000000000000164e-05,-1.000000000000000082e-05,5.000000000000000000e+00,2.100000000000000000e+01
5.209900000000000000e+04,0.000000000000000000e+00,-2.000000000000000164e-05,4.099999999999999912e-04,5.699999999999999772e-04,0.000000000000000000e+00,1.000000000000000082e-05,2.000000000000000164e-05,1.000000000000000082e-05,5.000000000000000000e+00,2.100000000000000000e+01
5.210000000000000000e+04,-9.000000000000000567e-05,1.000000000000000082e-05,1.899999999999999834e-04,-9.000000000000000567e-05,-1.000000000000000048e-04,-5.000000000000000240e-05,-8.000000000000000654e-05,-8.000000000000000654e-05,5.000000000000000000e+00,2.100000000000000000e+01
5.210100000000000000e+04,-9.000000000000000567e-05,1.000000000000000082e-05,1.899999999999999834e-04,-9.000000000000000567e-05,-1.000000000000000048e-04,-5.000000000000000240e-05,-8.000000000000000654e-05,-8.000000000000000654e-05,5.000000000000000000e+00,2.100000000000000000e+01
5.210200000000000000e+04,-9.000000000000000567e-05,1.000000000000000082e-05,1.899999999999999834e-04,-9.000000000000000567e-05,-1.000000000000000048e-04,-5.000000000000000240e-05,-8.000000000000000654e-05,-8.000000000000000654e-05,5.000000000000000000e+00,2.100000000000000000e+01
5.210300000000000000e+04,-9.000000000000000567e-05,1.000000000000000082e-05,1.899999999999999834e-04,-9.000000000000000567e-05,-1.000000000000000048e-04,-5.000000000000000240e-05,-8.000000000000000654e-05,-8.000000000000000654e-05,5.000000000000000000e+00,2.100000000000000000e+01
5.210400000000000000e+04,-9.000000000000000567e-05,1.000000000000000082e-05,1.899999999999999834e-04,-9.000000000000000567e-05,-1.000000000000000048e-04,-5.000000000000000240e-05,-8.000000000000000654e-05,-8.000000000000000654e-05,5.000000000000000000e+00,2.100000000000000000e+01
5.210500000000000000e+04,-9.000000000000000567e-05,1.000000000000000082e-05,1.899999999999999834e-04,-9.000000000000000567e-05,-1.000000000000000048e-04,-5.000000000000000240e-05,-8.000000000000000654e-05,-8.000000000000000654e-05,5.000000000000000000e+00,2.100000000000000000e+01
5.210600000000000000e+04,-9.000000000000000567e-05,1.000000000000000082e-05,1.899999999999999834e-04,-9.000000000000000567e-05,-1.000000000000000048e-04,-5.000000000000000240e-05,-8.000000000000000654e-05,-8.000000000000000654e-05,5.000000000000000000e+00,2.100000000000000000e+01
5.210700000000000000e+04,-9.000000000000000567e-05,1.000000000000000082e-05,1.899999999999999834e-04,-9.000000000000000567e-05,-1.000000000000000048e-04,-5.000000000000000240e-05,-8.000000000000000654e-05,-8.000000000000000654e-05,5.000000000000000000e+00,2.100000000000000000e+01
5.210800000000000000e+04,-9.000000000000000567e-05,1.000000000000000082e-05,1.899999999999999834e-04,-9.000000000000000567e-05,-1.000000000000000048e-04,-5.000000000000000240e-05,-8.000000000000000654e-05,-8.000000000000000654e-05,5.000000000000000000e+00,2.100000000000000000e+01
5.210900000000000000e+04,-9.000000000000000567e-05,1.000000000000000082e-05,1.899999999999999834e-04,-9.000000000000000567e-05,-1.000000000000000048e-04,-5.000000000000000240e-05,-8.000000000000000654e-05,-8.000000000000000654e-05,5.000000000000000000e+00,2.100000000000000000e+01
5.211000000000000000e+04,-9.000000000000000567e-05,1.000000000000000082e-05,1.899999999999999834e-04,-9.000000000000000567e-05,-1.000000000000000048e-04,-5.000000000000000240e-05,-8.000000000000000654e-05,-8.000000000000000654e-05,5.000000000000000000e+00,2.100000000000000000e+01
5.211100000000000000e+04,-9.000000000000000567e-05,1.000000000000000082e-05,1.899999999999999834e-04,-9.000000000000000567e-05,-1.000000000000000048e-04,-5.000000000000000240e-05,-8.000000000000000654e-05,-8.000000000000000654e-05,5.000000000000000000e+00,2.100000000000000000e+01
5.211200000000000000e+04,-9.000000000000000567e-05,1.000000000000000082e-05,1.899999999999999834e-04,-9.000000000000000567e-05,-1.000000000000000048e-04,-5.000000000000000240e-05,-8.000000000000000654e-05,-8.000000000000000654e-05,5.000000000000000000e+00,2.100000000000000000e+01
5.211300000000000000e+04,2.000000000000000164e-05,5.000000000000000240e-05,3.899999999999999929e-04,2.100000000000000087e-04,1.000000000000000082e-05,-5.000000000000000240e-05,-1.000000000000000048e-04,-2.999999999999999737e-05,5.000000000000000000e+00,2.100000000000000000e+01
5.211400000000000000e+04,2.000000000000000164e-05,5.000000000000000240e-05,3.899999999999999929e-04,2.100000000000000087e-04,1.000000000000000082e-05,-5.000000000000000240e-05,-1.000000000000000048e-04,-2.999999999999999737e-05,5.000000000000000000e+00,2.100000000000000000e+01
5.211500000000000000e+04,2.000000000000000164e-05,5.000000000000000240e-05,3.899999999999999929e-04,2.100000000000000087e-04,1.000000000000000082e-05,-5.000000000000000240e-05,-1.000000000000000048e-04,-2.999999999999999737e-05,5.000000000000000000e+00,2.100000000000000000e+01
5.211600000000000000e+04,2.000000000000000164e-05,5.000000000000000240e-05,3.899999999999999929e-04,2.100000000000000087e-04,1.000000000000000082e-05,-5.000000000000000240e-05,-1.000000000000000048e-04,-2.999999999999999737e-05,5.000000000000000000e+00,2.100000000000000000e+01
5.211700000000000000e+04,2.000000000000000164e-05,5.000000000000000240e-05,3.899999999999999929e-04,2.100000000000000087e-04,1.000000000000000082e-05,-5.000000000000000240e-05,-1.000000000000000048e-04,-2.999999999999999737e-05,5.000000000000000000e+00,2.100000000000000000e+01
5.211800000000000000e+04,2.000000000000000164e-05,5.000000000000000240e-05,3.899999999999999929e-04,2.100000000000000087e-04,1.000000000000000082e-05,-5.000000000000000240e-05,-1.000000000000000048e-04,-2.999999999999999737e-05,5.000000000000000000e+00,2.100000000000000000e+01
5.211900000000000000e+04,2.000000000000000164e-05,5.000000000000000240e-05,3.899999999999999929e-04,2.100000000000000087e-04,1.000000000000000082e-05,-5.000000000000000240e-05,-1.000000000000000048e-04,-2.999999999999999737e-05,5.000000000000000000e+00,2.100000000000000000e+01
5.212000000000000000e+04,0.000000000000000000e+00,2.000000000000000164e-05,-3.299999999999999982e-04,-2.100000000000000087e-04,-6.999999999999999387e-05,-5.000000000000000240e-05,-5.000000000000000240e-05,2.000000000000000164e-05,5.000000000000000000e+00,2.100000000000000000e+01
5.212100000000000000e+04,0.000000000000000000e+00,2.000000000000000164e-05,-3.299999999999999982e-04,-2.100000000000000087e-04,-6.999999999999999387e-05,-5.000000000000000240e-05,-5.000000000000000240e-05,2.000000000000000164e-05,5.000000000000000000e+00,2.100000000000000000e+01
5.212200000000000000e+04,0.000000000000000000e+00,2.000000000000000164e-05,-3.299999999999999982e-04,-2.100000000000000087e-04,-6.999999999999999387e-05,-5.000000000000000240e-05,-5.000000000000000240e-05,2.000000000000000164e-05,5.000000000000000000e+00,2.100000000000000000e+01
5.212300000000000000e+04,0.000000000000000000e+00,2.000000000000000164e-05,-3.299999999999999982e-04,-2.100000000000000087e-04,-6.999999999999999387e-05,-5.000000000000000240e-05,-5.000000000000000240e-05,2.000000000000000164e-05,5.000000000000000000e+00,2.100000000000000000e+01
5.212400000000000000e+04,0.000000000000000000e+00,2.000000000000000164e-05,-3.299999999999999982e-04,-2.100000000000000087e-04,-6.999999999999999387e-05,-5.000000000000000240e-05,-5.000000000000000240e-05,2.000000000000000164e-05,5.000000000000000000e+00,2.100000000000000000e+01
5.212500000000000000e+04,0.000000000000000000e+00,2.000000000000000164e-05,-3.299999999999999982e-04,-2.100000000000000087e-04,-6.999999999999999387e-05,-5.000000000000000240e-05,-5.000000000000000240e-05,2.000000000000000164e-05,5.000000000000000000e+00,2.100000000000000000e+01
5.212600000000000000e+04,0.000000000000000000e+00,2.000000000000000164e-05,-3.299999999999999982e-04,-2.100000000000000087e-04,-6.999999999999999387e-05,-5.000000000000000240e-05,-5.000000000000000240e-05,2.000000000000000164e-05,5.000000000000000000e+00,2.100000000000000000e+01
5.212700000000000000e+04,0.000000000000000000e+00,2.000000000000000164e-05,-3.299999999999999982e-04,-2.100000000000000087e-04,-6.999999999999999387e-05,-5.000000000000000240e-05,-5.000000000000000240e-05,2.000000000000000164e-05,5.000000000000000000e+00,2.100000000000000000e+01
5.212800000000000000e+04,0.000000000000000000e+00,2.000000000000000164e-05,-3.299999999999999982e-04,-2.100000000000000087e-04,-6.999999999999999387e-05,-5.000000000000000240e-05,-5.000000000000000240e-05,2.000000000000000164e-05,5.000000000000000000e+00,2.100000000000000000e+01
5.212900000000000000e+04,0.000000000000000000e+00,2.000000000000000164e-05,-3.299999999999999982e-04,-2.100000000000000087e-04,-6.999999999999999387e-05,-5.000000000000000240e-05,-5.000000000000000240e-05,2.000000000000000164e-05,5.000000000000000000e+00,2.100000000000000000e+01
5.213000000000000000e+04,0.000000000000000000e+00,2.000000000000000164e-05,-3.299999999999999982e-04,-2.100000000000000087e-04,-6.999999999999999387e-05,-5.000000000000000240e-05,-5.000000000000000240e-05,2.000000000000000164e-05,5.000000000000000000e+00,2.100000000000000000e+01
5.213100000000000000e+04,0.000000000000000000e+00,2.000000000000000164e-05,-3.299999999999999982e-04,-2.100000000000000087e-04,-6.999999999999999387e-05,-5.000000000000000240e-05,-5.000000000000000240e-05,2.000000000000000164e-05,5.000000000000000000e+00,2.100000000000000000e+01
5.213200000000000000e+04,0.000000000000000000e+00,2.000000000000000164e-05,-3.299999999999999982e-04,-2.100000000000000087e-04,-6.999999999999999387e-05,-5.000000000000000240e-05,-5.000000000000000240e-05,2.000000000000000164e-05,5.000000000000000000e+00,2.100000000000000000e+01
5.213300000000000000e+04,0.000000000000000000e+00,2.000000000000000164e-05,-3.299999999999999982e-04,-2.100000000000000087e-04,-6.999999999999999387e-05,-5.000000000000000240e-05,-5.000000000000000240e-05,2.000000000000000164e-05,5.000000000000000000e+00,2.100000000000000000e+01
5.213400000000000000e+04,0.000000000000000000e+00,2.000000000000000164e-05,-3.299999999999999982e-04,-2.100000000000000087e-04,-6.999999999999999387e-05,-5.000000000000000240e-05,-5.000000000000000240e-05,2.000000000000000164e-05,5.000000000000000000e+00,2.100000000000000000e+01
5.213500000000000000e+04,0.000000000000000000e+00,2.000000000000000164e-05,-3.299999999999999982e-04,-2.100000000000000087e-04,-6.999999999999999387e-05,-5.000000000000000240e-05,-5.000000000000000240e-05,2.000000000000000164e-05,5.000000000000000000e+00,2.100000000000000000e+01
5.213600000000000000e+04,2.999999999999999737e-05,2.000000000000000164e-05,-2.700000000000000035e-04,-1.600000000000000131e-04,0.000000000000000000e+00,0.000000000000000000e+00,0.000000000000000000e+00,0.000000000000000000e+00,5.000000000000000000e+00,2.100000000000000000e+01
5.213800000000000000e+04,-8.000000000000000654e-05,-5.000000000000000240e-05,1.699999999999999851e-04,-2.000000000000000164e-05,-4.000000000000000327e-05,-5.000000000000000240e-05,1.000000000000000082e-05,-5.999999999999999474e-05,5.000000000000000000e+00,2.100000000000000000e+01
5.213900000000000000e+04,-8.000000000000000654e-05,-5.000000000000000240e-05,1.699999999999999851e-04,-2.000000000000000164e-05,-4.000000000000000327e-05,-5.000000000000000240e-05,1.000000000000000082e-05,-5.999999999999999474e-05,5.000000000000000000e+00,2.100000000000000000e+01
5.214000000000000000e+04,-8.000000000000000654e-05,-5.000000000000000240e-05,1.699999999999999851e-04,-2.000000000000000164e-05,-4.000000000000000327e-05,-5.000000000000000240e-05,1.000000000000000082e-05,-5.999999999999999474e-05,5.000000000000000000e+00,2.100000000000000000e+01
5.214100000000000000e+04,-8.000000000000000654e-05,-5.000000000000000240e-05,1.699999999999999851e-04,-2.000000000000000164e-05,-4.000000000000000327e-05,-5.000000000000000240e-05,1.000000000000000082e-05,-5.999999999999999474e-05,5.000000000000000000e+00,2.100000000000000000e+01
5.214200000000000000e+04,-8.000000000000000654e-05,-5.000000000000000240e-05,1.699999999999999851e-04,-2.000000000000000164e-05,-4.000000000000000327e-05,-5.000000000000000240e-05,1.000000000000000082e-05,-5.999999999999999474e-05,5.000000000000000000e+00,2.100000000000000000e+01
5.214300000000000000e+04,-8.000000000000000654e-05,-5.000000000000000240e-05,1.699999999999999851e-04,-2.000000000000000164e-05,-4.000000000000000327e-05,-5.000000000000000240e-05,1.000000000000000082e-05,-5.999999999999999474e-05,5.000000000000000000e+00,2.100000000000000000e+01
5.214400000000000000e+04,-8.000000000000000654e-05,-5.000000000000000240e-05,1.699999999999999851e-04,-2.000000000000000164e-05,-4.000000000000000327e-05,-5.000000000000000240e-05,1.000000000000000082e-05,-5.999999999999999474e-05,5.000000000000000000e+00,2.100000000000000000e+01
5.214500000000000000e+04,-8.000000000000000654e-05,-5.000000000000000240e-05,1.699999999999999851e-04,-2.000000000000000164e-05,-4.000000000000000327e-05,-5.000000000000000240e-05,1.000000000000000082e-05,-5.999999999999999474e-05,5.000000000000000000e+00,2.100000000000000000e+01
5.214600000000000000e+04,-8.000000000000000654e-05,-5.000000000000000240e-05,1.699999999999999851e-04,-2.000000000000000164e-05,-4.000000000000000327e-05,-5.000000000000000240e-05,1.000000000000000082e-05,-5.999999999999999474e-05,5.000000000000000000e+00,2.100000000000000000e+01
5.214700000000000000e+04,-8.000000000000000654e-05,-5.000000000000000240e-05,1.699999999999999851e-04,-2.000000000000000164e-05,-4.000000000000000327e-05,-5.000000000000000240e-05,1.000000000000000082e-05,-5.999999999999999474e-05,5.000000000000000000e+00,2.100000000000000000e+01
5.214800000000000000e+04,-8.000000000000000654e-05,-5.000000000000000240e-05,1.699999999999999851e-04,-2.000000000000000164e-05,-4.000000000000000327e-05,-5.000000000000000240e-05,1.000000000000000082e-05,-5.999999999999999474e-05,5.000000000000000000e+00,2.100000000000000000e+01
5.214900000000000000e+04,-8.000000000000000654e-05,-5.000000000000000240e-05,1.699999999999999851e-04,-2.000000000000000164e-05,-4.000000000000000327e-05,-5.000000000000000240e-05,1.000000000000000082e-05,-5.999999999999999474e-05,5.000000000000000000e+00,2.100000000000000000e+01
5.215000000000000000e+04,-8.000000000000000654e-05,-5.000000000000000240e-05,1.699999999999999851e-04,-2.000000000000000164e-05,-4.000000000000000327e-05,-5.000000000000000240e-05,1.000000000000000082e-05,-5.999999999999999474e-05,5.000000000000000000e+00,2.100000000000000000e+01
5.215100000000000000e+04,-8.000000000000000654e-05,-5.000000000000000240e-05,1.699999999999999851e-04,-2.000000000000000164e-05,-4.000000000000000327e-05,-5.000000000000000240e-05,1.000000000000000082e-05,-5.999999999999999474e-05,5.000000000000000000e+00,2.100000000000000000e+01
5.215200000000000000e+04,-8.000000000000000654e-05,-5.000000000000000240e-05,1.699999999999999851e-04,-2.000000000000000164e-05,-4.000000000000000327e-05,-5.000000000000000240e-05,1.000000000000000082e-05,-5.999999999999999474e-05,5.000000000000000000e+00,2.100000000000000000e+01
5.215300000000000000e+04,-8.000000000000000654e-05,-5.000000000000000240e-05,1.699999999999999851e-04,-2.000000000000000164e-05,-4.000000000000000327e-05,-5.000000000000000240e-05,1.000000000000000082e-05,-5.999999999999999474e-05,5.000000000000000000e+00,2.100000000000000000e+01
5.215400000000000000e+04,-8.000000000000000654e-05,-5.000000000000000240e-05,1.699999999999999851e-04,-2.000000000000000164e-05,-4.000000000000000327e-05,-5.000000000000000240e-05,1.000000000000000082e-05,-5.999999999999999474e-05,5.000000000000000000e+00,2.100000000000000000e+01
5.215500000000000000e+04,-8.000000000000000654e-05,-5.000000000000000240e-05,1.699999999999999851e-04,-2.000000000000000164e-05,-4.000000000000000327e-05,-5.000000000000000240e-05,1.000000000000000082e-05,-5.999999999999999474e-05,5.000000000000000000e+00,2.100000000000000000e+01
5.215600000000000000e+04,-8.000000000000000654e-05,-5.000000000000000240e-05,1.699999999999999851e-04,-2.000000000000000164e-05,-4.000000000000000327e-05,-5.000000000000000240e-05,1.000000000000000082e-05,-5.999999999999999474e-05,5.000000000000000000e+00,2.100000000000000000e+01
5.215700000000000000e+04,-8.000000000000000654e-05,-5.000000000000000240e-05,1.699999999999999851e-04,-2.000000000000000164e-05,-4.000000000000000327e-05,-5.000000000000000240e-05,1.000000000000000082e-05,-5.999999999999999474e-05,5.000000000000000000e+00,2.100000000000000000e+01
5.215800000000000000e+04,-8.000000000000000654e-05,-5.000000000000000240e-05,1.699999999999999851e-04,-2.000000000000000164e-05,-4.000000000000000327e-05,-5.000000000000000240e-05,1.000000000000000082e-05,-5.999999999999999474e-05,5.000000000000000000e+00,2.100000000000000000e+01
5.215900000000000000e+04,-2.999999999999999737e-05,-2.999999999999999737e-05,-8.499999999999999526e-04,-1.499999999999999869e-04,-8.000000000000000654e-05,-1.100000000000000039e-04,-4.000000000000000327e-05,-5.000000000000000240e-05,5.000000000000000000e+00,2.100000000000000000e+01
5.216000000000000000e+04,-4.000000000000000327e-05,-2.999999999999999737e-05,1.000000000000000082e-05,-5.500000000000000331e-04,-5.000000000000000240e-05,-4.000000000000000327e-05,1.000000000000000082e-05,0.000000000000000000e+00,5.000000000000000000e+00,2.100000000000000000e+01
5.216100000000000000e+04,-4.000000000000000327e-05,-2.999999999999999737e-05,1.000000000000000082e-05,-5.500000000000000331e-04,-5.000000000000000240e-05,-4.000000000000000327e-05,1.000000000000000082e-05,0.000000000000000000e+00,5.000000000000000000e+00,2.100000000000000000e+01
5.216200000000000000e+04,-4.000000000000000327e-05,-2.999999999999999737e-05,1.000000000000000082e-05,-5.500000000000000331e-04,-5.000000000000000240e-05,-4.000000000000000327e-05,1.000000000000000082e-05,0.000000000000000000e+00,5.000000000000000000e+00,2.100000000000000000e+01
5.216300000000000000e+04,-4.000000000000000327e-05,-2.999999999999999737e-05,1.000000000000000082e-05,-5.500000000000000331e-04,-5.000000000000000240e-05,-4.000000000000000327e-05,1.000000000000000082e-05,0.000000000000000000e+00,5.000000000000000000e+00,2.100000000000000000e+01
5.216400000000000000e+04,-4.000000000000000327e-05,-2.999999999999999737e-05,1.000000000000000082e-05,-5.500000000000000331e-04,-5.000000000000000240e-05,-4.000000000000000327e-05,1.000000000000000082e-05,0.000000000000000000e+00,5.000000000000000000e+00,2.100000000000000000e+01
5.216500000000000000e+04,-4.000000000000000327e-05,-2.999999999999999737e-05,1.000000000000000082e-05,-5.500000000000000331e-04,-5.000000000000000240e-05,-4.000000000000000327e-05,1.000000000000000082e-05,0.000000000000000000e+00,5.000000000000000000e+00,2.100000000000000000e+01
5.216600000000000000e+04,-4.000000000000000327e-05,-2.999999999999999737e-05,1.000000000000000082e-05,-5.500000000000000331e-04,-5.000000000000000240e-05,-4.000000000000000327e-05,1.000000000000000082e-05,0.000000000000000000e+00,5.000000000000000000e+00,2.100000000000000000e+01
5.216700000000000000e+04,-4.000000000000000327e-05,-2.999999999999999737e-05,1.000000000000000082e-05,-5.500000000000000331e-04,-5.000000000000000240e-05,-4.000000000000000327e-05,1.000000000000000082e-05,0.000000000000000000e+00,5.000000000000000000e+00,2.100000000000000000e+01
5.216800000000000000e+04,-4.000000000000000327e-05,-2.999999999999999737e-05,1.000000000000000082e-05,-5.500000000000000331e-04,-5.000000000000000240e-05,-4.000000000000000327e-05,1.000000000000000082e-05,0.000000000000000000e+00,5.000000000000000000e+00,2.100000000000000000e+01
5.216900000000000000e+04,-4.000000000000000327e-05,-2.999999999999999737e-05,1.000000000000000082e-05,-5.500000000000000331e-04,-5.000000000000000240e-05,-4.000000000000000327e-05,1.000000000000000082e-05,0.000000000000000000e+00,5.000000000000000000e+00,2.100000000000000000e+01
5.217000000000000000e+04,-4.000000000000000327e-05,-2.999999999999999737e-05,1.000000000000000082e-05,-5.500000000000000331e-04,-5.000000000000000240e-05,-4.000000000000000327e-05,1.000000000000000082e-05,0.000000000000000000e+00,5.000000000000000000e+00,2.100000000000000000e+01
5.217100000000000000e+04,-4.000000000000000327e-05,-2.999999999999999737e-05,1.000000000000000082e-05,-5.500000000000000331e-04,-5.000000000000000240e-05,-4.000000000000000327e-05,1.000000000000000082e-05,0.000000000000000000e+00,5.000000000000000000e+00,2.100000000000000000e+01
5.217200000000000000e+04,-4.000000000000000327e-05,-2.999999999999999737e-05,1.000000000000000082e-05,-5.500000000000000331e-04,-5.000000000000000240e-05,-4.000000000000000327e-05,1.000000000000000082e-05,0.000000000000000000e+00,5.000000000000000000e+00,2.100000000000000000e+01
5.217300000000000000e+04,4.000000000000000327e-05,9.000000000000000567e-05,5.200000000000000629e-04,1.600000000000000131e-04,1.199999999999999895e-04,5.999999999999999474e-05,4.000000000000000327e-05,1.000000000000000082e-05,5.000000000000000000e+00,2.100000000000000000e+01
5.217400000000000000e+04,4.000000000000000327e-05,9.000000000000000567e-05,5.200000000000000629e-04,1.600000000000000131e-04,1.199999999999999895e-04,5.999999999999999474e-05,4.000000000000000327e-05,1.000000000000000082e-05,5.000000000000000000e+00,2.100000000000000000e+01
5.217500000000000000e+04,4.000000000000000327e-05,9.000000000000000567e-05,5.200000000000000629e-04,1.600000000000000131e-04,1.199999999999999895e-04,5.999999999999999474e-05,4.000000000000000327e-05,1.000000000000000082e-05,5.000000000000000000e+00,2.100000000000000000e+01
5.217600000000000000e+04,4.000000000000000327e-05,9.000000000000000567e-05,5.200000000000000629e-04,1.600000000000000131e-04,1.199999999999999895e-04,5.999999999999999474e-05,4.000000000000000327e-05,1.000000000000000082e-05,5.000000000000000000e+00,2.100000000000000000e+01
5.217700000000000000e+04,4.000000000000000327e-05,9.000000000000000567e-05,5.200000000000000629e-04,1.600000000000000131e-04,1.199999999999999895e-04,5.999999999999999474e-05,4.000000000000000327e-05,1.000000000000000082e-05,5.000000000000000000e+00,2.100000000000000000e+01
5.217800000000000000e+04,4.000000000000000327e-05,9.000000000000000567e-05,5.200000000000000629e-04,1.600000000000000131e-04,1.199999999999999895e-04,5.999999999999999474e-05,4.000000000000000327e-05,1.000000000000000082e-05,5.000000000000000000e+00,2.100000000000000000e+01
5.217900000000000000e+04,4.000000000000000327e-05,9.000000000000000567e-05,5.200000000000000629e-04,1.600000000000000131e-04,1.199999999999999895e-04,5.999999999999999474e-05,4.000000000000000327e-05,1.000000000000000082e-05,5.000000000000000000e+00,2.100000000000000000e+01
5.218000000000000000e+04,-5.999999999999999474e-05,-2.999999999999999737e-05,2.700000000000000035e-04,3.200000000000000262e-04,-1.399999999999999877e-04,-8.000000000000000654e-05,-5.000000000000000240e-05,-4.000000000000000327e-05,5.000000000000000000e+00,2.100000000000000000e+01
5.218100000000000000e+04,-5.999999999999999474e-05,-2.999999999999999737e-05,2.700000000000000035e-04,3.200000000000000262e-04,-1.399999999999999877e-04,-8.000000000000000654e-05,-5.000000000000000240e-05,-4.000000000000000327e-05,5.000000000000000000e+00,2.100000000000000000e+01
5.218200000000000000e+04,-5.999999999999999474e-05,-2.999999999999999737e-05,2.700000000000000035e-04,3.200000000000000262e-04,-1.399999999999999877e-04,-8.000000000000000654e-05,-5.000000000000000240e-05,-4.000000000000000327e-05,5.000000000000000000e+00,2.100000000000000000e+01
5.218300000000000000e+04,-5.999999999999999474e-05,-2.999999999999999737e-05,2.700000000000000035e-04,3.200000000000000262e-04,-1.399999999999999877e-04,-8.000000000000000654e-05,-5.000000000000000240e-05,-4.000000000000000327e-05,5.000000000000000000e+00,2.100000000000000000e+01
5.218400000000000000e+04,-5.999999999999999474e-05,-2.999999999999999737e-05,2.700000000000000035e-04,3.200000000000000262e-04,-1.399999999999999877e-04,-8.000000000000000654e-05,-5.000000000000000240e-05,-4.000000000000000327e-05,5.000000000000000000e+00,2.100000000000000000e+01
5.218500000000000000e+04,-5.999999999999999474e-05,-2.999999999999999737e-05,2.700000000000000035e-04,3.200000000000000262e-04,-1.399999999999999877e-04,-8.000000000000000654e-05,-5.000000000000000240e-05,-4.000000000000000327e-05,5.000000000000000000e+00,2.100000000000000000e+01
5.218600000000000000e+04,-5.999999999999999474e-05,-2.999999999999999737e-05,2.700000000000000035e-04,3.200000000000000262e-04,-1.399999999999999877e-04,-8.000000000000000654e-05,-5.000000000000000240e-05,-4.000000000000000327e-05,5.000000000000000000e+00,2.100000000000000000e+01
5.218800000000000000e+04,-5.999999999999999474e-05,-2.999999999999999737e-05,2.700000000000000035e-04,3.200000000000000262e-04,-1.399999999999999877e-04,-8.000000000000000654e-05,-5.000000000000000240e-05,-4.000000000000000327e-05,5.000000000000000000e+00,2.100000000000000000e+01
5.218900000000000000e+04,-5.999999999999999474e-05,-2.999999999999999737e-05,2.700000000000000035e-04,3.200000000000000262e-04,-1.399999999999999877e-04,-8.000000000000000654e-05,-5.000000000000000240e-05,-4.000000000000000327e-05,5.000000000000000000e+00,2.100000000000000000e+01
5.219000000000000000e+04,-5.999999999999999474e-05,-2.999999999999999737e-05,2.700000000000000035e-04,3.200000000000000262e-04,-1.399999999999999877e-04,-8.000000000000000654e-05,-5.000000000000000240e-05,-4.000000000000000327e-05,5.000000000000000000e+00,2.100000000000000000e+01
5.219100000000000000e+04,-5.999999999999999474e-05,-2.999999999999999737e-05,2.700000000000000035e-04,3.200000000000000262e-04,-1.399999999999999877e-04,-8.000000000000000654e-05,-5.000000000000000240e-05,-4.000000000000000327e-05,5.000000000000000000e+00,2.100000000000000000e+01
5.219200000000000000e+04,-5.999999999999999474e-05,-2.999999999999999737e-05,2.700000000000000035e-04,3.200000000000000262e-04,-1.399999999999999877e-04,-8.000000000000000654e-05,-5.000000000000000240e-05,-4.000000000000000327e-05,5.000000000000000000e+00,2.100000000000000000e+01
5.219300000000000000e+04,-5.999999999999999474e-05,-2.999999999999999737e-05,2.700000000000000035e-04,3.200000000000000262e-04,-1.399999999999999877e-04,-8.000000000000000654e-05,-5.000000000000000240e-05,-4.000000000000000327e-05,5.000000000000000000e+00,2.100000000000000000e+01
5.219400000000000000e+04,-5.999999999999999474e-05,-2.999999999999999737e-05,2.700000000000000035e-04,3.200000000000000262e-04,-1.399999999999999877e-04,-8.000000000000000654e-05,-5.000000000000000240e-05,-4.000000000000000327e-05,5.000000000000000000e+00,2.100000000000000000e+01
5.219500000000000000e+04,-5.999999999999999474e-05,-2.999999999999999737e-05,2.700000000000000035e-04,3.200000000000000262e-04,-1.399999999999999877e-04,-8.000000000000000654e-05,-5.000000000000000240e-05,-4.000000000000000327e-05,5.000000000000000000e+00,2.100000000000000000e+01
5.219600000000000000e+04,-9.000000000000000567e-05,-1.000000000000000048e-04,-1.399999999999999877e-04,2.999999999999999737e-05,-5.000000000000000240e-05,-8.000000000000000654e-05,-6.999999999999999387e-05,-9.000000000000000567e-05,5.000000000000000000e+00,2.100000000000000000e+01
5.219700000000000000e+04,-9.000000000000000567e-05,-1.000000000000000048e-04,-1.399999999999999877e-04,2.999999999999999737e-05,-5.000000000000000240e-05,-8.000000000000000654e-05,-6.999999999999999387e-05,-9.000000000000000567e-05,5.000000000000000000e+00,2.100000000000000000e+01
5.219800000000000000e+04,1.000000000000000082e-05,-5.000000000000000240e-05,-2.000000000000000164e-05,0.000000000000000000e+00,8.000000000000000654e-05,1.000000000000000082e-05,-8.000000000000000654e-05,-2.000000000000000164e-05,5.000000000000000000e+00,2.100000000000000000e+01
