5.147000000000000000e+04,2.900000000000000017e-04,-1.000000000000000082e-05,-1.000000000000000082e-05,-1.600000000000000131e-04,7.099999999999999107e-04,1.399999999999999877e-04,1.499999999999999869e-04,8.800000000000000313e-04,3.000000000000000000e+00,1.600000000000000000e+01
5.147100000000000000e+04,2.900000000000000017e-04,-1.000000000000000082e-05,-1.000000000000000082e-05,-1.600000000000000131e-04,7.099999999999999107e-04,1.399999999999999877e-04,1.499999999999999869e-04,8.800000000000000313e-04,3.000000000000000000e+00,1.600000000000000000e+01
5.147200000000000000e+04,2.900000000000000017e-04,-1.000000000000000082e-05,-1.000000000000000082e-05,-1.600000000000000131e-04,7.099999999999999107e-04,1.399999999999999877e-04,1.499999999999999869e-04,8.800000000000000313e-04,3.000000000000000000e+00,1.600000000000000000e+01
5.147300000000000000e+04,2.900000000000000017e-04,-1.000000000000000082e-05,-1.000000000000000082e-05,-1.600000000000000131e-04,7.099999999999999107e-04,1.399999999999999877e-04,1.499999999999999869e-04,8.800000000000000313e-04,3.000000000000000000e+00,1.600000000000000000e+01
5.147400000000000000e+04,2.900000000000000017e-04,-1.000000000000000082e-05,-1.000000000000000082e-05,-1.600000000000000131e-04,7.099999999999999107e-04,1.399999999999999877e-04,1.499999999999999869e-04,8.800000000000000313e-04,3.000000000000000000e+00,1.600000000000000000e+01
5.147500000000000000e+04,2.900000000000000017e-04,-1.000000000000000082e-05,-1.000000000000000082e-05,-1.600000000000000131e-04,7.099999999999999107e-04,1.399999999999999877e-04,1.499999999999999869e-04,8.800000000000000313e-04,3.000000000000000000e+00,1.600000000000000000e+01
5.147600000000000000e+04,2.900000000000000017e-04,-1.000000000000000082e-05,-1.000000000000000082e-05,-1.600000000000000131e-04,7.099999999999999107e-04,1.399999999999999877e-04,1.499999999999999869e-04,8.800000000000000313e-04,3.000000000000000000e+00,1.600000000000000000e+01
5.147700000000000000e+04,2.900000000000000017e-04,-1.000000000000000082e-05,-1.000000000000000082e-05,-1.600000000000000131e-04,7.099999999999999107e-04,1.399999999999999877e-04,1.499999999999999869e-04,8.800000000000000313e-04,3.000000000000000000e+00,1.600000000000000000e+01
5.147800000000000000e+04,2.900000000000000017e-04,-1.000000000000000082e-05,-1.000000000000000082e-05,-1.600000000000000131e-04,7.099999999999999107e-04,1.399999999999999877e-04,1.499999999999999869e-04,8.800000000000000313e-04,3.000000000000000000e+00,1.600000000000000000e+01
5.147900000000000000e+04,2.900000000000000017e-04,-1.000000000000000082e-05,-1.000000000000000082e-05,-1.600000000000000131e-04,7.099999999999999107e-04,1.399999999999999877e-04,1.499999999999999869e-04,8.800000000000000313e-04,3.000000000000000000e+00,1.600000000000000000e+01
5.148000000000000000e+04,2.900000000000000017e-04,-1.000000000000000082e-05,-1.000000000000000082e-05,-1.600000000000000131e-04,7.099999999999999107e-04,1.399999999999999877e-04,1.499999999999999869e-04,8.800000000000000313e-04,3.000000000000000000e+00,1.600000000000000000e+01
5.148100000000000000e+04,-2.999999999999999737e-05,1.000000000000000082e-05,1.100000000000000039e-04,5.400000000000000069e-04,3.600000000000000227e-04,1.199999999999999895e-04,-1.499999999999999869e-04,5.500000000000000331e-04,3.000000000000000000e+00,1.600000000000000000e+01
5.148200000000000000e+04,-4.000000000000000192e-04,-1.199999999999999895e-04,-1.000000000000000048e-04,-1.399999999999999877e-04,-5.000000000000000240e-05,-3.200000000000000262e-04,-5.999999999999999474e-04,-5.400000000000000069e-04,3.000000000000000000e+00,1.600000000000000000e+01
5.148300000000000000e+04,-4.000000000000000192e-04,-1.199999999999999895e-04,-1.000000000000000048e-04,-1.399999999999999877e-04,-5.000000000000000240e-05,-3.200000000000000262e-04,-5.999999999999999474e-04,-5.400000000000000069e-04,3.000000000000000000e+00,1.600000000000000000e+01
5.148400000000000000e+04,-4.000000000000000192e-04,-1.199999999999999895e-04,-1.000000000000000048e-04,-1.399999999999999877e-04,-5.000000000000000240e-05,-3.200000000000000262e-04,-5.999999999999999474e-04,-5.400000000000000069e-04,3.000000000000000000e+00,1.600000000000000000e+01
5.148500000000000000e+04,-4.000000000000000192e-04,-1.199999999999999895e-04,-1.000000000000000048e-04,-1.399999999999999877e-04,-5.000000000000000240e-05,-3.200000000000000262e-04,-5.999999999999999474e-04,-5.400000000000000069e-04,3.000000000000000000e+00,1.600000000000000000e+01
5.148600000000000000e+04,-4.000000000000000192e-04,-1.199999999999999895e-04,-1.000000000000000048e-04,-1.399999999999999877e-04,-5.000000000000000240e-05,-3.200000000000000262e-04,-5.999999999999999474e-04,-5.400000000000000069e-04,3.000000000000000000e+00,1.600000000000000000e+01
5.148800000000000000e+04,-4.000000000000000192e-04,-1.199999999999999895e-04,-1.000000000000000048e-04,-1.399999999999999877e-04,-5.000000000000000240e-05,-3.200000000000000262e-04,-5.999999999999999474e-04,-5.400000000000000069e-04,3.000000000000000000e+00,1.600000000000000000e+01
5.148900000000000000e+04,-4.000000000000000192e-04,-1.199999999999999895e-04,-1.000000000000000048e-04,-1.399999999999999877e-04,-5.000000000000000240e-05,-3.200000000000000262e-04,-5.999999999999999474e-04,-5.400000000000000069e-04,3.000000000000000000e+00,1.600000000000000000e+01
5.149000000000000000e+04,-4.000000000000000192e-04,-1.199999999999999895e-04,-1.000000000000000048e-04,-1.399999999999999877e-04,-5.000000000000000240e-05,-3.200000000000000262e-04,-5.999999999999999474e-04,-5.400000000000000069e-04,3.000000000000000000e+00,1.600000000000000000e+01
5.149100000000000000e+04,-4.000000000000000192e-04,-1.199999999999999895e-04,-1.000000000000000048e-04,-1.399999999999999877e-04,-5.000000000000000240e-05,-3.200000000000000262e-04,-5.999999999999999474e-04,-5.400000000000000069e-04,3.000000000000000000e+00,1.600000000000000000e+01
5.149200000000000000e+04,-4.000000000000000192e-04,-1.199999999999999895e-04,-1.000000000000000048e-04,-1.399999999999999877e-04,-5.000000000000000240e-05,-3.200000000000000262e-04,-5.999999999999999474e-04,-5.400000000000000069e-04,3.000000000000000000e+00,1.600000000000000000e+01
5.149300000000000000e+04,-4.000000000000000192e-04,-1.199999999999999895e-04,-1.000000000000000048e-04,-1.399999999999999877e-04,-5.000000000000000240e-05,-3.200000000000000262e-04,-5.999999999999999474e-04,-5.400000000000000069e-04,3.000000000000000000e+00,1.600000000000000000e+01
5.149400000000000000e+04,-4.000000000000000192e-04,-1.199999999999999895e-04,-1.000000000000000048e-04,-1.399999999999999877e-04,-5.000000000000000240e-05,-3.200000000000000262e-04,-5.999999999999999474e-04,-5.400000000000000069e-04,3.000000000000000000e+00,1.600000000000000000e+01
5.149500000000000000e+04,-4.000000000000000192e-04,-1.199999999999999895e-04,-1.000000000000000048e-04,-1.399999999999999877e-04,-5.000000000000000240e-05,-3.200000000000000262e-04,-5.999999999999999474e-04,-5.400000000000000069e-04,3.000000000000000000e+00,1.600000000000000000e+01
5.149600000000000000e+04,-4.000000000000000192e-04,-1.199999999999999895e-04,-1.000000000000000048e-04,-1.399999999999999877e-04,-5.000000000000000240e-05,-3.200000000000000262e-04,-5.999999999999999474e-04,-5.400000000000000069e-04,3.000000000000000000e+00,1.600000000000000000e+01
5.149700000000000000e+04,-4.000000000000000192e-04,-1.199999999999999895e-04,-1.000000000000000048e-04,-1.399999999999999877e-04,-5.000000000000000240e-05,-3.200000000000000262e-04,-5.999999999999999474e-04,-5.400000000000000069e-04,3.000000000000000000e+00,1.600000000000000000e+01
5.149800000000000000e+04,-4.000000000000000192e-04,-1.199999999999999895e-04,-1.000000000000000048e-04,-1.399999999999999877e-04,-5.000000000000000240e-05,-3.200000000000000262e-04,-5.999999999999999474e-04,-5.400000000000000069e-04,3.000000000000000000e+00,1.600000000000000000e+01
5.149900000000000000e+04,-4.000000000000000192e-04,-1.199999999999999895e-04,-1.000000000000000048e-04,-1.399999999999999877e-04,-5.000000000000000240e-05,-3.200000000000000262e-04,-5.999999999999999474e-04,-5.400000000000000069e-04,3.000000000000000000e+00,1.600000000000000000e+01
5.150000000000000000e+04,-4.000000000000000192e-04,-1.199999999999999895e-04,-1.000000000000000048e-04,-1.399999999999999877e-04,-5.000000000000000240e-05,-3.200000000000000262e-04,-5.999999999999999474e-04,-5.400000000000000069e-04,3.000000000000000000e+00,1.600000000000000000e+01
5.150100000000000000e+04,-4.000000000000000192e-04,-1.199999999999999895e-04,-1.000000000000000048e-04,-1.399999999999999877e-04,-5.000000000000000240e-05,-3.200000000000000262e-04,-5.999999999999999474e-04,-5.400000000000000069e-04,3.000000000000000000e+00,1.600000000000000000e+01
5.150200000000000000e+04,-4.000000000000000192e-04,-1.199999999999999895e-04,-1.000000000000000048e-04,-1.399999999999999877e-04,-5.000000000000000240e-05,-3.200000000000000262e-04,-5.999999999999999474e-04,-5.400000000000000069e-04,3.000000000000000000e+00,1.600000000000000000e+01
5.150300000000000000e+04,-4.000000000000000192e-04,-1.199999999999999895e-04,-1.000000000000000048e-04,-1.399999999999999877e-04,-5.000000000000000240e-05,-3.200000000000000262e-04,-5.999999999999999474e-04,-5.400000000000000069e-04,3.000000000000000000e+00,1.600000000000000000e+01
5.150400000000000000e+04,-7.399999999999999894e-04,-5.000000000000000240e-05,5.000000000000000240e-05,3.600000000000000227e-04,4.000000000000000192e-04,1.899999999999999834e-04,-2.999999999999999737e-04,-5.099999999999999282e-04,3.000000000000000000e+00,1.600000000000000000e+01
5.150500000000000000e+04,6.999999999999999387e-05,6.999999999999999387e-05,4.000000000000000327e-05,2.100000000000000087e-04,9.000000000000000567e-05,6.999999999999999387e-05,0.000000000000000000e+00,-1.600000000000000131e-04,3.000000000000000000e+00,1.600000000000000000e+01
5.150600000000000000e+04,6.999999999999999387e-05,6.999999999999999387e-05,4.000000000000000327e-05,2.100000000000000087e-04,9.000000000000000567e-05,6.999999999999999387e-05,0.000000000000000000e+00,-1.600000000000000131e-04,3.000000000000000000e+00,1.600000000000000000e+01
5.150700000000000000e+04,6.999999999999999387e-05,6.999999999999999387e-05,4.000000000000000327e-05,2.100000000000000087e-04,9.000000000000000567e-05,6.999999999999999387e-05,0.000000000000000000e+00,-1.600000000000000131e-04,3.000000000000000000e+00,1.600000000000000000e+01
5.150800000000000000e+04,6.999999999999999387e-05,6.999999999999999387e-05,4.000000000000000327e-05,2.100000000000000087e-04,9.000000000000000567e-05,6.999999999999999387e-05,0.000000000000000000e+00,-1.600000000000000131e-04,3.000000000000000000e+00,1.600000000000000000e+01
5.150900000000000000e+04,6.999999999999999387e-05,6.999999999999999387e-05,4.000000000000000327e-05,2.100000000000000087e-04,9.000000000000000567e-05,6.999999999999999387e-05,0.000000000000000000e+00,-1.600000000000000131e-04,3.000000000000000000e+00,1.600000000000000000e+01
5.151000000000000000e+04,6.999999999999999387e-05,6.999999999999999387e-05,4.000000000000000327e-05,2.100000000000000087e-04,9.000000000000000567e-05,6.999999999999999387e-05,0.000000000000000000e+00,-1.600000000000000131e-04,3.000000000000000000e+00,1.600000000000000000e+01
5.151100000000000000e+04,6.999999999999999387e-05,6.999999999999999387e-05,4.000000000000000327e-05,2.100000000000000087e-04,9.000000000000000567e-05,6.999999999999999387e-05,0.000000000000000000e+00,-1.600000000000000131e-04,3.000000000000000000e+00,1.600000000000000000e+01
5.151200000000000000e+04,6.999999999999999387e-05,6.999999999999999387e-05,4.000000000000000327e-05,2.100000000000000087e-04,9.000000000000000567e-05,6.999999999999999387e-05,0.000000000000000000e+00,-1.600000000000000131e-04,3.000000000000000000e+00,1.600000000000000000e+01
5.151300000000000000e+04,6.999999999999999387e-05,6.999999999999999387e-05,4.000000000000000327e-05,2.100000000000000087e-04,9.000000000000000567e-05,6.999999999999999387e-05,0.000000000000000000e+00,-1.600000000000000131e-04,3.000000000000000000e+00,1.600000000000000000e+01
5.151400000000000000e+04,6.999999999999999387e-05,6.999999999999999387e-05,4.000000000000000327e-05,2.100000000000000087e-04,9.000000000000000567e-05,6.999999999999999387e-05,0.000000000000000000e+00,-1.600000000000000131e-04,3.000000000000000000e+00,1.600000000000000000e+01
5.151500000000000000e+04,6.999999999999999387e-05,6.999999999999999387e-05,4.000000000000000327e-05,2.100000000000000087e-04,9.000000000000000567e-05,6.999999999999999387e-05,0.000000000000000000e+00,-1.600000000000000131e-04,3.000000000000000000e+00,1.600000000000000000e+01
5.151600000000000000e+04,6.999999999999999387e-05,6.999999999999999387e-05,4.000000000000000327e-05,2.100000000000000087e-04,9.000000000000000567e-05,6.999999999999999387e-05,0.000000000000000000e+00,-1.600000000000000131e-04,3.000000000000000000e+00,1.600000000000000000e+01
5.151700000000000000e+04,6.999999999999999387e-05,6.999999999999999387e-05,4.000000000000000327e-05,2.100000000000000087e-04,9.000000000000000567e-05,6.999999999999999387e-05,0.000000000000000000e+00,-1.600000000000000131e-04,3.000000000000000000e+00,1.600000000000000000e+01
5.151800000000000000e+04,6.999999999999999387e-05,6.999999999999999387e-05,4.000000000000000327e-05,2.100000000000000087e-04,9.000000000000000567e-05,6.999999999999999387e-05,0.000000000000000000e+00,-1.600000000000000131e-04,3.000000000000000000e+00,1.600000000000000000e+01
5.151900000000000000e+04,6.999999999999999387e-05,6.999999999999999387e-05,4.000000000000000327e-05,2.100000000000000087e-04,9.000000000000000567e-05,6.999999999999999387e-05,0.000000000000000000e+00,-1.600000000000000131e-04,3.000000000000000000e+00,1.600000000000000000e+01
5.152000000000000000e+04,6.999999999999999387e-05,6.999999999999999387e-05,4.000000000000000327e-05,2.100000000000000087e-04,9.000000000000000567e-05,6.999999999999999387e-05,0.000000000000000000e+00,-1.600000000000000131e-04,3.000000000000000000e+00,1.600000000000000000e+01
5.152100000000000000e+04,6.999999999999999387e-05,6.999999999999999387e-05,4.000000000000000327e-05,2.100000000000000087e-04,9.000000000000000567e-05,6.999999999999999387e-05,0.000000000000000000e+00,-1.600000000000000131e-04,3.000000000000000000e+00,1.600000000000000000e+01
5.152200000000000000e+04,6.999999999999999387e-05,6.999999999999999387e-05,4.000000000000000327e-05,2.100000000000000087e-04,9.000000000000000567e-05,6.999999999999999387e-05,0.000000000000000000e+00,-1.600000000000000131e-04,3.000000000000000000e+00,1.600000000000000000e+01
5.152300000000000000e+04,6.999999999999999387e-05,6.999999999999999387e-05,4.000000000000000327e-05,2.100000000000000087e-04,9.000000000000000567e-05,6.999999999999999387e-05,0.000000000000000000e+00,-1.600000000000000131e-04,3.000000000000000000e+00,1.600000000000000000e+01
5.152400000000000000e+04,6.999999999999999387e-05,6.999999999999999387e-05,4.000000000000000327e-05,2.100000000000000087e-04,9.000000000000000567e-05,6.999999999999999387e-05,0.000000000000000000e+00,-1.600000000000000131e-04,3.000000000000000000e+00,1.600000000000000000e+01
5.152500000000000000e+04,6.999999999999999387e-05,6.999999999999999387e-05,4.000000000000000327e-05,2.100000000000000087e-04,9.000000000000000567e-05,6.999999999999999387e-05,0.000000000000000000e+00,-1.600000000000000131e-04,3.000000000000000000e+00,1.600000000000000000e+01
5.152600000000000000e+04,-2.000000000000000164e-05,-1.199999999999999895e-04,-1.000000000000000082e-05,-2.100000000000000087e-04,-4.799999999999999580e-04,-1.000000000000000082e-05,0.000000000000000000e+00,2.999999999999999737e-05,3.000000000000000000e+00,1.600000000000000000e+01
5.152700000000000000e+04,1.030000000000000100e-03,1.600000000000000131e-04,-2.999999999999999737e-05,5.000000000000000240e-05,0.000000000000000000e+00,-1.000000000000000082e-05,-1.000000000000000048e-04,4.499999999999999877e-04,3.000000000000000000e+00,1.600000000000000000e+01
5.152800000000000000e+04,1.030000000000000100e-03,1.600000000000000131e-04,-2.999999999999999737e-05,5.000000000000000240e-05,0.000000000000000000e+00,-1.000000000000000082e-05,-1.000000000000000048e-04,4.499999999999999877e-04,3.000000000000000000e+00,1.600000000000000000e+01
5.152900000000000000e+04,1.030000000000000100e-03,1.600000000000000131e-04,-2.999999999999999737e-05,5.000000000000000240e-05,0.000000000000000000e+00,-1.000000000000000082e-05,-1.000000000000000048e-04,4.499999999999999877e-04,3.000000000000000000e+00,1.600000000000000000e+01
5.153000000000000000e+04,1.030000000000000100e-03,1.600000000000000131e-04,-2.999999999999999737e-05,5.000000000000000240e-05,0.000000000000000000e+00,-1.000000000000000082e-05,-1.000000000000000048e-04,4.499999999999999877e-04,3.000000000000000000e+00,1.600000000000000000e+01
5.153100000000000000e+04,1.030000000000000100e-03,1.600000000000000131e-04,-2.999999999999999737e-05,5.000000000000000240e-05,0.000000000000000000e+00,-1.000000000000000082e-05,-1.000000000000000048e-04,4.499999999999999877e-04,3.000000000000000000e+00,1.600000000000000000e+01
5.153200000000000000e+04,1.030000000000000100e-03,1.600000000000000131e-04,-2.999999999999999737e-05,5.000000000000000240e-05,0.000000000000000000e+00,-1.000000000000000082e-05,-1.000000000000000048e-04,4.499999999999999877e-04,3.000000000000000000e+00,1.600000000000000000e+01
5.153300000000000000e+04,1.030000000000000100e-03,1.600000000000000131e-04,-2.999999999999999737e-05,5.000000000000000240e-05,0.000000000000000000e+00,-1.000000000000000082e-05,-1.000000000000000048e-04,4.499999999999999877e-04,3.000000000000000000e+00,1.600000000000000000e+01
5.153400000000000000e+04,1.030000000000000100e-03,1.600000000000000131e-04,-2.999999999999999737e-05,5.000000000000000240e-05,0.000000000000000000e+00,-1.000000000000000082e-05,-1.000000000000000048e-04,4.499999999999999877e-04,3.000000000000000000e+00,1.600000000000000000e+01
5.153500000000000000e+04,1.030000000000000100e-03,1.600000000000000131e-04,-2.999999999999999737e-05,5.000000000000000240e-05,0.000000000000000000e+00,-1.000000000000000082e-05,-1.000000000000000048e-04,4.499999999999999877e-04,3.000000000000000000e+00,1.600000000000000000e+01
5.153600000000000000e+04,1.030000000000000100e-03,1.600000000000000131e-04,-2.999999999999999737e-05,5.000000000000000240e-05,0.000000000000000000e+00,-1.000000000000000082e-05,-1.000000000000000048e-04,4.499999999999999877e-04,3.000000000000000000e+00,1.600000000000000000e+01
5.153800000000000000e+04,1.030000000000000100e-03,1.600000000000000131e-04,-2.999999999999999737e-05,5.000000000000000240e-05,0.000000000000000000e+00,-1.000000000000000082e-05,-1.000000000000000048e-04,4.499999999999999877e-04,3.000000000000000000e+00,1.600000000000000000e+01
5.153900000000000000e+04,1.030000000000000100e-03,1.600000000000000131e-04,-2.999999999999999737e-05,5.000000000000000240e-05,0.000000000000000000e+00,-1.000000000000000082e-05,-1.000000000000000048e-04,4.499999999999999877e-04,3.000000000000000000e+00,1.600000000000000000e+01
5.154000000000000000e+04,1.030000000000000100e-03,1.600000000000000131e-04,-2.999999999999999737e-05,5.000000000000000240e-05,0.000000000000000000e+00,-1.000000000000000082e-05,-1.000000000000000048e-04,4.499999999999999877e-04,3.000000000000000000e+00,1.600000000000000000e+01
5.154100000000000000e+04,4.599999999999999597e-04,9.000000000000000567e-05,5.000000000000000240e-05,-6.999999999999999387e-05,-2.299999999999999799e-04,-1.000000000000000048e-04,1.300000000000000157e-04,9.000000000000000567e-05,3.000000000000000000e+00,1.600000000000000000e+01
5.154200000000000000e+04,6.499999999999999702e-04,2.999999999999999737e-05,-2.999999999999999737e-05,-4.599999999999999597e-04,-6.900000000000000751e-04,6.999999999999999387e-05,1.899999999999999834e-04,4.799999999999999580e-04,3.000000000000000000e+00,1.600000000000000000e+01
5.154300000000000000e+04,6.499999999999999702e-04,2.999999999999999737e-05,-2.999999999999999737e-05,-4.599999999999999597e-04,-6.900000000000000751e-04,6.999999999999999387e-05,1.899999999999999834e-04,4.799999999999999580e-04,3.000000000000000000e+00,1.600000000000000000e+01
5.154400000000000000e+04,6.499999999999999702e-04,2.999999999999999737e-05,-2.999999999999999737e-05,-4.599999999999999597e-04,-6.900000000000000751e-04,6.999999999999999387e-05,1.899999999999999834e-04,4.799999999999999580e-04,3.000000000000000000e+00,1.600000000000000000e+01
5.154500000000000000e+04,6.499999999999999702e-04,2.999999999999999737e-05,-2.999999999999999737e-05,-4.599999999999999597e-04,-6.900000000000000751e-04,6.999999999999999387e-05,1.899999999999999834e-04,4.799999999999999580e-04,3.000000000000000000e+00,1.600000000000000000e+01
5.154600000000000000e+04,6.499999999999999702e-04,2.999999999999999737e-05,-2.999999999999999737e-05,-4.599999999999999597e-04,-6.900000000000000751e-04,6.999999999999999387e-05,1.899999999999999834e-04,4.799999999999999580e-04,3.000000000000000000e+00,1.600000000000000000e+01
5.154700000000000000e+04,6.499999999999999702e-04,2.999999999999999737e-05,-2.999999999999999737e-05,-4.599999999999999597e-04,-6.900000000000000751e-04,6.999999999999999387e-05,1.899999999999999834e-04,4.799999999999999580e-04,3.000000000000000000e+00,1.600000000000000000e+01
5.154800000000000000e+04,6.499999999999999702e-04,2.999999999999999737e-05,-2.999999999999999737e-05,-4.599999999999999597e-04,-6.900000000000000751e-04,6.999999999999999387e-05,1.899999999999999834e-04,4.799999999999999580e-04,3.000000000000000000e+00,1.600000000000000000e+01
5.154900000000000000e+04,6.499999999999999702e-04,2.999999999999999737e-05,-2.999999999999999737e-05,-4.599999999999999597e-04,-6.900000000000000751e-04,6.999999999999999387e-05,1.899999999999999834e-04,4.799999999999999580e-04,3.000000000000000000e+00,1.600000000000000000e+01
5.155000000000000000e+04,6.499999999999999702e-04,2.999999999999999737e-05,-2.999999999999999737e-05,-4.599999999999999597e-04,-6.900000000000000751e-04,6.999999999999999387e-05,1.899999999999999834e-04,4.799999999999999580e-04,3.000000000000000000e+00,1.600000000000000000e+01
5.155100000000000000e+04,6.499999999999999702e-04,2.999999999999999737e-05,-2.999999999999999737e-05,-4.599999999999999597e-04,-6.900000000000000751e-04,6.999999999999999387e-05,1.899999999999999834e-04,4.799999999999999580e-04,3.000000000000000000e+00,1.600000000000000000e+01
5.155200000000000000e+04,6.499999999999999702e-04,2.999999999999999737e-05,-2.999999999999999737e-05,-4.599999999999999597e-04,-6.900000000000000751e-04,6.999999999999999387e-05,1.899999999999999834e-04,4.799999999999999580e-04,3.000000000000000000e+00,1.600000000000000000e+01
5.155300000000000000e+04,6.499999999999999702e-04,2.999999999999999737e-05,-2.999999999999999737e-05,-4.599999999999999597e-04,-6.900000000000000751e-04,6.999999999999999387e-05,1.899999999999999834e-04,4.799999999999999580e-04,3.000000000000000000e+00,1.600000000000000000e+01
5.155400000000000000e+04,6.499999999999999702e-04,2.999999999999999737e-05,-2.999999999999999737e-05,-4.599999999999999597e-04,-6.900000000000000751e-04,6.999999999999999387e-05,1.899999999999999834e-04,4.799999999999999580e-04,3.000000000000000000e+00,1.600000000000000000e+01
5.155500000000000000e+04,6.499999999999999702e-04,2.999999999999999737e-05,-2.999999999999999737e-05,-4.599999999999999597e-04,-6.900000000000000751e-04,6.999999999999999387e-05,1.899999999999999834e-04,4.799999999999999580e-04,3.000000000000000000e+00,1.600000000000000000e+01
5.155600000000000000e+04,6.499999999999999702e-04,2.999999999999999737e-05,-2.999999999999999737e-05,-4.599999999999999597e-04,-6.900000000000000751e-04,6.999999999999999387e-05,1.899999999999999834e-04,4.799999999999999580e-04,3.000000000000000000e+00,1.600000000000000000e+01
5.155700000000000000e+04,6.499999999999999702e-04,2.999999999999999737e-05,-2.999999999999999737e-05,-4.599999999999999597e-04,-6.900000000000000751e-04,6.999999999999999387e-05,1.899999999999999834e-04,4.799999999999999580e-04,3.000000000000000000e+00,1.600000000000000000e+01
5.155800000000000000e+04,6.499999999999999702e-04,2.999999999999999737e-05,-2.999999999999999737e-05,-4.599999999999999597e-04,-6.900000000000000751e-04,6.999999999999999387e-05,1.899999999999999834e-04,4.799999999999999580e-04,3.000000000000000000e+00,1.600000000000000000e+01
5.155900000000000000e+04,6.499999999999999702e-04,2.999999999999999737e-05,-2.999999999999999737e-05,-4.599999999999999597e-04,-6.900000000000000751e-04,6.999999999999999387e-05,1.899999999999999834e-04,4.799999999999999580e-04,3.000000000000000000e+00,1.600000000000000000e+01
5.156000000000000000e+04,6.499999999999999702e-04,2.999999999999999737e-05,-2.999999999999999737e-05,-4.599999999999999597e-04,-6.900000000000000751e-04,6.999999999999999387e-05,1.899999999999999834e-04,4.799999999999999580e-04,3.000000000000000000e+00,1.600000000000000000e+01
5.156100000000000000e+04,6.499999999999999702e-04,2.999999999999999737e-05,-2.999999999999999737e-05,-4.599999999999999597e-04,-6.900000000000000751e-04,6.999999999999999387e-05,1.899999999999999834e-04,4.799999999999999580e-04,3.000000000000000000e+00,1.600000000000000000e+01
5.156200000000000000e+04,6.499999999999999702e-04,2.999999999999999737e-05,-2.999999999999999737e-05,-4.599999999999999597e-04,-6.900000000000000751e-04,6.999999999999999387e-05,1.899999999999999834e-04,4.799999999999999580e-04,3.000000000000000000e+00,1.600000000000000000e+01
5.156300000000000000e+04,6.499999999999999702e-04,2.999999999999999737e-05,-2.999999999999999737e-05,-4.599999999999999597e-04,-6.900000000000000751e-04,6.999999999999999387e-05,1.899999999999999834e-04,4.799999999999999580e-04,3.000000000000000000e+00,1.600000000000000000e+01
5.156400000000000000e+04,1.100000000000000039e-04,-5.000000000000000240e-05,-2.999999999999999737e-05,1.699999999999999851e-04,-2.100000000000000087e-04,-2.600000000000000314e-04,2.000000000000000096e-04,-8.000000000000000654e-05,3.000000000000000000e+00,1.600000000000000000e+01
5.156500000000000000e+04,8.000000000000000654e-05,-1.499999999999999869e-04,-9.000000000000000567e-05,-2.900000000000000017e-04,-3.099999999999999999e-04,-5.000000000000000240e-05,5.200000000000000629e-04,3.600000000000000227e-04,3.000000000000000000e+00,1.600000000000000000e+01
5.156600000000000000e+04,8.000000000000000654e-05,-1.499999999999999869e-04,-9.000000000000000567e-05,-2.900000000000000017e-04,-3.099999999999999999e-04,-5.000000000000000240e-05,5.200000000000000629e-04,3.600000000000000227e-04,3.000000000000000000e+00,1.600000000000000000e+01
5.156700000000000000e+04,8.000000000000000654e-05,-1.499999999999999869e-04,-9.000000000000000567e-05,-2.900000000000000017e-04,-3.099999999999999999e-04,-5.000000000000000240e-05,5.200000000000000629e-04,3.600000000000000227e-04,3.000000000000000000e+00,1.600000000000000000e+01
5.156800000000000000e+04,8.000000000000000654e-05,-1.499999999999999869e-04,-9.000000000000000567e-05,-2.900000000000000017e-04,-3.099999999999999999e-04,-5.000000000000000240e-05,5.200000000000000629e-04,3.600000000000000227e-04,3.000000000000000000e+00,1.600000000000000000e+01
5.156900000000000000e+04,8.000000000000000654e-05,-1.499999999999999869e-04,-9.000000000000000567e-05,-2.900000000000000017e-04,-3.099999999999999999e-04,-5.000000000000000240e-05,5.200000000000000629e-04,3.600000000000000227e-04,3.000000000000000000e+00,1.600000000000000000e+01
5.157000000000000000e+04,8.000000000000000654e-05,-1.499999999999999869e-04,-9.000000000000000567e-05,-2.900000000000000017e-04,-3.099999999999999999e-04,-5.000000000000000240e-05,5.200000000000000629e-04,3.600000000000000227e-04,3.000000000000000000e+00,1.600000000000000000e+01
5.157100000000000000e+04,8.000000000000000654e-05,-1.499999999999999869e-04,-9.000000000000000567e-05,-2.900000000000000017e-04,-3.099999999999999999e-04,-5.000000000000000240e-05,5.200000000000000629e-04,3.600000000000000227e-04,3.000000000000000000e+00,1.600000000000000000e+01
5.157200000000000000e+04,8.000000000000000654e-05,-1.499999999999999869e-04,-9.000000000000000567e-05,-2.900000000000000017e-04,-3.099999999999999999e-04,-5.000000000000000240e-05,5.200000000000000629e-04,3.600000000000000227e-04,3.000000000000000000e+00,1.600000000000000000e+01
5.157300000000000000e+04,8.000000000000000654e-05,-1.499999999999999869e-04,-9.000000000000000567e-05,-2.900000000000000017e-04,-3.099999999999999999e-04,-5.000000000000000240e-05,5.200000000000000629e-04,3.600000000000000227e-04,3.000000000000000000e+00,1.600000000000000000e+01
5.157400000000000000e+04,8.000000000000000654e-05,-1.499999999999999869e-04,-9.000000000000000567e-05,-2.900000000000000017e-04,-3.099999999999999999e-04,-5.000000000000000240e-05,5.200000000000000629e-04,3.600000000000000227e-04,3.000000000000000000e+00,1.600000000000000000e+01
5.157500000000000000e+04,8.000000000000000654e-05,-1.499999999999999869e-04,-9.000000000000000567e-05,-2.900000000000000017e-04,-3.099999999999999999e-04,-5.000000000000000240e-05,5.200000000000000629e-04,3.600000000000000227e-04,3.000000000000000000e+00,1.600000000000000000e+01
5.157600000000000000e+04,8.000000000000000654e-05,-1.499999999999999869e-04,-9.000000000000000567e-05,-2.900000000000000017e-04,-3.099999999999999999e-04,-5.000000000000000240e-05,5.200000000000000629e-04,3.600000000000000227e-04,3.000000000000000000e+00,1.600000000000000000e+01
5.157700000000000000e+04,8.000000000000000654e-05,-1.499999999999999869e-04,-9.000000000000000567e-05,-2.900000000000000017e-04,-3.099999999999999999e-04,-5.000000000000000240e-05,5.200000000000000629e-04,3.600000000000000227e-04,3.000000000000000000e+00,1.600000000000000000e+01
5.157800000000000000e+04,8.000000000000000654e-05,-1.499999999999999869e-04,-9.000000000000000567e-05,-2.900000000000000017e-04,-3.099999999999999999e-04,-5.000000000000000240e-05,5.200000000000000629e-04,3.600000000000000227e-04,3.000000000000000000e+00,1.600000000000000000e+01
5.157900000000000000e+04,8.000000000000000654e-05,-1.499999999999999869e-04,-9.000000000000000567e-05,-2.900000000000000017e-04,-3.099999999999999999e-04,-5.000000000000000240e-05,5.200000000000000629e-04,3.600000000000000227e-04,3.000000000000000000e+00,1.600000000000000000e+01
5.158000000000000000e+04,8.000000000000000654e-05,-1.499999999999999869e-04,-9.000000000000000567e-05,-2.900000000000000017e-04,-3.099999999999999999e-04,-5.000000000000000240e-05,5.200000000000000629e-04,3.600000000000000227e-04,3.000000000000000000e+00,1.600000000000000000e+01
5.158100000000000000e+04,8.000000000000000654e-05,-1.499999999999999869e-04,-9.000000000000000567e-05,-2.900000000000000017e-04,-3.099999999999999999e-04,-5.000000000000000240e-05,5.200000000000000629e-04,3.600000000000000227e-04,3.000000000000000000e+00,1.600000000000000000e+01
5.158200000000000000e+04,8.000000000000000654e-05,-1.499999999999999869e-04,-9.000000000000000567e-05,-2.900000000000000017e-04,-3.099999999999999999e-04,-5.000000000000000240e-05,5.200000000000000629e-04,3.600000000000000227e-04,3.000000000000000000e+00,1.600000000000000000e+01
5.158300000000000000e+04,8.000000000000000654e-05,-1.499999999999999869e-04,-9.000000000000000567e-05,-2.900000000000000017e-04,-3.099999999999999999e-04,-5.000000000000000240e-05,5.200000000000000629e-04,3.600000000000000227e-04,3.000000000000000000e+00,1.600000000000000000e+01
5.158400000000000000e+04,8.000000000000000654e-05,-1.499999999999999869e-04,-9.000000000000000567e-05,-2.900000000000000017e-04,-3.099999999999999999e-04,-5.000000000000000240e-05,5.200000000000000629e-04,3.600000000000000227e-04,3.000000000000000000e+00,1.600000000000000000e+01
5.158500000000000000e+04,8.000000000000000654e-05,-1.499999999999999869e-04,-9.000000000000000567e-05,-2.900000000000000017e-04,-3.099999999999999999e-04,-5.000000000000000240e-05,5.200000000000000629e-04,3.600000000000000227e-04,3.000000000000000000e+00,1.600000000000000000e+01
5.158600000000000000e+04,8.000000000000000654e-05,-1.499999999999999869e-04,-9.000000000000000567e-05,-2.900000000000000017e-04,-3.099999999999999999e-04,-5.000000000000000240e-05,5.200000000000000629e-04,3.600000000000000227e-04,3.000000000000000000e+00,1.600000000000000000e+01
5.158900000000000000e+04,4.099999999999999912e-04,0.000000000000000000e+00,2.000000000000000164e-05,-5.000000000000000240e-05,-4.099999999999999912e-04,1.699999999999999851e-04,-3.299999999999999982e-04,1.300000000000000157e-04,3.000000000000000000e+00,1.600000000000000000e+01
5.159000000000000000e+04,4.099999999999999912e-04,0.000000000000000000e+00,2.000000000000000164e-05,-5.000000000000000240e-05,-4.099999999999999912e-04,1.699999999999999851e-04,-3.299999999999999982e-04,1.300000000000000157e-04,3.000000000000000000e+00,1.600000000000000000e+01
5.159100000000000000e+04,4.099999999999999912e-04,0.000000000000000000e+00,2.000000000000000164e-05,-5.000000000000000240e-05,-4.099999999999999912e-04,1.699999999999999851e-04,-3.299999999999999982e-04,1.300000000000000157e-04,3.000000000000000000e+00,1.600000000000000000e+01
5.159200000000000000e+04,4.099999999999999912e-04,0.000000000000000000e+00,2.000000000000000164e-05,-5.000000000000000240e-05,-4.099999999999999912e-04,1.699999999999999851e-04,-3.299999999999999982e-04,1.300000000000000157e-04,3.000000000000000000e+00,1.600000000000000000e+01
5.159300000000000000e+04,4.099999999999999912e-04,0.000000000000000000e+00,2.000000000000000164e-05,-5.000000000000000240e-05,-4.099999999999999912e-04,1.699999999999999851e-04,-3.299999999999999982e-04,1.300000000000000157e-04,3.000000000000000000e+00,1.600000000000000000e+01
5.159400000000000000e+04,4.099999999999999912e-04,0.000000000000000000e+00,2.000000000000000164e-05,-5.000000000000000240e-05,-4.099999999999999912e-04,1.699999999999999851e-04,-3.299999999999999982e-04,1.300000000000000157e-04,3.000000000000000000e+00,1.600000000000000000e+01
5.159500000000000000e+04,4.099999999999999912e-04,0.000000000000000000e+00,2.000000000000000164e-05,-5.000000000000000240e-05,-4.099999999999999912e-04,1.699999999999999851e-04,-3.299999999999999982e-04,1.300000000000000157e-04,3.000000000000000000e+00,1.600000000000000000e+01
5.159600000000000000e+04,4.099999999999999912e-04,0.000000000000000000e+00,2.000000000000000164e-05,-5.000000000000000240e-05,-4.099999999999999912e-04,1.699999999999999851e-04,-3.299999999999999982e-04,1.300000000000000157e-04,3.000000000000000000e+00,1.600000000000000000e+01
5.159700000000000000e+04,4.099999999999999912e-04,0.000000000000000000e+00,2.000000000000000164e-05,-5.000000000000000240e-05,-4.099999999999999912e-04,1.699999999999999851e-04,-3.299999999999999982e-04,1.300000000000000157e-04,3.000000000000000000e+00,1.600000000000000000e+01
5.159800000000000000e+04,4.099999999999999912e-04,0.000000000000000000e+00,2.000000000000000164e-05,-5.000000000000000240e-05,-4.099999999999999912e-04,1.699999999999999851e-04,-3.299999999999999982e-04,1.300000000000000157e-04,3.000000000000000000e+00,1.600000000000000000e+01
5.159900000000000000e+04,4.099999999999999912e-04,0.000000000000000000e+00,2.000000000000000164e-05,-5.000000000000000240e-05,-4.099999999999999912e-04,1.699999999999999851e-04,-3.299999999999999982e-04,1.300000000000000157e-04,3.000000000000000000e+00,1.600000000000000000e+01
5.160000000000000000e+04,5.400000000000000069e-04,1.300000000000000157e-04,8.000000000000000654e-05,-1.499999999999999869e-04,-5.999999999999999474e-05,1.499999999999999869e-04,-2.600000000000000314e-04,9.799999999999999684e-04,3.000000000000000000e+00,1.600000000000000000e+01
5.160100000000000000e+04,5.400000000000000069e-04,1.300000000000000157e-04,8.000000000000000654e-05,-1.499999999999999869e-04,-5.999999999999999474e-05,1.499999999999999869e-04,-2.600000000000000314e-04,9.799999999999999684e-04,3.000000000000000000e+00,1.600000000000000000e+01
5.160200000000000000e+04,5.400000000000000069e-04,1.300000000000000157e-04,8.000000000000000654e-05,-1.499999999999999869e-04,-5.999999999999999474e-05,1.499999999999999869e-04,-2.600000000000000314e-04,9.799999999999999684e-04,3.000000000000000000e+00,1.600000000000000000e+01
5.160300000000000000e+04,5.400000000000000069e-04,1.300000000000000157e-04,8.000000000000000654e-05,-1.499999999999999869e-04,-5.999999999999999474e-05,1.499999999999999869e-04,-2.600000000000000314e-04,9.799999999999999684e-04,3.000000000000000000e+00,1.600000000000000000e+01
5.160400000000000000e+04,5.400000000000000069e-04,1.300000000000000157e-04,8.000000000000000654e-05,-1.499999999999999869e-04,-5.999999999999999474e-05,1.499999999999999869e-04,-2.600000000000000314e-04,9.799999999999999684e-04,3.000000000000000000e+00,1.600000000000000000e+01
5.160500000000000000e+04,5.400000000000000069e-04,1.300000000000000157e-04,8.000000000000000654e-05,-1.499999999999999869e-04,-5.999999999999999474e-05,1.499999999999999869e-04,-2.600000000000000314e-04,9.799999999999999684e-04,3.000000000000000000e+00,1.600000000000000000e+01
5.160600000000000000e+04,5.400000000000000069e-04,1.300000000000000157e-04,8.000000000000000654e-05,-1.499999999999999869e-04,-5.999999999999999474e-05,1.499999999999999869e-04,-2.600000000000000314e-04,9.799999999999999684e-04,3.000000000000000000e+00,1.600000000000000000e+01
5.160700000000000000e+04,5.400000000000000069e-04,1.300000000000000157e-04,8.000000000000000654e-05,-1.499999999999999869e-04,-5.999999999999999474e-05,1.499999999999999869e-04,-2.600000000000000314e-04,9.799999999999999684e-04,3.000000000000000000e+00,1.600000000000000000e+01
5.160800000000000000e+04,5.999999999999999474e-05,1.000000000000000048e-04,6.999999999999999387e-05,-2.700000000000000035e-04,6.400000000000000524e-04,0.000000000000000000e+00,4.000000000000000327e-05,-5.000000000000000240e-05,3.000000000000000000e+00,1.600000000000000000e+01
5.160900000000000000e+04,5.999999999999999474e-05,1.000000000000000048e-04,6.999999999999999387e-05,-2.700000000000000035e-04,6.400000000000000524e-04,0.000000000000000000e+00,4.000000000000000327e-05,-5.000000000000000240e-05,3.000000000000000000e+00,1.600000000000000000e+01
5.161000000000000000e+04,5.999999999999999474e-05,1.000000000000000048e-04,6.999999999999999387e-05,-2.700000000000000035e-04,6.400000000000000524e-04,0.000000000000000000e+00,4.000000000000000327e-05,-5.000000000000000240e-05,3.000000000000000000e+00,1.600000000000000000e+01
5.161100000000000000e+04,5.999999999999999474e-05,1.000000000000000048e-04,6.999999999999999387e-05,-2.700000000000000035e-04,6.400000000000000524e-04,0.000000000000000000e+00,4.000000000000000327e-05,-5.000000000000000240e-05,3.000000000000000000e+00,1.600000000000000000e+01
5.161200000000000000e+04,5.999999999999999474e-05,1.000000000000000048e-04,6.999999999999999387e-05,-2.700000000000000035e-04,6.400000000000000524e-04,0.000000000000000000e+00,4.000000000000000327e-05,-5.000000000000000240e-05,3.000000000000000000e+00,1.600000000000000000e+01
5.161300000000000000e+04,5.999999999999999474e-05,1.000000000000000048e-04,6.999999999999999387e-05,-2.700000000000000035e-04,6.400000000000000524e-04,0.000000000000000000e+00,4.000000000000000327e-05,-5.000000000000000240e-05,3.000000000000000000e+00,1.600000000000000000e+01
5.161400000000000000e+04,5.999999999999999474e-05,1.000000000000000048e-04,6.999999999999999387e-05,-2.700000000000000035e-04,6.400000000000000524e-04,0.000000000000000000e+00,4.000000000000000327e-05,-5.000000000000000240e-05,3.000000000000000000e+00,1.600000000000000000e+01
5.161500000000000000e+04,5.999999999999999474e-05,1.000000000000000048e-04,6.999999999999999387e-05,-2.700000000000000035e-04,6.400000000000000524e-04,0.000000000000000000e+00,4.000000000000000327e-05,-5.000000000000000240e-05,3.000000000000000000e+00,1.600000000000000000e+01
5.161600000000000000e+04,5.999999999999999474e-05,1.000000000000000048e-04,6.999999999999999387e-05,-2.700000000000000035e-04,6.400000000000000524e-04,0.000000000000000000e+00,4.000000000000000327e-05,-5.000000000000000240e-05,3.000000000000000000e+00,1.600000000000000000e+01
5.161700000000000000e+04,5.999999999999999474e-05,1.000000000000000048e-04,6.999999999999999387e-05,-2.700000000000000035e-04,6.400000000000000524e-04,0.000000000000000000e+00,4.000000000000000327e-05,-5.000000000000000240e-05,3.000000000000000000e+00,1.600000000000000000e+01
5.161800000000000000e+04,5.999999999999999474e-05,1.000000000000000048e-04,6.999999999999999387e-05,-2.700000000000000035e-04,6.400000000000000524e-04,0.000000000000000000e+00,4.000000000000000327e-05,-5.000000000000000240e-05,3.000000000000000000e+00,1.600000000000000000e+01
5.161900000000000000e+04,5.999999999999999474e-05,1.000000000000000048e-04,6.999999999999999387e-05,-2.700000000000000035e-04,6.400000000000000524e-04,0.000000000000000000e+00,4.000000000000000327e-05,-5.000000000000000240e-05,3.000000000000000000e+00,1.600000000000000000e+01
5.162000000000000000e+04,5.999999999999999474e-05,1.000000000000000048e-04,6.999999999999999387e-05,-2.700000000000000035e-04,6.400000000000000524e-04,0.000000000000000000e+00,4.000000000000000327e-05,-5.000000000000000240e-05,3.000000000000000000e+00,1.600000000000000000e+01
5.162100000000000000e+04,5.999999999999999474e-05,1.000000000000000048e-04,6.999999999999999387e-05,-2.700000000000000035e-04,6.400000000000000524e-04,0.000000000000000000e+00,4.000000000000000327e-05,-5.000000000000000240e-05,3.000000000000000000e+00,1.600000000000000000e+01
5.162200000000000000e+04,5.999999999999999474e-05,1.000000000000000048e-04,6.999999999999999387e-05,-2.700000000000000035e-04,6.400000000000000524e-04,0.000000000000000000e+00,4.000000000000000327e-05,-5.000000000000000240e-05,3.000000000000000000e+00,1.600000000000000000e+01
5.162300000000000000e+04,5.999999999999999474e-05,1.000000000000000048e-04,6.999999999999999387e-05,-2.700000000000000035e-04,6.400000000000000524e-04,0.000000000000000000e+00,4.000000000000000327e-05,-5.000000000000000240e-05,3.000000000000000000e+00,1.600000000000000000e+01
5.162400000000000000e+04,-2.700000000000000035e-04,-1.000000000000000048e-04,-5.999999999999999474e-05,-1.300000000000000157e-04,1.000000000000000082e-05,-2.999999999999999737e-05,3.600000000000000227e-04,4.299999999999999894e-04,3.000000000000000000e+00,1.600000000000000000e+01
5.162500000000000000e+04,-3.299999999999999982e-04,-1.000000000000000082e-05,1.000000000000000082e-05,-5.999999999999999474e-05,-1.000000000000000082e-05,-1.100000000000000039e-04,-2.000000000000000096e-04,-5.500000000000000331e-04,3.000000000000000000e+00,1.600000000000000000e+01
5.162600000000000000e+04,-3.299999999999999982e-04,-1.000000000000000082e-05,1.000000000000000082e-05,-5.999999999999999474e-05,-1.000000000000000082e-05,-1.100000000000000039e-04,-2.000000000000000096e-04,-5.500000000000000331e-04,3.000000000000000000e+00,1.600000000000000000e+01
5.162700000000000000e+04,-3.299999999999999982e-04,-1.000000000000000082e-05,1.000000000000000082e-05,-5.999999999999999474e-05,-1.000000000000000082e-05,-1.100000000000000039e-04,-2.000000000000000096e-04,-5.500000000000000331e-04,3.000000000000000000e+00,1.600000000000000000e+01
5.162800000000000000e+04,-3.299999999999999982e-04,-1.000000000000000082e-05,1.000000000000000082e-05,-5.999999999999999474e-05,-1.000000000000000082e-05,-1.100000000000000039e-04,-2.000000000000000096e-04,-5.500000000000000331e-04,3.000000000000000000e+00,1.600000000000000000e+01
5.162900000000000000e+04,-3.299999999999999982e-04,-1.000000000000000082e-05,1.000000000000000082e-05,-5.999999999999999474e-05,-1.000000000000000082e-05,-1.100000000000000039e-04,-2.000000000000000096e-04,-5.500000000000000331e-04,3.000000000000000000e+00,1.600000000000000000e+01
5.163000000000000000e+04,-3.299999999999999982e-04,-1.000000000000000082e-05,1.000000000000000082e-05,-5.999999999999999474e-05,-1.000000000000000082e-05,-1.100000000000000039e-04,-2.000000000000000096e-04,-5.500000000000000331e-04,3.000000000000000000e+00,1.600000000000000000e+01
5.163100000000000000e+04,-3.299999999999999982e-04,-1.000000000000000082e-05,1.000000000000000082e-05,-5.999999999999999474e-05,-1.000000000000000082e-05,-1.100000000000000039e-04,-2.000000000000000096e-04,-5.500000000000000331e-04,3.000000000000000000e+00,1.600000000000000000e+01
5.163200000000000000e+04,-3.299999999999999982e-04,-1.000000000000000082e-05,1.000000000000000082e-05,-5.999999999999999474e-05,-1.000000000000000082e-05,-1.100000000000000039e-04,-2.000000000000000096e-04,-5.500000000000000331e-04,3.000000000000000000e+00,1.600000000000000000e+01
5.163300000000000000e+04,-3.299999999999999982e-04,-1.000000000000000082e-05,1.000000000000000082e-05,-5.999999999999999474e-05,-1.000000000000000082e-05,-1.100000000000000039e-04,-2.000000000000000096e-04,-5.500000000000000331e-04,3.000000000000000000e+00,1.600000000000000000e+01
5.163400000000000000e+04,-3.299999999999999982e-04,-1.000000000000000082e-05,1.000000000000000082e-05,-5.999999999999999474e-05,-1.000000000000000082e-05,-1.100000000000000039e-04,-2.000000000000000096e-04,-5.500000000000000331e-04,3.000000000000000000e+00,1.600000000000000000e+01
5.163500000000000000e+04,-3.299999999999999982e-04,-1.000000000000000082e-05,1.000000000000000082e-05,-5.999999999999999474e-05,-1.000000000000000082e-05,-1.100000000000000039e-04,-2.000000000000000096e-04,-5.500000000000000331e-04,3.000000000000000000e+00,1.600000000000000000e+01
5.163600000000000000e+04,-3.299999999999999982e-04,-1.000000000000000082e-05,1.000000000000000082e-05,-5.999999999999999474e-05,-1.000000000000000082e-05,-1.100000000000000039e-04,-2.000000000000000096e-04,-5.500000000000000331e-04,3.000000000000000000e+00,1.600000000000000000e+01
5.163900000000000000e+04,-3.299999999999999982e-04,-1.000000000000000082e-05,1.000000000000000082e-05,-5.999999999999999474e-05,-1.000000000000000082e-05,-1.100000000000000039e-04,-2.000000000000000096e-04,-5.500000000000000331e-04,3.000000000000000000e+00,1.600000000000000000e+01
5.164000000000000000e+04,-3.299999999999999982e-04,-1.000000000000000082e-05,1.000000000000000082e-05,-5.999999999999999474e-05,-1.000000000000000082e-05,-1.100000000000000039e-04,-2.000000000000000096e-04,-5.500000000000000331e-04,3.000000000000000000e+00,1.600000000000000000e+01
5.164100000000000000e+04,-3.299999999999999982e-04,-1.000000000000000082e-05,1.000000000000000082e-05,-5.999999999999999474e-05,-1.000000000000000082e-05,-1.100000000000000039e-04,-2.000000000000000096e-04,-5.500000000000000331e-04,3.000000000000000000e+00,1.600000000000000000e+01
5.164200000000000000e+04,-3.299999999999999982e-04,-1.000000000000000082e-05,1.000000000000000082e-05,-5.999999999999999474e-05,-1.000000000000000082e-05,-1.100000000000000039e-04,-2.000000000000000096e-04,-5.500000000000000331e-04,3.000000000000000000e+00,1.600000000000000000e+01
5.164300000000000000e+04,-3.299999999999999982e-04,-1.000000000000000082e-05,1.000000000000000082e-05,-5.999999999999999474e-05,-1.000000000000000082e-05,-1.100000000000000039e-04,-2.000000000000000096e-04,-5.500000000000000331e-04,3.000000000000000000e+00,1.600000000000000000e+01
5.164400000000000000e+04,-3.299999999999999982e-04,-1.000000000000000082e-05,1.000000000000000082e-05,-5.999999999999999474e-05,-1.000000000000000082e-05,-1.100000000000000039e-04,-2.000000000000000096e-04,-5.500000000000000331e-04,3.000000000000000000e+00,1.600000000000000000e+01
5.164500000000000000e+04,-3.299999999999999982e-04,-1.000000000000000082e-05,1.000000000000000082e-05,-5.999999999999999474e-05,-1.000000000000000082e-05,-1.100000000000000039e-04,-2.000000000000000096e-04,-5.500000000000000331e-04,3.000000000000000000e+00,1.600000000000000000e+01
5.164600000000000000e+04,-3.299999999999999982e-04,-1.000000000000000082e-05,1.000000000000000082e-05,-5.999999999999999474e-05,-1.000000000000000082e-05,-1.100000000000000039e-04,-2.000000000000000096e-04,-5.500000000000000331e-04,3.000000000000000000e+00,1.600000000000000000e+01
5.164700000000000000e+04,1.000000000000000082e-05,-1.000000000000000082e-05,-5.999999999999999474e-05,-2.000000000000000164e-05,1.000000000000000048e-04,-4.000000000000000327e-05,-1.199999999999999895e-04,-5.200000000000000629e-04,3.000000000000000000e+00,1.600000000000000000e+01
5.164800000000000000e+04,1.000000000000000082e-05,-1.000000000000000082e-05,-5.999999999999999474e-05,-2.000000000000000164e-05,1.000000000000000048e-04,-4.000000000000000327e-05,-1.199999999999999895e-04,-5.200000000000000629e-04,3.000000000000000000e+00,1.600000000000000000e+01
5.164900000000000000e+04,1.000000000000000082e-05,-1.000000000000000082e-05,-5.999999999999999474e-05,-2.000000000000000164e-05,1.000000000000000048e-04,-4.000000000000000327e-05,-1.199999999999999895e-04,-5.200000000000000629e-04,3.000000000000000000e+00,1.600000000000000000e+01
5.165000000000000000e+04,1.000000000000000082e-05,-1.000000000000000082e-05,-5.999999999999999474e-05,-2.000000000000000164e-05,1.000000000000000048e-04,-4.000000000000000327e-05,-1.199999999999999895e-04,-5.200000000000000629e-04,3.000000000000000000e+00,1.600000000000000000e+01
5.165100000000000000e+04,1.000000000000000082e-05,-1.000000000000000082e-05,-5.999999999999999474e-05,-2.000000000000000164e-05,1.000000000000000048e-04,-4.000000000000000327e-05,-1.199999999999999895e-04,-5.200000000000000629e-04,3.000000000000000000e+00,1.600000000000000000e+01
5.165200000000000000e+04,1.000000000000000082e-05,-1.000000000000000082e-05,-5.999999999999999474e-05,-2.000000000000000164e-05,1.000000000000000048e-04,-4.000000000000000327e-05,-1.199999999999999895e-04,-5.200000000000000629e-04,3.000000000000000000e+00,1.600000000000000000e+01
5.165300000000000000e+04,1.000000000000000082e-05,-1.000000000000000082e-05,-5.999999999999999474e-05,-2.000000000000000164e-05,1.000000000000000048e-04,-4.000000000000000327e-05,-1.199999999999999895e-04,-5.200000000000000629e-04,3.000000000000000000e+00,1.600000000000000000e+01
5.165400000000000000e+04,1.000000000000000082e-05,-1.000000000000000082e-05,-5.999999999999999474e-05,-2.000000000000000164e-05,1.000000000000000048e-04,-4.000000000000000327e-05,-1.199999999999999895e-04,-5.200000000000000629e-04,3.000000000000000000e+00,1.600000000000000000e+01
5.165500000000000000e+04,1.000000000000000082e-05,-1.000000000000000082e-05,-5.999999999999999474e-05,-2.000000000000000164e-05,1.000000000000000048e-04,-4.000000000000000327e-05,-1.199999999999999895e-04,-5.200000000000000629e-04,3.000000000000000000e+00,1.600000000000000000e+01
5.165600000000000000e+04,1.000000000000000082e-05,-1.000000000000000082e-05,-5.999999999999999474e-05,-2.000000000000000164e-05,1.000000000000000048e-04,-4.000000000000000327e-05,-1.199999999999999895e-04,-5.200000000000000629e-04,3.000000000000000000e+00,1.600000000000000000e+01
5.165700000000000000e+04,1.000000000000000082e-05,-1.000000000000000082e-05,-5.999999999999999474e-05,-2.000000000000000164e-05,1.000000000000000048e-04,-4.000000000000000327e-05,-1.199999999999999895e-04,-5.200000000000000629e-04,3.000000000000000000e+00,1.600000000000000000e+01
5.165800000000000000e+04,1.000000000000000082e-05,-1.000000000000000082e-05,-5.999999999999999474e-05,-2.000000000000000164e-05,1.000000000000000048e-04,-4.000000000000000327e-05,-1.199999999999999895e-04,-5.200000000000000629e-04,3.000000000000000000e+00,1.600000000000000000e+01
5.165900000000000000e+04,1.000000000000000082e-05,-1.000000000000000082e-05,-5.999999999999999474e-05,-2.000000000000000164e-05,1.000000000000000048e-04,-4.000000000000000327e-05,-1.199999999999999895e-04,-5.200000000000000629e-04,3.000000000000000000e+00,1.600000000000000000e+01
5.166000000000000000e+04,-3.299999999999999982e-04,5.999999999999999474e-05,2.000000000000000164e-05,3.600000000000000227e-04,-2.999999999999999737e-05,5.999999999999999474e-05,-3.899999999999999929e-04,-2.399999999999999790e-04,3.000000000000000000e+00,1.600000000000000000e+01
5.166100000000000000e+04,-3.299999999999999982e-04,5.999999999999999474e-05,2.000000000000000164e-05,3.600000000000000227e-04,-2.999999999999999737e-05,5.999999999999999474e-05,-3.899999999999999929e-04,-2.399999999999999790e-04,3.000000000000000000e+00,1.600000000000000000e+01
5.166200000000000000e+04,-3.299999999999999982e-04,5.999999999999999474e-05,2.000000000000000164e-05,3.600000000000000227e-04,-2.999999999999999737e-05,5.999999999999999474e-05,-3.899999999999999929e-04,-2.399999999999999790e-04,3.000000000000000000e+00,1.600000000000000000e+01
5.166300000000000000e+04,-3.299999999999999982e-04,5.999999999999999474e-05,2.000000000000000164e-05,3.600000000000000227e-04,-2.999999999999999737e-05,5.999999999999999474e-05,-3.899999999999999929e-04,-2.399999999999999790e-04,3.000000000000000000e+00,1.600000000000000000e+01
5.166400000000000000e+04,-3.299999999999999982e-04,5.999999999999999474e-05,2.000000000000000164e-05,3.600000000000000227e-04,-2.999999999999999737e-05,5.999999999999999474e-05,-3.899999999999999929e-04,-2.399999999999999790e-04,3.000000000000000000e+00,1.600000000000000000e+01
5.166500000000000000e+04,-3.299999999999999982e-04,5.999999999999999474e-05,2.000000000000000164e-05,3.600000000000000227e-04,-2.999999999999999737e-05,5.999999999999999474e-05,-3.899999999999999929e-04,-2.399999999999999790e-04,3.000000000000000000e+00,1.600000000000000000e+01
5.166600000000000000e+04,-3.299999999999999982e-04,5.999999999999999474e-05,2.000000000000000164e-05,3.600000000000000227e-04,-2.999999999999999737e-05,5.999999999999999474e-05,-3.899999999999999929e-04,-2.399999999999999790e-04,3.000000000000000000e+00,1.600000000000000000e+01
5.166700000000000000e+04,-3.299999999999999982e-04,5.999999999999999474e-05,2.000000000000000164e-05,3.600000000000000227e-04,-2.999999999999999737e-05,5.999999999999999474e-05,-3.899999999999999929e-04,-2.399999999999999790e-04,3.000000000000000000e+00,1.600000000000000000e+01
5.166800000000000000e+04,-4.899999999999999842e-04,-1.300000000000000157e-04,-6.999999999999999387e-05,1.100000000000000039e-04,1.399999999999999877e-04,-2.000000000000000096e-04,-4.400000000000000157e-04,-3.499999999999999964e-04,3.000000000000000000e+00,1.600000000000000000e+01
5.166900000000000000e+04,-4.899999999999999842e-04,-1.300000000000000157e-04,-6.999999999999999387e-05,1.100000000000000039e-04,1.399999999999999877e-04,-2.000000000000000096e-04,-4.400000000000000157e-04,-3.499999999999999964e-04,3.000000000000000000e+00,1.600000000000000000e+01
5.167000000000000000e+04,-4.899999999999999842e-04,-1.300000000000000157e-04,-6.999999999999999387e-05,1.100000000000000039e-04,1.399999999999999877e-04,-2.000000000000000096e-04,-4.400000000000000157e-04,-3.499999999999999964e-04,3.000000000000000000e+00,1.600000000000000000e+01
5.167100000000000000e+04,-4.899999999999999842e-04,-1.300000000000000157e-04,-6.999999999999999387e-05,1.100000000000000039e-04,1.399999999999999877e-04,-2.000000000000000096e-04,-4.400000000000000157e-04,-3.499999999999999964e-04,3.000000000000000000e+00,1.600000000000000000e+01
5.167200000000000000e+04,-4.899999999999999842e-04,-1.300000000000000157e-04,-6.999999999999999387e-05,1.100000000000000039e-04,1.399999999999999877e-04,-2.000000000000000096e-04,-4.400000000000000157e-04,-3.499999999999999964e-04,3.000000000000000000e+00,1.600000000000000000e+01
5.167300000000000000e+04,-4.899999999999999842e-04,-1.300000000000000157e-04,-6.999999999999999387e-05,1.100000000000000039e-04,1.399999999999999877e-04,-2.000000000000000096e-04,-4.400000000000000157e-04,-3.499999999999999964e-04,3.000000000000000000e+00,1.600000000000000000e+01
5.167400000000000000e+04,-4.899999999999999842e-04,-1.300000000000000157e-04,-6.999999999999999387e-05,1.100000000000000039e-04,1.399999999999999877e-04,-2.000000000000000096e-04,-4.400000000000000157e-04,-3.499999999999999964e-04,3.000000000000000000e+00,1.600000000000000000e+01
5.167500000000000000e+04,-4.899999999999999842e-04,-1.300000000000000157e-04,-6.999999999999999387e-05,1.100000000000000039e-04,1.399999999999999877e-04,-2.000000000000000096e-04,-4.400000000000000157e-04,-3.499999999999999964e-04,3.000000000000000000e+00,1.600000000000000000e+01
5.167600000000000000e+04,-4.899999999999999842e-04,-1.300000000000000157e-04,-6.999999999999999387e-05,1.100000000000000039e-04,1.399999999999999877e-04,-2.000000000000000096e-04,-4.400000000000000157e-04,-3.499999999999999964e-04,3.000000000000000000e+00,1.600000000000000000e+01
5.167700000000000000e+04,-4.899999999999999842e-04,-1.300000000000000157e-04,-6.999999999999999387e-05,1.100000000000000039e-04,1.399999999999999877e-04,-2.000000000000000096e-04,-4.400000000000000157e-04,-3.499999999999999964e-04,3.000000000000000000e+00,1.600000000000000000e+01
5.167800000000000000e+04,-4.899999999999999842e-04,-1.300000000000000157e-04,-6.999999999999999387e-05,1.100000000000000039e-04,1.399999999999999877e-04,-2.000000000000000096e-04,-4.400000000000000157e-04,-3.499999999999999964e-04,3.000000000000000000e+00,1.600000000000000000e+01
5.167900000000000000e+04,-4.899999999999999842e-04,-1.300000000000000157e-04,-6.999999999999999387e-05,1.100000000000000039e-04,1.399999999999999877e-04,-2.000000000000000096e-04,-4.400000000000000157e-04,-3.499999999999999964e-04,3.000000000000000000e+00,1.600000000000000000e+01
5.168000000000000000e+04,-4.899999999999999842e-04,-1.300000000000000157e-04,-6.999999999999999387e-05,1.100000000000000039e-04,1.399999999999999877e-04,-2.000000000000000096e-04,-4.400000000000000157e-04,-3.499999999999999964e-04,3.000000000000000000e+00,1.600000000000000000e+01
5.168100000000000000e+04,-4.899999999999999842e-04,-1.300000000000000157e-04,-6.999999999999999387e-05,1.100000000000000039e-04,1.399999999999999877e-04,-2.000000000000000096e-04,-4.400000000000000157e-04,-3.499999999999999964e-04,3.000000000000000000e+00,1.600000000000000000e+01
5.168200000000000000e+04,-4.899999999999999842e-04,-1.300000000000000157e-04,-6.999999999999999387e-05,1.100000000000000039e-04,1.399999999999999877e-04,-2.000000000000000096e-04,-4.400000000000000157e-04,-3.499999999999999964e-04,3.000000000000000000e+00,1.600000000000000000e+01
5.168300000000000000e+04,-4.899999999999999842e-04,-1.300000000000000157e-04,-6.999999999999999387e-05,1.100000000000000039e-04,1.399999999999999877e-04,-2.000000000000000096e-04,-4.400000000000000157e-04,-3.499999999999999964e-04,3.000000000000000000e+00,1.600000000000000000e+01
5.168400000000000000e+04,-4.200000000000000174e-04,-1.000000000000000082e-05,-2.999999999999999737e-05,1.100000000000000039e-04,5.999999999999999474e-04,5.999999999999999474e-05,-1.800000000000000113e-04,-3.099999999999999999e-04,3.000000000000000000e+00,1.600000000000000000e+01
5.168500000000000000e+04,-4.000000000000000192e-04,2.999999999999999737e-05,1.300000000000000157e-04,1.100000000000000039e-04,-4.000000000000000192e-04,3.200000000000000262e-04,4.299999999999999894e-04,1.699999999999999851e-04,3.000000000000000000e+00,1.600000000000000000e+01
5.168600000000000000e+04,-4.000000000000000192e-04,2.999999999999999737e-05,1.300000000000000157e-04,1.100000000000000039e-04,-4.000000000000000192e-04,3.200000000000000262e-04,4.299999999999999894e-04,1.699999999999999851e-04,3.000000000000000000e+00,1.600000000000000000e+01
5.168800000000000000e+04,-4.000000000000000192e-04,2.999999999999999737e-05,1.300000000000000157e-04,1.100000000000000039e-04,-4.000000000000000192e-04,3.200000000000000262e-04,4.299999999999999894e-04,1.699999999999999851e-04,3.000000000000000000e+00,1.600000000000000000e+01
5.168900000000000000e+04,-4.000000000000000192e-04,2.999999999999999737e-05,1.300000000000000157e-04,1.100000000000000039e-04,-4.000000000000000192e-04,3.200000000000000262e-04,4.299999999999999894e-04,1.699999999999999851e-04,3.000000000000000000e+00,1.600000000000000000e+01
5.169000000000000000e+04,-4.000000000000000192e-04,2.999999999999999737e-05,1.300000000000000157e-04,1.100000000000000039e-04,-4.000000000000000192e-04,3.200000000000000262e-04,4.299999999999999894e-04,1.699999999999999851e-04,3.000000000000000000e+00,1.600000000000000000e+01
5.169100000000000000e+04,-4.000000000000000192e-04,2.999999999999999737e-05,1.300000000000000157e-04,1.100000000000000039e-04,-4.000000000000000192e-04,3.200000000000000262e-04,4.299999999999999894e-04,1.699999999999999851e-04,3.000000000000000000e+00,1.600000000000000000e+01
5.169200000000000000e+04,-4.000000000000000192e-04,2.999999999999999737e-05,1.300000000000000157e-04,1.100000000000000039e-04,-4.000000000000000192e-04,3.200000000000000262e-04,4.299999999999999894e-04,1.699999999999999851e-04,3.000000000000000000e+00,1.600000000000000000e+01
5.169300000000000000e+04,-4.000000000000000192e-04,2.999999999999999737e-05,1.300000000000000157e-04,1.100000000000000039e-04,-4.000000000000000192e-04,3.200000000000000262e-04,4.299999999999999894e-04,1.699999999999999851e-04,3.000000000000000000e+00,1.600000000000000000e+01
5.169400000000000000e+04,-4.000000000000000192e-04,2.999999999999999737e-05,1.300000000000000157e-04,1.100000000000000039e-04,-4.000000000000000192e-04,3.200000000000000262e-04,4.299999999999999894e-04,1.699999999999999851e-04,3.000000000000000000e+00,1.600000000000000000e+01
5.169500000000000000e+04,-4.000000000000000192e-04,2.999999999999999737e-05,1.300000000000000157e-04,1.100000000000000039e-04,-4.000000000000000192e-04,3.200000000000000262e-04,4.299999999999999894e-04,1.699999999999999851e-04,3.000000000000000000e+00,1.600000000000000000e+01
5.169600000000000000e+04,-4.000000000000000192e-04,2.999999999999999737e-05,1.300000000000000157e-04,1.100000000000000039e-04,-4.000000000000000192e-04,3.200000000000000262e-04,4.299999999999999894e-04,1.699999999999999851e-04,3.000000000000000000e+00,1.600000000000000000e+01
5.169700000000000000e+04,-4.000000000000000192e-04,2.999999999999999737e-05,1.300000000000000157e-04,1.100000000000000039e-04,-4.000000000000000192e-04,3.200000000000000262e-04,4.299999999999999894e-04,1.699999999999999851e-04,3.000000000000000000e+00,1.600000000000000000e+01
5.169800000000000000e+04,-4.000000000000000192e-04,2.999999999999999737e-05,1.300000000000000157e-04,1.100000000000000039e-04,-4.000000000000000192e-04,3.200000000000000262e-04,4.299999999999999894e-04,1.699999999999999851e-04,3.000000000000000000e+00,1.600000000000000000e+01
5.169900000000000000e+04,-4.000000000000000192e-04,2.999999999999999737e-05,1.300000000000000157e-04,1.100000000000000039e-04,-4.000000000000000192e-04,3.200000000000000262e-04,4.299999999999999894e-04,1.699999999999999851e-04,3.000000000000000000e+00,1.600000000000000000e+01
5.170000000000000000e+04,-4.000000000000000192e-04,2.999999999999999737e-05,1.300000000000000157e-04,1.100000000000000039e-04,-4.000000000000000192e-04,3.200000000000000262e-04,4.299999999999999894e-04,1.699999999999999851e-04,3.000000000000000000e+00,1.600000000000000000e+01
5.170100000000000000e+04,-4.000000000000000192e-04,2.999999999999999737e-05,1.300000000000000157e-04,1.100000000000000039e-04,-4.000000000000000192e-04,3.200000000000000262e-04,4.299999999999999894e-04,1.699999999999999851e-04,3.000000000000000000e+00,1.600000000000000000e+01
5.170200000000000000e+04,-4.000000000000000192e-04,2.999999999999999737e-05,1.300000000000000157e-04,1.100000000000000039e-04,-4.000000000000000192e-04,3.200000000000000262e-04,4.299999999999999894e-04,1.699999999999999851e-04,3.000000000000000000e+00,1.600000000000000000e+01
5.170300000000000000e+04,-4.000000000000000192e-04,2.999999999999999737e-05,1.300000000000000157e-04,1.100000000000000039e-04,-4.000000000000000192e-04,3.200000000000000262e-04,4.299999999999999894e-04,1.699999999999999851e-04,3.000000000000000000e+00,1.600000000000000000e+01
5.170400000000000000e+04,-4.000000000000000192e-04,2.999999999999999737e-05,1.300000000000000157e-04,1.100000000000000039e-04,-4.000000000000000192e-04,3.200000000000000262e-04,4.299999999999999894e-04,1.699999999999999851e-04,3.000000000000000000e+00,1.600000000000000000e+01
5.170500000000000000e+04,-4.000000000000000192e-04,2.999999999999999737e-05,1.300000000000000157e-04,1.100000000000000039e-04,-4.000000000000000192e-04,3.200000000000000262e-04,4.299999999999999894e-04,1.699999999999999851e-04,3.000000000000000000e+00,1.600000000000000000e+01
5.170600000000000000e+04,-4.000000000000000192e-04,2.999999999999999737e-05,1.300000000000000157e-04,1.100000000000000039e-04,-4.000000000000000192e-04,3.200000000000000262e-04,4.299999999999999894e-04,1.699999999999999851e-04,3.000000000000000000e+00,1.600000000000000000e+01
5.170700000000000000e+04,1.800000000000000113e-04,9.000000000000000567e-05,1.000000000000000082e-05,-1.499999999999999869e-04,-1.000000000000000082e-05,-8.000000000000000654e-05,8.000000000000000654e-05,1.300000000000000157e-04,3.000000000000000000e+00,1.600000000000000000e+01
5.170800000000000000e+04,3.200000000000000262e-04,1.000000000000000082e-05,2.000000000000000164e-05,5.000000000000000240e-05,8.099999999999999561e-04,2.399999999999999790e-04,6.099999999999999737e-04,1.600000000000000131e-04,3.000000000000000000e+00,1.600000000000000000e+01
5.170900000000000000e+04,3.200000000000000262e-04,1.000000000000000082e-05,2.000000000000000164e-05,5.000000000000000240e-05,8.099999999999999561e-04,2.399999999999999790e-04,6.099999999999999737e-04,1.600000000000000131e-04,3.000000000000000000e+00,1.600000000000000000e+01
5.171000000000000000e+04,3.200000000000000262e-04,1.000000000000000082e-05,2.000000000000000164e-05,5.000000000000000240e-05,8.099999999999999561e-04,2.399999999999999790e-04,6.099999999999999737e-04,1.600000000000000131e-04,3.000000000000000000e+00,1.600000000000000000e+01
5.171100000000000000e+04,3.200000000000000262e-04,1.000000000000000082e-05,2.000000000000000164e-05,5.000000000000000240e-05,8.099999999999999561e-04,2.399999999999999790e-04,6.099999999999999737e-04,1.600000000000000131e-04,3.000000000000000000e+00,1.600000000000000000e+01
5.171200000000000000e+04,3.200000000000000262e-04,1.000000000000000082e-05,2.000000000000000164e-05,5.000000000000000240e-05,8.099999999999999561e-04,2.399999999999999790e-04,6.099999999999999737e-04,1.600000000000000131e-04,3.000000000000000000e+00,1.600000000000000000e+01
5.171300000000000000e+04,3.200000000000000262e-04,1.000000000000000082e-05,2.000000000000000164e-05,5.000000000000000240e-05,8.099999999999999561e-04,2.399999999999999790e-04,6.099999999999999737e-04,1.600000000000000131e-04,3.000000000000000000e+00,1.600000000000000000e+01
5.171400000000000000e+04,3.200000000000000262e-04,1.000000000000000082e-05,2.000000000000000164e-05,5.000000000000000240e-05,8.099999999999999561e-04,2.399999999999999790e-04,6.099999999999999737e-04,1.600000000000000131e-04,3.000000000000000000e+00,1.600000000000000000e+01
5.171500000000000000e+04,3.200000000000000262e-04,1.000000000000000082e-05,2.000000000000000164e-05,5.000000000000000240e-05,8.099999999999999561e-04,2.399999999999999790e-04,6.099999999999999737e-04,1.600000000000000131e-04,3.000000000000000000e+00,1.600000000000000000e+01
5.171600000000000000e+04,3.200000000000000262e-04,1.000000000000000082e-05,2.000000000000000164e-05,5.000000000000000240e-05,8.099999999999999561e-04,2.399999999999999790e-04,6.099999999999999737e-04,1.600000000000000131e-04,3.000000000000000000e+00,1.600000000000000000e+01
5.171700000000000000e+04,3.200000000000000262e-04,1.000000000000000082e-05,2.000000000000000164e-05,5.000000000000000240e-05,8.099999999999999561e-04,2.399999999999999790e-04,6.099999999999999737e-04,1.600000000000000131e-04,3.000000000000000000e+00,1.600000000000000000e+01
5.171800000000000000e+04,3.200000000000000262e-04,1.000000000000000082e-05,2.000000000000000164e-05,5.000000000000000240e-05,8.099999999999999561e-04,2.399999999999999790e-04,6.099999999999999737e-04,1.600000000000000131e-04,3.000000000000000000e+00,1.600000000000000000e+01
5.171900000000000000e+04,3.200000000000000262e-04,1.000000000000000082e-05,2.000000000000000164e-05,5.000000000000000240e-05,8.099999999999999561e-04,2.399999999999999790e-04,6.099999999999999737e-04,1.600000000000000131e-04,3.000000000000000000e+00,1.600000000000000000e+01
5.172000000000000000e+04,-1.100000000000000039e-04,-1.000000000000000082e-05,4.000000000000000327e-05,-1.600000000000000131e-04,-2.200000000000000078e-04,-8.000000000000000654e-05,-1.800000000000000113e-04,-2.799999999999999755e-04,3.000000000000000000e+00,1.600000000000000000e+01
5.172100000000000000e+04,-1.100000000000000039e-04,-1.000000000000000082e-05,4.000000000000000327e-05,-1.600000000000000131e-04,-2.200000000000000078e-04,-8.000000000000000654e-05,-1.800000000000000113e-04,-2.799999999999999755e-04,3.000000000000000000e+00,1.600000000000000000e+01
5.172200000000000000e+04,-1.100000000000000039e-04,-1.000000000000000082e-05,4.000000000000000327e-05,-1.600000000000000131e-04,-2.200000000000000078e-04,-8.000000000000000654e-05,-1.800000000000000113e-04,-2.799999999999999755e-04,3.000000000000000000e+00,1.600000000000000000e+01
5.172300000000000000e+04,-1.100000000000000039e-04,-1.000000000000000082e-05,4.000000000000000327e-05,-1.600000000000000131e-04,-2.200000000000000078e-04,-8.000000000000000654e-05,-1.800000000000000113e-04,-2.799999999999999755e-04,3.000000000000000000e+00,1.600000000000000000e+01
5.172400000000000000e+04,-1.100000000000000039e-04,-1.000000000000000082e-05,4.000000000000000327e-05,-1.600000000000000131e-04,-2.200000000000000078e-04,-8.000000000000000654e-05,-1.800000000000000113e-04,-2.799999999999999755e-04,3.000000000000000000e+00,1.600000000000000000e+01
5.172500000000000000e+04,-1.100000000000000039e-04,-1.000000000000000082e-05,4.000000000000000327e-05,-1.600000000000000131e-04,-2.200000000000000078e-04,-8.000000000000000654e-05,-1.800000000000000113e-04,-2.799999999999999755e-04,3.000000000000000000e+00,1.600000000000000000e+01
5.172600000000000000e+04,-1.100000000000000039e-04,-1.000000000000000082e-05,4.000000000000000327e-05,-1.600000000000000131e-04,-2.200000000000000078e-04,-8.000000000000000654e-05,-1.800000000000000113e-04,-2.799999999999999755e-04,3.000000000000000000e+00,1.600000000000000000e+01
5.172700000000000000e+04,-1.100000000000000039e-04,-1.000000000000000082e-05,4.000000000000000327e-05,-1.600000000000000131e-04,-2.200000000000000078e-04,-8.000000000000000654e-05,-1.800000000000000113e-04,-2.799999999999999755e-04,3.000000000000000000e+00,1.600000000000000000e+01
5.172800000000000000e+04,-1.100000000000000039e-04,-1.000000000000000082e-05,4.000000000000000327e-05,-1.600000000000000131e-04,-2.200000000000000078e-04,-8.000000000000000654e-05,-1.800000000000000113e-04,-2.799999999999999755e-04,3.000000000000000000e+00,1.600000000000000000e+01
5.172900000000000000e+04,-4.000000000000000327e-05,0.000000000000000000e+00,-1.000000000000000082e-05,1.699999999999999851e-04,-2.500000000000000052e-04,-8.000000000000000654e-05,4.499999999999999877e-04,3.699999999999999947e-04,3.000000000000000000e+00,1.600000000000000000e+01
5.173000000000000000e+04,-4.000000000000000327e-05,0.000000000000000000e+00,-1.000000000000000082e-05,1.699999999999999851e-04,-2.500000000000000052e-04,-8.000000000000000654e-05,4.499999999999999877e-04,3.699999999999999947e-04,3.000000000000000000e+00,1.600000000000000000e+01
5.173100000000000000e+04,-4.000000000000000327e-05,0.000000000000000000e+00,-1.000000000000000082e-05,1.699999999999999851e-04,-2.500000000000000052e-04,-8.000000000000000654e-05,4.499999999999999877e-04,3.699999999999999947e-04,3.000000000000000000e+00,1.600000000000000000e+01
5.173200000000000000e+04,-4.000000000000000327e-05,0.000000000000000000e+00,-1.000000000000000082e-05,1.699999999999999851e-04,-2.500000000000000052e-04,-8.000000000000000654e-05,4.499999999999999877e-04,3.699999999999999947e-04,3.000000000000000000e+00,1.600000000000000000e+01
5.173300000000000000e+04,-4.000000000000000327e-05,0.000000000000000000e+00,-1.000000000000000082e-05,1.699999999999999851e-04,-2.500000000000000052e-04,-8.000000000000000654e-05,4.499999999999999877e-04,3.699999999999999947e-04,3.000000000000000000e+00,1.600000000000000000e+01
5.173400000000000000e+04,-4.000000000000000327e-05,0.000000000000000000e+00,-1.000000000000000082e-05,1.699999999999999851e-04,-2.500000000000000052e-04,-8.000000000000000654e-05,4.499999999999999877e-04,3.699999999999999947e-04,3.000000000000000000e+00,1.600000000000000000e+01
5.173500000000000000e+04,-4.000000000000000327e-05,0.000000000000000000e+00,-1.000000000000000082e-05,1.699999999999999851e-04,-2.500000000000000052e-04,-8.000000000000000654e-05,4.499999999999999877e-04,3.699999999999999947e-04,3.000000000000000000e+00,1.600000000000000000e+01
5.173600000000000000e+04,-4.000000000000000327e-05,0.000000000000000000e+00,-1.000000000000000082e-05,1.699999999999999851e-04,-2.500000000000000052e-04,-8.000000000000000654e-05,4.499999999999999877e-04,3.699999999999999947e-04,3.000000000000000000e+00,1.600000000000000000e+01
5.173800000000000000e+04,-4.000000000000000327e-05,0.000000000000000000e+00,-1.000000000000000082e-05,1.699999999999999851e-04,-2.500000000000000052e-04,-8.000000000000000654e-05,4.499999999999999877e-04,3.699999999999999947e-04,3.000000000000000000e+00,1.600000000000000000e+01
5.173900000000000000e+04,-4.000000000000000327e-05,0.000000000000000000e+00,-1.000000000000000082e-05,1.699999999999999851e-04,-2.500000000000000052e-04,-8.000000000000000654e-05,4.499999999999999877e-04,3.699999999999999947e-04,3.000000000000000000e+00,1.600000000000000000e+01
5.174000000000000000e+04,-4.000000000000000327e-05,0.000000000000000000e+00,-1.000000000000000082e-05,1.699999999999999851e-04,-2.500000000000000052e-04,-8.000000000000000654e-05,4.499999999999999877e-04,3.699999999999999947e-04,3.000000000000000000e+00,1.600000000000000000e+01
5.174100000000000000e+04,-4.000000000000000327e-05,0.000000000000000000e+00,-1.000000000000000082e-05,1.699999999999999851e-04,-2.500000000000000052e-04,-8.000000000000000654e-05,4.499999999999999877e-04,3.699999999999999947e-04,3.000000000000000000e+00,1.600000000000000000e+01
5.174200000000000000e+04,-4.000000000000000327e-05,0.000000000000000000e+00,-1.000000000000000082e-05,1.699999999999999851e-04,-2.500000000000000052e-04,-8.000000000000000654e-05,4.499999999999999877e-04,3.699999999999999947e-04,3.000000000000000000e+00,1.600000000000000000e+01
5.174300000000000000e+04,-4.000000000000000327e-05,0.000000000000000000e+00,-1.000000000000000082e-05,1.699999999999999851e-04,-2.500000000000000052e-04,-8.000000000000000654e-05,4.499999999999999877e-04,3.699999999999999947e-04,3.000000000000000000e+00,1.600000000000000000e+01
5.174400000000000000e+04,-1.040000000000000126e-03,-1.800000000000000113e-04,-8.000000000000000654e-05,-2.200000000000000078e-04,1.300000000000000157e-04,2.200000000000000078e-04,2.000000000000000164e-05,-6.400000000000000524e-04,3.000000000000000000e+00,1.600000000000000000e+01
5.174500000000000000e+04,-1.040000000000000126e-03,-1.800000000000000113e-04,-8.000000000000000654e-05,-2.200000000000000078e-04,1.300000000000000157e-04,2.200000000000000078e-04,2.000000000000000164e-05,-6.400000000000000524e-04,3.000000000000000000e+00,1.600000000000000000e+01
5.174600000000000000e+04,1.699999999999999851e-04,-6.999999999999999387e-05,-5.000000000000000240e-05,5.000000000000000240e-05,-4.599999999999999597e-04,1.000000000000000082e-05,2.999999999999999737e-05,2.999999999999999737e-04,3.000000000000000000e+00,1.600000000000000000e+01
5.174700000000000000e+04,1.699999999999999851e-04,-6.999999999999999387e-05,-5.000000000000000240e-05,5.000000000000000240e-05,-4.599999999999999597e-04,1.000000000000000082e-05,2.999999999999999737e-05,2.999999999999999737e-04,3.000000000000000000e+00,1.600000000000000000e+01
5.174800000000000000e+04,1.699999999999999851e-04,-6.999999999999999387e-05,-5.000000000000000240e-05,5.000000000000000240e-05,-4.599999999999999597e-04,1.000000000000000082e-05,2.999999999999999737e-05,2.999999999999999737e-04,3.000000000000000000e+00,1.600000000000000000e+01
5.174900000000000000e+04,1.699999999999999851e-04,-6.999999999999999387e-05,-5.000000000000000240e-05,5.000000000000000240e-05,-4.599999999999999597e-04,1.000000000000000082e-05,2.999999999999999737e-05,2.999999999999999737e-04,3.000000000000000000e+00,1.600000000000000000e+01
5.175000000000000000e+04,1.699999999999999851e-04,-6.999999999999999387e-05,-5.000000000000000240e-05,5.000000000000000240e-05,-4.599999999999999597e-04,1.000000000000000082e-05,2.999999999999999737e-05,2.999999999999999737e-04,3.000000000000000000e+00,1.600000000000000000e+01
5.175100000000000000e+04,1.699999999999999851e-04,-6.999999999999999387e-05,-5.000000000000000240e-05,5.000000000000000240e-05,-4.599999999999999597e-04,1.000000000000000082e-05,2.999999999999999737e-05,2.999999999999999737e-04,3.000000000000000000e+00,1.600000000000000000e+01
5.175200000000000000e+04,1.699999999999999851e-04,-6.999999999999999387e-05,-5.000000000000000240e-05,5.000000000000000240e-05,-4.599999999999999597e-04,1.000000000000000082e-05,2.999999999999999737e-05,2.999999999999999737e-04,3.000000000000000000e+00,1.600000000000000000e+01
5.175300000000000000e+04,1.699999999999999851e-04,-6.999999999999999387e-05,-5.000000000000000240e-05,5.000000000000000240e-05,-4.599999999999999597e-04,1.000000000000000082e-05,2.999999999999999737e-05,2.999999999999999737e-04,3.000000000000000000e+00,1.600000000000000000e+01
5.175400000000000000e+04,1.699999999999999851e-04,-6.999999999999999387e-05,-5.000000000000000240e-05,5.000000000000000240e-05,-4.599999999999999597e-04,1.000000000000000082e-05,2.999999999999999737e-05,2.999999999999999737e-04,3.000000000000000000e+00,1.600000000000000000e+01
5.175500000000000000e+04,1.699999999999999851e-04,-6.999999999999999387e-05,-5.000000000000000240e-05,5.000000000000000240e-05,-4.599999999999999597e-04,1.000000000000000082e-05,2.999999999999999737e-05,2.999999999999999737e-04,3.000000000000000000e+00,1.600000000000000000e+01
5.175600000000000000e+04,1.699999999999999851e-04,-6.999999999999999387e-05,-5.000000000000000240e-05,5.000000000000000240e-05,-4.599999999999999597e-04,1.000000000000000082e-05,2.999999999999999737e-05,2.999999999999999737e-04,3.000000000000000000e+00,1.600000000000000000e+01
5.175700000000000000e+04,1.699999999999999851e-04,-6.999999999999999387e-05,-5.000000000000000240e-05,5.000000000000000240e-05,-4.599999999999999597e-04,1.000000000000000082e-05,2.999999999999999737e-05,2.999999999999999737e-04,3.000000000000000000e+00,1.600000000000000000e+01
5.175800000000000000e+04,1.699999999999999851e-04,-6.999999999999999387e-05,-5.000000000000000240e-05,5.000000000000000240e-05,-4.599999999999999597e-04,1.000000000000000082e-05,2.999999999999999737e-05,2.999999999999999737e-04,3.000000000000000000e+00,1.600000000000000000e+01
5.175900000000000000e+04,1.699999999999999851e-04,-6.999999999999999387e-05,-5.000000000000000240e-05,5.000000000000000240e-05,-4.599999999999999597e-04,1.000000000000000082e-05,2.999999999999999737e-05,2.999999999999999737e-04,3.000000000000000000e+00,1.600000000000000000e+01
5.176000000000000000e+04,1.699999999999999851e-04,-6.999999999999999387e-05,-5.000000000000000240e-05,5.000000000000000240e-05,-4.599999999999999597e-04,1.000000000000000082e-05,2.999999999999999737e-05,2.999999999999999737e-04,3.000000000000000000e+00,1.600000000000000000e+01
5.176100000000000000e+04,1.699999999999999851e-04,-6.999999999999999387e-05,-5.000000000000000240e-05,5.000000000000000240e-05,-4.599999999999999597e-04,1.000000000000000082e-05,2.999999999999999737e-05,2.999999999999999737e-04,3.000000000000000000e+00,1.600000000000000000e+01
5.176200000000000000e+04,1.699999999999999851e-04,-6.999999999999999387e-05,-5.000000000000000240e-05,5.000000000000000240e-05,-4.599999999999999597e-04,1.000000000000000082e-05,2.999999999999999737e-05,2.999999999999999737e-04,3.000000000000000000e+00,1.600000000000000000e+01
5.176300000000000000e+04,1.699999999999999851e-04,-6.999999999999999387e-05,-5.000000000000000240e-05,5.000000000000000240e-05,-4.599999999999999597e-04,1.000000000000000082e-05,2.999999999999999737e-05,2.999999999999999737e-04,3.000000000000000000e+00,1.600000000000000000e+01
5.176400000000000000e+04,1.699999999999999851e-04,-6.999999999999999387e-05,-5.000000000000000240e-05,5.000000000000000240e-05,-4.599999999999999597e-04,1.000000000000000082e-05,2.999999999999999737e-05,2.999999999999999737e-04,3.000000000000000000e+00,1.600000000000000000e+01
5.176500000000000000e+04,1.699999999999999851e-04,-6.999999999999999387e-05,-5.000000000000000240e-05,5.000000000000000240e-05,-4.599999999999999597e-04,1.000000000000000082e-05,2.999999999999999737e-05,2.999999999999999737e-04,3.000000000000000000e+00,1.600000000000000000e+01
5.176600000000000000e+04,1.699999999999999851e-04,-6.999999999999999387e-05,-5.000000000000000240e-05,5.000000000000000240e-05,-4.599999999999999597e-04,1.000000000000000082e-05,2.999999999999999737e-05,2.999999999999999737e-04,3.000000000000000000e+00,1.600000000000000000e+01
5.176700000000000000e+04,1.699999999999999851e-04,-6.999999999999999387e-05,-5.000000000000000240e-05,5.000000000000000240e-05,-4.599999999999999597e-04,1.000000000000000082e-05,2.999999999999999737e-05,2.999999999999999737e-04,3.000000000000000000e+00,1.600000000000000000e+01
5.176800000000000000e+04,1.699999999999999851e-04,-6.999999999999999387e-05,-5.000000000000000240e-05,5.000000000000000240e-05,-4.599999999999999597e-04,1.000000000000000082e-05,2.999999999999999737e-05,2.999999999999999737e-04,3.000000000000000000e+00,1.600000000000000000e+01
5.176900000000000000e+04,1.699999999999999851e-04,-6.999999999999999387e-05,-5.000000000000000240e-05,5.000000000000000240e-05,-4.599999999999999597e-04,1.000000000000000082e-05,2.999999999999999737e-05,2.999999999999999737e-04,3.000000000000000000e+00,1.600000000000000000e+01
5.177000000000000000e+04,1.699999999999999851e-04,-6.999999999999999387e-05,-5.000000000000000240e-05,5.000000000000000240e-05,-4.599999999999999597e-04,1.000000000000000082e-05,2.999999999999999737e-05,2.999999999999999737e-04,3.000000000000000000e+00,1.600000000000000000e+01
5.177100000000000000e+04,1.699999999999999851e-04,-6.999999999999999387e-05,-5.000000000000000240e-05,5.000000000000000240e-05,-4.599999999999999597e-04,1.000000000000000082e-05,2.999999999999999737e-05,2.999999999999999737e-04,3.000000000000000000e+00,1.600000000000000000e+01
5.177200000000000000e+04,1.699999999999999851e-04,-6.999999999999999387e-05,-5.000000000000000240e-05,5.000000000000000240e-05,-4.599999999999999597e-04,1.000000000000000082e-05,2.999999999999999737e-05,2.999999999999999737e-04,3.000000000000000000e+00,1.600000000000000000e+01
5.177300000000000000e+04,1.699999999999999851e-04,-6.999999999999999387e-05,-5.000000000000000240e-05,5.000000000000000240e-05,-4.599999999999999597e-04,1.000000000000000082e-05,2.999999999999999737e-05,2.999999999999999737e-04,3.000000000000000000e+00,1.600000000000000000e+01
5.177400000000000000e+04,8.800000000000000313e-04,-2.999999999999999737e-05,-5.000000000000000240e-05,6.999999999999999387e-05,-4.000000000000000327e-05,1.300000000000000157e-04,-1.000000000000000082e-05,6.099999999999999737e-04,3.000000000000000000e+00,1.600000000000000000e+01
5.177500000000000000e+04,8.800000000000000313e-04,-2.999999999999999737e-05,-5.000000000000000240e-05,6.999999999999999387e-05,-4.000000000000000327e-05,1.300000000000000157e-04,-1.000000000000000082e-05,6.099999999999999737e-04,3.000000000000000000e+00,1.600000000000000000e+01
5.177600000000000000e+04,3.799999999999999667e-04,8.000000000000000654e-05,5.999999999999999474e-05,7.799999999999999859e-04,9.300000000000000541e-04,-8.000000000000000654e-05,1.699999999999999851e-04,3.899999999999999929e-04,3.000000000000000000e+00,1.600000000000000000e+01
5.177700000000000000e+04,3.799999999999999667e-04,8.000000000000000654e-05,5.999999999999999474e-05,7.799999999999999859e-04,9.300000000000000541e-04,-8.000000000000000654e-05,1.699999999999999851e-04,3.899999999999999929e-04,3.000000000000000000e+00,1.600000000000000000e+01
5.177800000000000000e+04,3.799999999999999667e-04,8.000000000000000654e-05,5.999999999999999474e-05,7.799999999999999859e-04,9.300000000000000541e-04,-8.000000000000000654e-05,1.699999999999999851e-04,3.899999999999999929e-04,3.000000000000000000e+00,1.600000000000000000e+01
5.177900000000000000e+04,3.799999999999999667e-04,8.000000000000000654e-05,5.999999999999999474e-05,7.799999999999999859e-04,9.300000000000000541e-04,-8.000000000000000654e-05,1.699999999999999851e-04,3.899999999999999929e-04,3.000000000000000000e+00,1.600000000000000000e+01
5.178000000000000000e+04,2.799999999999999755e-04,5.999999999999999474e-05,1.000000000000000082e-05,-1.000000000000000082e-05,-1.399999999999999877e-04,-1.000000000000000048e-04,-2.999999999999999737e-05,-4.400000000000000157e-04,3.000000000000000000e+00,1.600000000000000000e+01
5.178100000000000000e+04,2.799999999999999755e-04,5.999999999999999474e-05,1.000000000000000082e-05,-1.000000000000000082e-05,-1.399999999999999877e-04,-1.000000000000000048e-04,-2.999999999999999737e-05,-4.400000000000000157e-04,3.000000000000000000e+00,1.600000000000000000e+01
5.178200000000000000e+04,2.799999999999999755e-04,5.999999999999999474e-05,1.000000000000000082e-05,-1.000000000000000082e-05,-1.399999999999999877e-04,-1.000000000000000048e-04,-2.999999999999999737e-05,-4.400000000000000157e-04,3.000000000000000000e+00,1.600000000000000000e+01
5.178300000000000000e+04,2.799999999999999755e-04,5.999999999999999474e-05,1.000000000000000082e-05,-1.000000000000000082e-05,-1.399999999999999877e-04,-1.000000000000000048e-04,-2.999999999999999737e-05,-4.400000000000000157e-04,3.000000000000000000e+00,1.600000000000000000e+01
5.178400000000000000e+04,2.799999999999999755e-04,5.999999999999999474e-05,1.000000000000000082e-05,-1.000000000000000082e-05,-1.399999999999999877e-04,-1.000000000000000048e-04,-2.999999999999999737e-05,-4.400000000000000157e-04,3.000000000000000000e+00,1.600000000000000000e+01
5.178500000000000000e+04,2.799999999999999755e-04,5.999999999999999474e-05,1.000000000000000082e-05,-1.000000000000000082e-05,-1.399999999999999877e-04,-1.000000000000000048e-04,-2.999999999999999737e-05,-4.400000000000000157e-04,3.000000000000000000e+00,1.600000000000000000e+01
5.178600000000000000e+04,2.799999999999999755e-04,5.999999999999999474e-05,1.000000000000000082e-05,-1.000000000000000082e-05,-1.399999999999999877e-04,-1.000000000000000048e-04,-2.999999999999999737e-05,-4.400000000000000157e-04,3.000000000000000000e+00,1.600000000000000000e+01
5.178900000000000000e+04,4.799999999999999580e-04,5.000000000000000240e-05,-1.199999999999999895e-04,-2.999999999999999737e-04,-1.499999999999999869e-04,-3.399999999999999702e-04,-4.200000000000000174e-04,-4.200000000000000174e-04,3.000000000000000000e+00,1.600000000000000000e+01
5.179000000000000000e+04,4.799999999999999580e-04,5.000000000000000240e-05,-1.199999999999999895e-04,-2.999999999999999737e-04,-1.499999999999999869e-04,-3.399999999999999702e-04,-4.200000000000000174e-04,-4.200000000000000174e-04,3.000000000000000000e+00,1.600000000000000000e+01
5.179100000000000000e+04,4.799999999999999580e-04,5.000000000000000240e-05,-1.199999999999999895e-04,-2.999999999999999737e-04,-1.499999999999999869e-04,-3.399999999999999702e-04,-4.200000000000000174e-04,-4.200000000000000174e-04,3.000000000000000000e+00,1.600000000000000000e+01
5.179200000000000000e+04,4.799999999999999580e-04,5.000000000000000240e-05,-1.199999999999999895e-04,-2.999999999999999737e-04,-1.499999999999999869e-04,-3.399999999999999702e-04,-4.200000000000000174e-04,-4.200000000000000174e-04,3.000000000000000000e+00,1.600000000000000000e+01
5.179300000000000000e+04,4.799999999999999580e-04,5.000000000000000240e-05,-1.199999999999999895e-04,-2.999999999999999737e-04,-1.499999999999999869e-04,-3.399999999999999702e-04,-4.200000000000000174e-04,-4.200000000000000174e-04,3.000000000000000000e+00,1.600000000000000000e+01
5.179400000000000000e+04,4.799999999999999580e-04,5.000000000000000240e-05,-1.199999999999999895e-04,-2.999999999999999737e-04,-1.499999999999999869e-04,-3.399999999999999702e-04,-4.200000000000000174e-04,-4.200000000000000174e-04,3.000000000000000000e+00,1.600000000000000000e+01
5.179500000000000000e+04,4.799999999999999580e-04,5.000000000000000240e-05,-1.199999999999999895e-04,-2.999999999999999737e-04,-1.499999999999999869e-04,-3.399999999999999702e-04,-4.200000000000000174e-04,-4.200000000000000174e-04,3.000000000000000000e+00,1.600000000000000000e+01
5.179600000000000000e+04,4.799999999999999580e-04,5.000000000000000240e-05,-1.199999999999999895e-04,-2.999999999999999737e-04,-1.499999999999999869e-04,-3.399999999999999702e-04,-4.200000000000000174e-04,-4.200000000000000174e-04,3.000000000000000000e+00,1.600000000000000000e+01
5.179700000000000000e+04,4.799999999999999580e-04,5.000000000000000240e-05,-1.199999999999999895e-04,-2.999999999999999737e-04,-1.499999999999999869e-04,-3.399999999999999702e-04,-4.200000000000000174e-04,-4.200000000000000174e-04,3.000000000000000000e+00,1.600000000000000000e+01
5.179800000000000000e+04,4.799999999999999580e-04,5.000000000000000240e-05,-1.199999999999999895e-04,-2.999999999999999737e-04,-1.499999999999999869e-04,-3.399999999999999702e-04,-4.200000000000000174e-04,-4.200000000000000174e-04,3.000000000000000000e+00,1.600000000000000000e+01
5.179900000000000000e+04,4.799999999999999580e-04,5.000000000000000240e-05,-1.199999999999999895e-04,-2.999999999999999737e-04,-1.499999999999999869e-04,-3.399999999999999702e-04,-4.200000000000000174e-04,-4.200000000000000174e-04,3.000000000000000000e+00,1.600000000000000000e+01
5.180000000000000000e+04,4.799999999999999580e-04,5.000000000000000240e-05,-1.199999999999999895e-04,-2.999999999999999737e-04,-1.499999999999999869e-04,-3.399999999999999702e-04,-4.200000000000000174e-04,-4.200000000000000174e-04,3.000000000000000000e+00,1.600000000000000000e+01
5.180100000000000000e+04,4.799999999999999580e-04,5.000000000000000240e-05,-1.199999999999999895e-04,-2.999999999999999737e-04,-1.499999999999999869e-04,-3.399999999999999702e-04,-4.200000000000000174e-04,-4.200000000000000174e-04,3.000000000000000000e+00,1.600000000000000000e+01
5.180200000000000000e+04,4.799999999999999580e-04,5.000000000000000240e-05,-1.199999999999999895e-04,-2.999999999999999737e-04,-1.499999999999999869e-04,-3.399999999999999702e-04,-4.200000000000000174e-04,-4.200000000000000174e-04,3.000000000000000000e+00,1.600000000000000000e+01
5.180300000000000000e+04,4.799999999999999580e-04,5.000000000000000240e-05,-1.199999999999999895e-04,-2.999999999999999737e-04,-1.499999999999999869e-04,-3.399999999999999702e-04,-4.200000000000000174e-04,-4.200000000000000174e-04,3.000000000000000000e+00,1.600000000000000000e+01
5.180400000000000000e+04,-6.999999999999999929e-04,2.000000000000000164e-05,2.000000000000000164e-05,3.699999999999999947e-04,1.399999999999999877e-04,-2.399999999999999790e-04,5.200000000000000629e-04,-3.200000000000000262e-04,3.000000000000000000e+00,1.600000000000000000e+01
5.180500000000000000e+04,-6.999999999999999929e-04,2.000000000000000164e-05,2.000000000000000164e-05,3.699999999999999947e-04,1.399999999999999877e-04,-2.399999999999999790e-04,5.200000000000000629e-04,-3.200000000000000262e-04,3.000000000000000000e+00,1.600000000000000000e+01
5.180600000000000000e+04,-2.600000000000000314e-04,-8.000000000000000654e-05,-5.000000000000000240e-05,-4.299999999999999894e-04,0.000000000000000000e+00,8.000000000000000654e-05,-1.600000000000000131e-04,2.999999999999999737e-05,3.000000000000000000e+00,1.600000000000000000e+01
5.180700000000000000e+04,-2.600000000000000314e-04,-8.000000000000000654e-05,-5.000000000000000240e-05,-4.299999999999999894e-04,0.000000000000000000e+00,8.000000000000000654e-05,-1.600000000000000131e-04,2.999999999999999737e-05,3.000000000000000000e+00,1.600000000000000000e+01
5.180800000000000000e+04,-2.600000000000000314e-04,-8.000000000000000654e-05,-5.000000000000000240e-05,-4.299999999999999894e-04,0.000000000000000000e+00,8.000000000000000654e-05,-1.600000000000000131e-04,2.999999999999999737e-05,3.000000000000000000e+00,1.600000000000000000e+01
5.180900000000000000e+04,-2.600000000000000314e-04,-8.000000000000000654e-05,-5.000000000000000240e-05,-4.299999999999999894e-04,0.000000000000000000e+00,8.000000000000000654e-05,-1.600000000000000131e-04,2.999999999999999737e-05,3.000000000000000000e+00,1.600000000000000000e+01
5.181000000000000000e+04,-2.600000000000000314e-04,-8.000000000000000654e-05,-5.000000000000000240e-05,-4.299999999999999894e-04,0.000000000000000000e+00,8.000000000000000654e-05,-1.600000000000000131e-04,2.999999999999999737e-05,3.000000000000000000e+00,1.600000000000000000e+01
5.181100000000000000e+04,-2.600000000000000314e-04,-8.000000000000000654e-05,-5.000000000000000240e-05,-4.299999999999999894e-04,0.000000000000000000e+00,8.000000000000000654e-05,-1.600000000000000131e-04,2.999999999999999737e-05,3.000000000000000000e+00,1.600000000000000000e+01
5.181200000000000000e+04,-2.600000000000000314e-04,-8.000000000000000654e-05,-5.000000000000000240e-05,-4.299999999999999894e-04,0.000000000000000000e+00,8.000000000000000654e-05,-1.600000000000000131e-04,2.999999999999999737e-05,3.000000000000000000e+00,1.600000000000000000e+01
5.181300000000000000e+04,-2.600000000000000314e-04,-8.000000000000000654e-05,-5.000000000000000240e-05,-4.299999999999999894e-04,0.000000000000000000e+00,8.000000000000000654e-05,-1.600000000000000131e-04,2.999999999999999737e-05,3.000000000000000000e+00,1.600000000000000000e+01
5.181400000000000000e+04,-2.600000000000000314e-04,-8.000000000000000654e-05,-5.000000000000000240e-05,-4.299999999999999894e-04,0.000000000000000000e+00,8.000000000000000654e-05,-1.600000000000000131e-04,2.999999999999999737e-05,3.000000000000000000e+00,1.600000000000000000e+01
5.181500000000000000e+04,-2.600000000000000314e-04,-8.000000000000000654e-05,-5.000000000000000240e-05,-4.299999999999999894e-04,0.000000000000000000e+00,8.000000000000000654e-05,-1.600000000000000131e-04,2.999999999999999737e-05,3.000000000000000000e+00,1.600000000000000000e+01
5.181600000000000000e+04,-2.600000000000000314e-04,-8.000000000000000654e-05,-5.000000000000000240e-05,-4.299999999999999894e-04,0.000000000000000000e+00,8.000000000000000654e-05,-1.600000000000000131e-04,2.999999999999999737e-05,3.000000000000000000e+00,1.600000000000000000e+01
5.181700000000000000e+04,-2.600000000000000314e-04,-8.000000000000000654e-05,-5.000000000000000240e-05,-4.299999999999999894e-04,0.000000000000000000e+00,8.000000000000000654e-05,-1.600000000000000131e-04,2.999999999999999737e-05,3.000000000000000000e+00,1.600000000000000000e+01
5.181800000000000000e+04,-2.600000000000000314e-04,-8.000000000000000654e-05,-5.000000000000000240e-05,-4.299999999999999894e-04,0.000000000000000000e+00,8.000000000000000654e-05,-1.600000000000000131e-04,2.999999999999999737e-05,3.000000000000000000e+00,1.600000000000000000e+01
5.181900000000000000e+04,-2.600000000000000314e-04,-8.000000000000000654e-05,-5.000000000000000240e-05,-4.299999999999999894e-04,0.000000000000000000e+00,8.000000000000000654e-05,-1.600000000000000131e-04,2.999999999999999737e-05,3.000000000000000000e+00,1.600000000000000000e+01
5.182000000000000000e+04,-2.600000000000000314e-04,-8.000000000000000654e-05,-5.000000000000000240e-05,-4.299999999999999894e-04,0.000000000000000000e+00,8.000000000000000654e-05,-1.600000000000000131e-04,2.999999999999999737e-05,3.000000000000000000e+00,1.600000000000000000e+01
5.182100000000000000e+04,-2.600000000000000314e-04,-8.000000000000000654e-05,-5.000000000000000240e-05,-4.299999999999999894e-04,0.000000000000000000e+00,8.000000000000000654e-05,-1.600000000000000131e-04,2.999999999999999737e-05,3.000000000000000000e+00,1.600000000000000000e+01
5.182200000000000000e+04,-2.600000000000000314e-04,-8.000000000000000654e-05,-5.000000000000000240e-05,-4.299999999999999894e-04,0.000000000000000000e+00,8.000000000000000654e-05,-1.600000000000000131e-04,2.999999999999999737e-05,3.000000000000000000e+00,1.600000000000000000e+01
5.182300000000000000e+04,-2.600000000000000314e-04,-8.000000000000000654e-05,-5.000000000000000240e-05,-4.299999999999999894e-04,0.000000000000000000e+00,8.000000000000000654e-05,-1.600000000000000131e-04,2.999999999999999737e-05,3.000000000000000000e+00,1.600000000000000000e+01
5.182400000000000000e+04,-2.600000000000000314e-04,-8.000000000000000654e-05,-5.000000000000000240e-05,-4.299999999999999894e-04,0.000000000000000000e+00,8.000000000000000654e-05,-1.600000000000000131e-04,2.999999999999999737e-05,3.000000000000000000e+00,1.600000000000000000e+01
5.182500000000000000e+04,-2.600000000000000314e-04,-8.000000000000000654e-05,-5.000000000000000240e-05,-4.299999999999999894e-04,0.000000000000000000e+00,8.000000000000000654e-05,-1.600000000000000131e-04,2.999999999999999737e-05,3.000000000000000000e+00,1.600000000000000000e+01
5.182600000000000000e+04,1.699999999999999851e-04,4.000000000000000327e-05,2.999999999999999737e-05,1.000000000000000048e-04,-2.600000000000000314e-04,-1.000000000000000048e-04,-2.700000000000000035e-04,-2.900000000000000017e-04,3.000000000000000000e+00,1.600000000000000000e+01
5.182700000000000000e+04,-3.200000000000000262e-04,-9.000000000000000567e-05,-4.000000000000000327e-05,-2.999999999999999737e-05,3.099999999999999999e-04,5.999999999999999474e-05,-1.800000000000000113e-04,-4.299999999999999894e-04,3.000000000000000000e+00,1.600000000000000000e+01
5.182800000000000000e+04,-6.599999999999999964e-04,-8.000000000000000654e-05,5.999999999999999474e-05,2.900000000000000017e-04,4.200000000000000174e-04,2.999999999999999737e-05,-6.099999999999999737e-04,-6.499999999999999702e-04,3.000000000000000000e+00,1.600000000000000000e+01
5.182900000000000000e+04,-6.599999999999999964e-04,-8.000000000000000654e-05,5.999999999999999474e-05,2.900000000000000017e-04,4.200000000000000174e-04,2.999999999999999737e-05,-6.099999999999999737e-04,-6.499999999999999702e-04,3.000000000000000000e+00,1.600000000000000000e+01
5.183000000000000000e+04,-6.599999999999999964e-04,-8.000000000000000654e-05,5.999999999999999474e-05,2.900000000000000017e-04,4.200000000000000174e-04,2.999999999999999737e-05,-6.099999999999999737e-04,-6.499999999999999702e-04,3.000000000000000000e+00,1.600000000000000000e+01
5.183100000000000000e+04,-6.599999999999999964e-04,-8.000000000000000654e-05,5.999999999999999474e-05,2.900000000000000017e-04,4.200000000000000174e-04,2.999999999999999737e-05,-6.099999999999999737e-04,-6.499999999999999702e-04,3.000000000000000000e+00,1.600000000000000000e+01
5.183200000000000000e+04,-6.599999999999999964e-04,-8.000000000000000654e-05,5.999999999999999474e-05,2.900000000000000017e-04,4.200000000000000174e-04,2.999999999999999737e-05,-6.099999999999999737e-04,-6.499999999999999702e-04,3.000000000000000000e+00,1.600000000000000000e+01
5.183300000000000000e+04,-6.599999999999999964e-04,-8.000000000000000654e-05,5.999999999999999474e-05,2.900000000000000017e-04,4.200000000000000174e-04,2.999999999999999737e-05,-6.099999999999999737e-04,-6.499999999999999702e-04,3.000000000000000000e+00,1.600000000000000000e+01
5.183400000000000000e+04,-6.599999999999999964e-04,-8.000000000000000654e-05,5.999999999999999474e-05,2.900000000000000017e-04,4.200000000000000174e-04,2.999999999999999737e-05,-6.099999999999999737e-04,-6.499999999999999702e-04,3.000000000000000000e+00,1.600000000000000000e+01
5.183500000000000000e+04,-6.599999999999999964e-04,-8.000000000000000654e-05,5.999999999999999474e-05,2.900000000000000017e-04,4.200000000000000174e-04,2.999999999999999737e-05,-6.099999999999999737e-04,-6.499999999999999702e-04,3.000000000000000000e+00,1.600000000000000000e+01
5.183600000000000000e+04,-6.599999999999999964e-04,-8.000000000000000654e-05,5.999999999999999474e-05,2.900000000000000017e-04,4.200000000000000174e-04,2.999999999999999737e-05,-6.099999999999999737e-04,-6.499999999999999702e-04,3.000000000000000000e+00,1.600000000000000000e+01
5.183800000000000000e+04,-6.599999999999999964e-04,-8.000000000000000654e-05,5.999999999999999474e-05,2.900000000000000017e-04,4.200000000000000174e-04,2.999999999999999737e-05,-6.099999999999999737e-04,-6.499999999999999702e-04,3.000000000000000000e+00,1.600000000000000000e+01
5.183900000000000000e+04,-6.599999999999999964e-04,-8.000000000000000654e-05,5.999999999999999474e-05,2.900000000000000017e-04,4.200000000000000174e-04,2.999999999999999737e-05,-6.099999999999999737e-04,-6.499999999999999702e-04,3.000000000000000000e+00,1.600000000000000000e+01
5.184000000000000000e+04,4.700000000000000401e-04,2.000000000000000164e-05,-2.000000000000000164e-05,3.899999999999999929e-04,1.899999999999999834e-04,-4.000000000000000327e-05,-4.700000000000000401e-04,5.200000000000000629e-04,3.000000000000000000e+00,1.600000000000000000e+01
5.184100000000000000e+04,4.700000000000000401e-04,2.000000000000000164e-05,-2.000000000000000164e-05,3.899999999999999929e-04,1.899999999999999834e-04,-4.000000000000000327e-05,-4.700000000000000401e-04,5.200000000000000629e-04,3.000000000000000000e+00,1.600000000000000000e+01
5.184200000000000000e+04,4.700000000000000401e-04,2.000000000000000164e-05,-2.000000000000000164e-05,3.899999999999999929e-04,1.899999999999999834e-04,-4.000000000000000327e-05,-4.700000000000000401e-04,5.200000000000000629e-04,3.000000000000000000e+00,1.600000000000000000e+01
5.184300000000000000e+04,4.700000000000000401e-04,2.000000000000000164e-05,-2.000000000000000164e-05,3.899999999999999929e-04,1.899999999999999834e-04,-4.000000000000000327e-05,-4.700000000000000401e-04,5.200000000000000629e-04,3.000000000000000000e+00,1.600000000000000000e+01
5.184400000000000000e+04,4.700000000000000401e-04,2.000000000000000164e-05,-2.000000000000000164e-05,3.899999999999999929e-04,1.899999999999999834e-04,-4.000000000000000327e-05,-4.700000000000000401e-04,5.200000000000000629e-04,3.000000000000000000e+00,1.600000000000000000e+01
5.184500000000000000e+04,4.700000000000000401e-04,2.000000000000000164e-05,-2.000000000000000164e-05,3.899999999999999929e-04,1.899999999999999834e-04,-4.000000000000000327e-05,-4.700000000000000401e-04,5.200000000000000629e-04,3.000000000000000000e+00,1.600000000000000000e+01
5.184600000000000000e+04,4.700000000000000401e-04,2.000000000000000164e-05,-2.000000000000000164e-05,3.899999999999999929e-04,1.899999999999999834e-04,-4.000000000000000327e-05,-4.700000000000000401e-04,5.200000000000000629e-04,3.000000000000000000e+00,1.600000000000000000e+01
5.184700000000000000e+04,4.700000000000000401e-04,2.000000000000000164e-05,-2.000000000000000164e-05,3.899999999999999929e-04,1.899999999999999834e-04,-4.000000000000000327e-05,-4.700000000000000401e-04,5.200000000000000629e-04,3.000000000000000000e+00,1.600000000000000000e+01
5.184800000000000000e+04,4.700000000000000401e-04,2.000000000000000164e-05,-2.000000000000000164e-05,3.899999999999999929e-04,1.899999999999999834e-04,-4.000000000000000327e-05,-4.700000000000000401e-04,5.200000000000000629e-04,3.000000000000000000e+00,1.600000000000000000e+01
5.184900000000000000e+04,4.000000000000000192e-04,4.000000000000000327e-05,2.999999999999999737e-05,-2.000000000000000164e-05,-2.700000000000000035e-04,2.000000000000000096e-04,3.200000000000000262e-04,2.000000000000000164e-05,3.000000000000000000e+00,1.600000000000000000e+01
5.185000000000000000e+04,4.000000000000000192e-04,4.000000000000000327e-05,2.999999999999999737e-05,-2.000000000000000164e-05,-2.700000000000000035e-04,2.000000000000000096e-04,3.200000000000000262e-04,2.000000000000000164e-05,3.000000000000000000e+00,1.600000000000000000e+01
5.185100000000000000e+04,4.000000000000000192e-04,4.000000000000000327e-05,2.999999999999999737e-05,-2.000000000000000164e-05,-2.700000000000000035e-04,2.000000000000000096e-04,3.200000000000000262e-04,2.000000000000000164e-05,3.000000000000000000e+00,1.600000000000000000e+01
5.185200000000000000e+04,4.000000000000000192e-04,4.000000000000000327e-05,2.999999999999999737e-05,-2.000000000000000164e-05,-2.700000000000000035e-04,2.000000000000000096e-04,3.200000000000000262e-04,2.000000000000000164e-05,3.000000000000000000e+00,1.600000000000000000e+01
5.185300000000000000e+04,4.000000000000000192e-04,4.000000000000000327e-05,2.999999999999999737e-05,-2.000000000000000164e-05,-2.700000000000000035e-04,2.000000000000000096e-04,3.200000000000000262e-04,2.000000000000000164e-05,3.000000000000000000e+00,1.600000000000000000e+01
5.185400000000000000e+04,4.000000000000000192e-04,4.000000000000000327e-05,2.999999999999999737e-05,-2.000000000000000164e-05,-2.700000000000000035e-04,2.000000000000000096e-04,3.200000000000000262e-04,2.000000000000000164e-05,3.000000000000000000e+00,1.600000000000000000e+01
5.185500000000000000e+04,4.000000000000000192e-04,4.000000000000000327e-05,2.999999999999999737e-05,-2.000000000000000164e-05,-2.700000000000000035e-04,2.000000000000000096e-04,3.200000000000000262e-04,2.000000000000000164e-05,3.000000000000000000e+00,1.600000000000000000e+01
5.185600000000000000e+04,4.000000000000000192e-04,4.000000000000000327e-05,2.999999999999999737e-05,-2.000000000000000164e-05,-2.700000000000000035e-04,2.000000000000000096e-04,3.200000000000000262e-04,2.000000000000000164e-05,3.000000000000000000e+00,1.600000000000000000e+01
5.185700000000000000e+04,4.000000000000000192e-04,4.000000000000000327e-05,2.999999999999999737e-05,-2.000000000000000164e-05,-2.700000000000000035e-04,2.000000000000000096e-04,3.200000000000000262e-04,2.000000000000000164e-05,3.000000000000000000e+00,1.600000000000000000e+01
5.185800000000000000e+04,4.000000000000000192e-04,4.000000000000000327e-05,2.999999999999999737e-05,-2.000000000000000164e-05,-2.700000000000000035e-04,2.000000000000000096e-04,3.200000000000000262e-04,2.000000000000000164e-05,3.000000000000000000e+00,1.600000000000000000e+01
5.185900000000000000e+04,4.000000000000000192e-04,4.000000000000000327e-05,2.999999999999999737e-05,-2.000000000000000164e-05,-2.700000000000000035e-04,2.000000000000000096e-04,3.200000000000000262e-04,2.000000000000000164e-05,3.000000000000000000e+00,1.600000000000000000e+01
5.186000000000000000e+04,4.000000000000000192e-04,4.000000000000000327e-05,2.999999999999999737e-05,-2.000000000000000164e-05,-2.700000000000000035e-04,2.000000000000000096e-04,3.200000000000000262e-04,2.000000000000000164e-05,3.000000000000000000e+00,1.600000000000000000e+01
5.186100000000000000e+04,4.000000000000000192e-04,4.000000000000000327e-05,2.999999999999999737e-05,-2.000000000000000164e-05,-2.700000000000000035e-04,2.000000000000000096e-04,3.200000000000000262e-04,2.000000000000000164e-05,3.000000000000000000e+00,1.600000000000000000e+01
5.186200000000000000e+04,4.000000000000000192e-04,4.000000000000000327e-05,2.999999999999999737e-05,-2.000000000000000164e-05,-2.700000000000000035e-04,2.000000000000000096e-04,3.200000000000000262e-04,2.000000000000000164e-05,3.000000000000000000e+00,1.600000000000000000e+01
5.186300000000000000e+04,4.000000000000000192e-04,4.000000000000000327e-05,2.999999999999999737e-05,-2.000000000000000164e-05,-2.700000000000000035e-04,2.000000000000000096e-04,3.200000000000000262e-04,2.000000000000000164e-05,3.000000000000000000e+00,1.600000000000000000e+01
5.186400000000000000e+04,-8.000000000000000383e-04,-5.999999999999999474e-05,-1.000000000000000082e-05,-5.999999999999999474e-05,-2.799999999999999755e-04,-1.300000000000000157e-04,-4.000000000000000327e-05,-5.699999999999999772e-04,3.000000000000000000e+00,1.600000000000000000e+01
5.186500000000000000e+04,-8.000000000000000383e-04,-5.999999999999999474e-05,-1.000000000000000082e-05,-5.999999999999999474e-05,-2.799999999999999755e-04,-1.300000000000000157e-04,-4.000000000000000327e-05,-5.699999999999999772e-04,3.000000000000000000e+00,1.600000000000000000e+01
5.186600000000000000e+04,5.900000000000000296e-04,4.000000000000000327e-05,-5.999999999999999474e-05,-1.899999999999999834e-04,-3.200000000000000262e-04,-1.499999999999999869e-04,-6.999999999999999387e-05,9.000000000000000567e-05,3.000000000000000000e+00,1.600000000000000000e+01
5.186700000000000000e+04,5.900000000000000296e-04,4.000000000000000327e-05,-5.999999999999999474e-05,-1.899999999999999834e-04,-3.200000000000000262e-04,-1.499999999999999869e-04,-6.999999999999999387e-05,9.000000000000000567e-05,3.000000000000000000e+00,1.600000000000000000e+01
5.186900000000000000e+04,5.900000000000000296e-04,4.000000000000000327e-05,-5.999999999999999474e-05,-1.899999999999999834e-04,-3.200000000000000262e-04,-1.499999999999999869e-04,-6.999999999999999387e-05,9.000000000000000567e-05,3.000000000000000000e+00,1.600000000000000000e+01
5.187000000000000000e+04,5.900000000000000296e-04,4.000000000000000327e-05,-5.999999999999999474e-05,-1.899999999999999834e-04,-3.200000000000000262e-04,-1.499999999999999869e-04,-6.999999999999999387e-05,9.000000000000000567e-05,3.000000000000000000e+00,1.600000000000000000e+01
5.187100000000000000e+04,5.900000000000000296e-04,4.000000000000000327e-05,-5.999999999999999474e-05,-1.899999999999999834e-04,-3.200000000000000262e-04,-1.499999999999999869e-04,-6.999999999999999387e-05,9.000000000000000567e-05,3.000000000000000000e+00,1.600000000000000000e+01
5.187200000000000000e+04,5.900000000000000296e-04,4.000000000000000327e-05,-5.999999999999999474e-05,-1.899999999999999834e-04,-3.200000000000000262e-04,-1.499999999999999869e-04,-6.999999999999999387e-05,9.000000000000000567e-05,3.000000000000000000e+00,1.600000000000000000e+01
5.187300000000000000e+04,5.900000000000000296e-04,4.000000000000000327e-05,-5.999999999999999474e-05,-1.899999999999999834e-04,-3.200000000000000262e-04,-1.499999999999999869e-04,-6.999999999999999387e-05,9.000000000000000567e-05,3.000000000000000000e+00,1.600000000000000000e+01
5.187400000000000000e+04,5.900000000000000296e-04,4.000000000000000327e-05,-5.999999999999999474e-05,-1.899999999999999834e-04,-3.200000000000000262e-04,-1.499999999999999869e-04,-6.999999999999999387e-05,9.000000000000000567e-05,3.000000000000000000e+00,1.600000000000000000e+01
5.187500000000000000e+04,5.900000000000000296e-04,4.000000000000000327e-05,-5.999999999999999474e-05,-1.899999999999999834e-04,-3.200000000000000262e-04,-1.499999999999999869e-04,-6.999999999999999387e-05,9.000000000000000567e-05,3.000000000000000000e+00,1.600000000000000000e+01
5.187600000000000000e+04,5.900000000000000296e-04,4.000000000000000327e-05,-5.999999999999999474e-05,-1.899999999999999834e-04,-3.200000000000000262e-04,-1.499999999999999869e-04,-6.999999999999999387e-05,9.000000000000000567e-05,3.000000000000000000e+00,1.600000000000000000e+01
5.187700000000000000e+04,5.900000000000000296e-04,4.000000000000000327e-05,-5.999999999999999474e-05,-1.899999999999999834e-04,-3.200000000000000262e-04,-1.499999999999999869e-04,-6.999999999999999387e-05,9.000000000000000567e-05,3.000000000000000000e+00,1.600000000000000000e+01
5.187800000000000000e+04,5.900000000000000296e-04,4.000000000000000327e-05,-5.999999999999999474e-05,-1.899999999999999834e-04,-3.200000000000000262e-04,-1.499999999999999869e-04,-6.999999999999999387e-05,9.000000000000000567e-05,3.000000000000000000e+00,1.600000000000000000e+01
5.187900000000000000e+04,5.900000000000000296e-04,4.000000000000000327e-05,-5.999999999999999474e-05,-1.899999999999999834e-04,-3.200000000000000262e-04,-1.499999999999999869e-04,-6.999999999999999387e-05,9.000000000000000567e-05,3.000000000000000000e+00,1.600000000000000000e+01
5.188000000000000000e+04,5.900000000000000296e-04,4.000000000000000327e-05,-5.999999999999999474e-05,-1.899999999999999834e-04,-3.200000000000000262e-04,-1.499999999999999869e-04,-6.999999999999999387e-05,9.000000000000000567e-05,3.000000000000000000e+00,1.600000000000000000e+01
5.188100000000000000e+04,5.900000000000000296e-04,4.000000000000000327e-05,-5.999999999999999474e-05,-1.899999999999999834e-04,-3.200000000000000262e-04,-1.499999999999999869e-04,-6.999999999999999387e-05,9.000000000000000567e-05,3.000000000000000000e+00,1.600000000000000000e+01
5.188200000000000000e+04,5.900000000000000296e-04,4.000000000000000327e-05,-5.999999999999999474e-05,-1.899999999999999834e-04,-3.200000000000000262e-04,-1.499999999999999869e-04,-6.999999999999999387e-05,9.000000000000000567e-05,3.000000000000000000e+00,1.600000000000000000e+01
5.188300000000000000e+04,5.900000000000000296e-04,4.000000000000000327e-05,-5.999999999999999474e-05,-1.899999999999999834e-04,-3.200000000000000262e-04,-1.499999999999999869e-04,-6.999999999999999387e-05,9.000000000000000567e-05,3.000000000000000000e+00,1.600000000000000000e+01
5.188400000000000000e+04,5.900000000000000296e-04,4.000000000000000327e-05,-5.999999999999999474e-05,-1.899999999999999834e-04,-3.200000000000000262e-04,-1.499999999999999869e-04,-6.999999999999999387e-05,9.000000000000000567e-05,3.000000000000000000e+00,1.600000000000000000e+01
5.188500000000000000e+04,5.900000000000000296e-04,4.000000000000000327e-05,-5.999999999999999474e-05,-1.899999999999999834e-04,-3.200000000000000262e-04,-1.499999999999999869e-04,-6.999999999999999387e-05,9.000000000000000567e-05,3.000000000000000000e+00,1.600000000000000000e+01
5.188600000000000000e+04,5.900000000000000296e-04,4.000000000000000327e-05,-5.999999999999999474e-05,-1.899999999999999834e-04,-3.200000000000000262e-04,-1.499999999999999869e-04,-6.999999999999999387e-05,9.000000000000000567e-05,3.000000000000000000e+00,1.600000000000000000e+01
5.188800000000000000e+04,-6.999999999999999387e-05,-1.000000000000000082e-05,-2.000000000000000164e-05,-1.100000000000000039e-04,-5.999999999999999474e-05,-1.100000000000000039e-04,1.499999999999999869e-04,-1.899999999999999834e-04,3.000000000000000000e+00,1.600000000000000000e+01
5.188900000000000000e+04,-5.900000000000000296e-04,-1.000000000000000048e-04,1.000000000000000082e-05,-1.699999999999999851e-04,-3.799999999999999667e-04,-1.399999999999999877e-04,-2.100000000000000087e-04,-4.400000000000000157e-04,3.000000000000000000e+00,1.600000000000000000e+01
5.189000000000000000e+04,-5.900000000000000296e-04,-1.000000000000000048e-04,1.000000000000000082e-05,-1.699999999999999851e-04,-3.799999999999999667e-04,-1.399999999999999877e-04,-2.100000000000000087e-04,-4.400000000000000157e-04,3.000000000000000000e+00,1.600000000000000000e+01
5.189100000000000000e+04,-5.900000000000000296e-04,-1.000000000000000048e-04,1.000000000000000082e-05,-1.699999999999999851e-04,-3.799999999999999667e-04,-1.399999999999999877e-04,-2.100000000000000087e-04,-4.400000000000000157e-04,3.000000000000000000e+00,1.600000000000000000e+01
5.189200000000000000e+04,-5.900000000000000296e-04,-1.000000000000000048e-04,1.000000000000000082e-05,-1.699999999999999851e-04,-3.799999999999999667e-04,-1.399999999999999877e-04,-2.100000000000000087e-04,-4.400000000000000157e-04,3.000000000000000000e+00,1.600000000000000000e+01
5.189300000000000000e+04,-5.900000000000000296e-04,-1.000000000000000048e-04,1.000000000000000082e-05,-1.699999999999999851e-04,-3.799999999999999667e-04,-1.399999999999999877e-04,-2.100000000000000087e-04,-4.400000000000000157e-04,3.000000000000000000e+00,1.600000000000000000e+01
5.189400000000000000e+04,-5.900000000000000296e-04,-1.000000000000000048e-04,1.000000000000000082e-05,-1.699999999999999851e-04,-3.799999999999999667e-04,-1.399999999999999877e-04,-2.100000000000000087e-04,-4.400000000000000157e-04,3.000000000000000000e+00,1.600000000000000000e+01
5.189500000000000000e+04,-5.900000000000000296e-04,-1.000000000000000048e-04,1.000000000000000082e-05,-1.699999999999999851e-04,-3.799999999999999667e-04,-1.399999999999999877e-04,-2.100000000000000087e-04,-4.400000000000000157e-04,3.000000000000000000e+00,1.600000000000000000e+01
5.189600000000000000e+04,-5.900000000000000296e-04,-1.000000000000000048e-04,1.000000000000000082e-05,-1.699999999999999851e-04,-3.799999999999999667e-04,-1.399999999999999877e-04,-2.100000000000000087e-04,-4.400000000000000157e-04,3.000000000000000000e+00,1.600000000000000000e+01
5.189700000000000000e+04,-5.900000000000000296e-04,-1.000000000000000048e-04,1.000000000000000082e-05,-1.699999999999999851e-04,-3.799999999999999667e-04,-1.399999999999999877e-04,-2.100000000000000087e-04,-4.400000000000000157e-04,3.000000000000000000e+00,1.600000000000000000e+01
5.189800000000000000e+04,-5.900000000000000296e-04,-1.000000000000000048e-04,1.000000000000000082e-05,-1.699999999999999851e-04,-3.799999999999999667e-04,-1.399999999999999877e-04,-2.100000000000000087e-04,-4.400000000000000157e-04,3.000000000000000000e+00,1.600000000000000000e+01
5.189900000000000000e+04,-5.900000000000000296e-04,-1.000000000000000048e-04,1.000000000000000082e-05,-1.699999999999999851e-04,-3.799999999999999667e-04,-1.399999999999999877e-04,-2.100000000000000087e-04,-4.400000000000000157e-04,3.000000000000000000e+00,1.600000000000000000e+01
5.190000000000000000e+04,2.900000000000000017e-04,2.999999999999999737e-05,-5.000000000000000240e-05,2.700000000000000035e-04,3.099999999999999999e-04,-5.999999999999999474e-05,0.000000000000000000e+00,4.499999999999999877e-04,3.000000000000000000e+00,1.600000000000000000e+01
5.190100000000000000e+04,2.900000000000000017e-04,2.999999999999999737e-05,-5.000000000000000240e-05,2.700000000000000035e-04,3.099999999999999999e-04,-5.999999999999999474e-05,0.000000000000000000e+00,4.499999999999999877e-04,3.000000000000000000e+00,1.600000000000000000e+01
5.190200000000000000e+04,2.900000000000000017e-04,2.999999999999999737e-05,-5.000000000000000240e-05,2.700000000000000035e-04,3.099999999999999999e-04,-5.999999999999999474e-05,0.000000000000000000e+00,4.499999999999999877e-04,3.000000000000000000e+00,1.600000000000000000e+01
5.190300000000000000e+04,2.900000000000000017e-04,2.999999999999999737e-05,-5.000000000000000240e-05,2.700000000000000035e-04,3.099999999999999999e-04,-5.999999999999999474e-05,0.000000000000000000e+00,4.499999999999999877e-04,3.000000000000000000e+00,1.600000000000000000e+01
5.190400000000000000e+04,2.900000000000000017e-04,2.999999999999999737e-05,-5.000000000000000240e-05,2.700000000000000035e-04,3.099999999999999999e-04,-5.999999999999999474e-05,0.000000000000000000e+00,4.499999999999999877e-04,3.000000000000000000e+00,1.600000000000000000e+01
5.190500000000000000e+04,2.900000000000000017e-04,2.999999999999999737e-05,-5.000000000000000240e-05,2.700000000000000035e-04,3.099999999999999999e-04,-5.999999999999999474e-05,0.000000000000000000e+00,4.499999999999999877e-04,3.000000000000000000e+00,1.600000000000000000e+01
5.190600000000000000e+04,2.900000000000000017e-04,2.999999999999999737e-05,-5.000000000000000240e-05,2.700000000000000035e-04,3.099999999999999999e-04,-5.999999999999999474e-05,0.000000000000000000e+00,4.499999999999999877e-04,3.000000000000000000e+00,1.600000000000000000e+01
5.190700000000000000e+04,2.900000000000000017e-04,2.999999999999999737e-05,-5.000000000000000240e-05,2.700000000000000035e-04,3.099999999999999999e-04,-5.999999999999999474e-05,0.000000000000000000e+00,4.499999999999999877e-04,3.000000000000000000e+00,1.600000000000000000e+01
5.190800000000000000e+04,2.900000000000000017e-04,2.999999999999999737e-05,-5.000000000000000240e-05,2.700000000000000035e-04,3.099999999999999999e-04,-5.999999999999999474e-05,0.000000000000000000e+00,4.499999999999999877e-04,3.000000000000000000e+00,1.600000000000000000e+01
5.190900000000000000e+04,-1.100000000000000039e-04,0.000000000000000000e+00,-2.999999999999999737e-05,3.099999999999999999e-04,-2.999999999999999737e-05,-2.999999999999999737e-05,-3.499999999999999964e-04,-2.999999999999999737e-05,3.000000000000000000e+00,1.600000000000000000e+01
5.191000000000000000e+04,-1.100000000000000039e-04,0.000000000000000000e+00,-2.999999999999999737e-05,3.099999999999999999e-04,-2.999999999999999737e-05,-2.999999999999999737e-05,-3.499999999999999964e-04,-2.999999999999999737e-05,3.000000000000000000e+00,1.600000000000000000e+01
5.191100000000000000e+04,-1.100000000000000039e-04,0.000000000000000000e+00,-2.999999999999999737e-05,3.099999999999999999e-04,-2.999999999999999737e-05,-2.999999999999999737e-05,-3.499999999999999964e-04,-2.999999999999999737e-05,3.000000000000000000e+00,1.600000000000000000e+01
