4.611900000000000000e+04,0.000000000000000000e+00,-2.000000000000000164e-05,-2.999999999999999737e-05,2.000000000000000164e-05,8.000000000000000654e-05,2.999999999999999737e-05,-1.000000000000000082e-05,1.000000000000000082e-05,3.000000000000000000e+00,1.700000000000000000e+01
4.612000000000000000e+04,6.999999999999999387e-05,2.000000000000000164e-05,-2.999999999999999737e-05,-2.000000000000000164e-05,-2.000000000000000164e-05,-5.000000000000000240e-05,-4.000000000000000327e-05,-2.999999999999999737e-05,3.000000000000000000e+00,1.700000000000000000e+01
4.612100000000000000e+04,6.999999999999999387e-05,2.000000000000000164e-05,-2.999999999999999737e-05,-2.000000000000000164e-05,-2.000000000000000164e-05,-5.000000000000000240e-05,-4.000000000000000327e-05,-2.999999999999999737e-05,3.000000000000000000e+00,1.700000000000000000e+01
4.612200000000000000e+04,6.999999999999999387e-05,2.000000000000000164e-05,-2.999999999999999737e-05,-2.000000000000000164e-05,-2.000000000000000164e-05,-5.000000000000000240e-05,-4.000000000000000327e-05,-2.999999999999999737e-05,3.000000000000000000e+00,1.700000000000000000e+01
4.612300000000000000e+04,6.999999999999999387e-05,2.000000000000000164e-05,-2.999999999999999737e-05,-2.000000000000000164e-05,-2.000000000000000164e-05,-5.000000000000000240e-05,-4.000000000000000327e-05,-2.999999999999999737e-05,3.000000000000000000e+00,1.700000000000000000e+01
4.612400000000000000e+04,6.999999999999999387e-05,2.000000000000000164e-05,-2.999999999999999737e-05,-2.000000000000000164e-05,-2.000000000000000164e-05,-5.000000000000000240e-05,-4.000000000000000327e-05,-2.999999999999999737e-05,3.000000000000000000e+00,1.700000000000000000e+01
4.612500000000000000e+04,6.999999999999999387e-05,2.000000000000000164e-05,-2.999999999999999737e-05,-2.000000000000000164e-05,-2.000000000000000164e-05,-5.000000000000000240e-05,-4.000000000000000327e-05,-2.999999999999999737e-05,3.000000000000000000e+00,1.700000000000000000e+01
4.612600000000000000e+04,6.999999999999999387e-05,2.000000000000000164e-05,-2.999999999999999737e-05,-2.000000000000000164e-05,-2.000000000000000164e-05,-5.000000000000000240e-05,-4.000000000000000327e-05,-2.999999999999999737e-05,3.000000000000000000e+00,1.700000000000000000e+01
4.612700000000000000e+04,6.999999999999999387e-05,2.000000000000000164e-05,-2.999999999999999737e-05,-2.000000000000000164e-05,-2.000000000000000164e-05,-5.000000000000000240e-05,-4.000000000000000327e-05,-2.999999999999999737e-05,3.000000000000000000e+00,1.700000000000000000e+01
4.612800000000000000e+04,6.999999999999999387e-05,2.000000000000000164e-05,-2.999999999999999737e-05,-2.000000000000000164e-05,-2.000000000000000164e-05,-5.000000000000000240e-05,-4.000000000000000327e-05,-2.999999999999999737e-05,3.000000000000000000e+00,1.700000000000000000e+01
4.612900000000000000e+04,6.999999999999999387e-05,2.000000000000000164e-05,-2.999999999999999737e-05,-2.000000000000000164e-05,-2.000000000000000164e-05,-5.000000000000000240e-05,-4.000000000000000327e-05,-2.999999999999999737e-05,3.000000000000000000e+00,1.700000000000000000e+01
4.613000000000000000e+04,6.999999999999999387e-05,2.000000000000000164e-05,-2.999999999999999737e-05,-2.000000000000000164e-05,-2.000000000000000164e-05,-5.000000000000000240e-05,-4.000000000000000327e-05,-2.999999999999999737e-05,3.000000000000000000e+00,1.700000000000000000e+01
4.613100000000000000e+04,6.999999999999999387e-05,2.000000000000000164e-05,-2.999999999999999737e-05,-2.000000000000000164e-05,-2.000000000000000164e-05,-5.000000000000000240e-05,-4.000000000000000327e-05,-2.999999999999999737e-05,3.000000000000000000e+00,1.700000000000000000e+01
4.613200000000000000e+04,6.999999999999999387e-05,2.000000000000000164e-05,-2.999999999999999737e-05,-2.000000000000000164e-05,-2.000000000000000164e-05,-5.000000000000000240e-05,-4.000000000000000327e-05,-2.999999999999999737e-05,3.000000000000000000e+00,1.700000000000000000e+01
4.613300000000000000e+04,6.999999999999999387e-05,2.000000000000000164e-05,-2.999999999999999737e-05,-2.000000000000000164e-05,-2.000000000000000164e-05,-5.000000000000000240e-05,-4.000000000000000327e-05,-2.999999999999999737e-05,3.000000000000000000e+00,1.700000000000000000e+01
4.613400000000000000e+04,-5.999999999999999474e-05,0.000000000000000000e+00,-1.000000000000000082e-05,-1.000000000000000082e-05,-2.000000000000000164e-05,2.000000000000000164e-05,1.000000000000000082e-05,-2.000000000000000164e-05,3.000000000000000000e+00,1.700000000000000000e+01
4.613500000000000000e+04,-5.999999999999999474e-05,0.000000000000000000e+00,-1.000000000000000082e-05,-1.000000000000000082e-05,-2.000000000000000164e-05,2.000000000000000164e-05,1.000000000000000082e-05,-2.000000000000000164e-05,3.000000000000000000e+00,1.700000000000000000e+01
4.613600000000000000e+04,-9.000000000000000567e-05,-1.100000000000000039e-04,1.000000000000000082e-05,4.000000000000000327e-05,2.000000000000000164e-05,5.999999999999999474e-05,5.000000000000000240e-05,1.800000000000000113e-04,3.000000000000000000e+00,1.700000000000000000e+01
4.613800000000000000e+04,-9.000000000000000567e-05,-1.100000000000000039e-04,1.000000000000000082e-05,4.000000000000000327e-05,2.000000000000000164e-05,5.999999999999999474e-05,5.000000000000000240e-05,1.800000000000000113e-04,3.000000000000000000e+00,1.700000000000000000e+01
4.613900000000000000e+04,-9.000000000000000567e-05,-1.100000000000000039e-04,1.000000000000000082e-05,4.000000000000000327e-05,2.000000000000000164e-05,5.999999999999999474e-05,5.000000000000000240e-05,1.800000000000000113e-04,3.000000000000000000e+00,1.700000000000000000e+01
4.614000000000000000e+04,-9.000000000000000567e-05,-1.100000000000000039e-04,1.000000000000000082e-05,4.000000000000000327e-05,2.000000000000000164e-05,5.999999999999999474e-05,5.000000000000000240e-05,1.800000000000000113e-04,3.000000000000000000e+00,1.700000000000000000e+01
4.614100000000000000e+04,-9.000000000000000567e-05,-1.100000000000000039e-04,1.000000000000000082e-05,4.000000000000000327e-05,2.000000000000000164e-05,5.999999999999999474e-05,5.000000000000000240e-05,1.800000000000000113e-04,3.000000000000000000e+00,1.700000000000000000e+01
4.614200000000000000e+04,-9.000000000000000567e-05,-1.100000000000000039e-04,1.000000000000000082e-05,4.000000000000000327e-05,2.000000000000000164e-05,5.999999999999999474e-05,5.000000000000000240e-05,1.800000000000000113e-04,3.000000000000000000e+00,1.700000000000000000e+01
4.614300000000000000e+04,-9.000000000000000567e-05,-1.100000000000000039e-04,1.000000000000000082e-05,4.000000000000000327e-05,2.000000000000000164e-05,5.999999999999999474e-05,5.000000000000000240e-05,1.800000000000000113e-04,3.000000000000000000e+00,1.700000000000000000e+01
4.614400000000000000e+04,-9.000000000000000567e-05,-1.100000000000000039e-04,1.000000000000000082e-05,4.000000000000000327e-05,2.000000000000000164e-05,5.999999999999999474e-05,5.000000000000000240e-05,1.800000000000000113e-04,3.000000000000000000e+00,1.700000000000000000e+01
4.614500000000000000e+04,-9.000000000000000567e-05,-1.100000000000000039e-04,1.000000000000000082e-05,4.000000000000000327e-05,2.000000000000000164e-05,5.999999999999999474e-05,5.000000000000000240e-05,1.800000000000000113e-04,3.000000000000000000e+00,1.700000000000000000e+01
4.614600000000000000e+04,-9.000000000000000567e-05,-1.100000000000000039e-04,1.000000000000000082e-05,4.000000000000000327e-05,2.000000000000000164e-05,5.999999999999999474e-05,5.000000000000000240e-05,1.800000000000000113e-04,3.000000000000000000e+00,1.700000000000000000e+01
4.614700000000000000e+04,-9.000000000000000567e-05,-1.100000000000000039e-04,1.000000000000000082e-05,4.000000000000000327e-05,2.000000000000000164e-05,5.999999999999999474e-05,5.000000000000000240e-05,1.800000000000000113e-04,3.000000000000000000e+00,1.700000000000000000e+01
4.614800000000000000e+04,-9.000000000000000567e-05,-1.100000000000000039e-04,1.000000000000000082e-05,4.000000000000000327e-05,2.000000000000000164e-05,5.999999999999999474e-05,5.000000000000000240e-05,1.800000000000000113e-04,3.000000000000000000e+00,1.700000000000000000e+01
4.614900000000000000e+04,-9.000000000000000567e-05,-1.100000000000000039e-04,1.000000000000000082e-05,4.000000000000000327e-05,2.000000000000000164e-05,5.999999999999999474e-05,5.000000000000000240e-05,1.800000000000000113e-04,3.000000000000000000e+00,1.700000000000000000e+01
4.615000000000000000e+04,-9.000000000000000567e-05,-1.100000000000000039e-04,1.000000000000000082e-05,4.000000000000000327e-05,2.000000000000000164e-05,5.999999999999999474e-05,5.000000000000000240e-05,1.800000000000000113e-04,3.000000000000000000e+00,1.700000000000000000e+01
4.615100000000000000e+04,-9.000000000000000567e-05,-1.100000000000000039e-04,1.000000000000000082e-05,4.000000000000000327e-05,2.000000000000000164e-05,5.999999999999999474e-05,5.000000000000000240e-05,1.800000000000000113e-04,3.000000000000000000e+00,1.700000000000000000e+01
4.615200000000000000e+04,-9.000000000000000567e-05,-1.100000000000000039e-04,1.000000000000000082e-05,4.000000000000000327e-05,2.000000000000000164e-05,5.999999999999999474e-05,5.000000000000000240e-05,1.800000000000000113e-04,3.000000000000000000e+00,1.700000000000000000e+01
4.615300000000000000e+04,-9.000000000000000567e-05,-1.100000000000000039e-04,1.000000000000000082e-05,4.000000000000000327e-05,2.000000000000000164e-05,5.999999999999999474e-05,5.000000000000000240e-05,1.800000000000000113e-04,3.000000000000000000e+00,1.700000000000000000e+01
4.615400000000000000e+04,-9.000000000000000567e-05,-1.100000000000000039e-04,1.000000000000000082e-05,4.000000000000000327e-05,2.000000000000000164e-05,5.999999999999999474e-05,5.000000000000000240e-05,1.800000000000000113e-04,3.000000000000000000e+00,1.700000000000000000e+01
4.615500000000000000e+04,-9.000000000000000567e-05,-1.100000000000000039e-04,1.000000000000000082e-05,4.000000000000000327e-05,2.000000000000000164e-05,5.999999999999999474e-05,5.000000000000000240e-05,1.800000000000000113e-04,3.000000000000000000e+00,1.700000000000000000e+01
4.615600000000000000e+04,-9.000000000000000567e-05,-1.100000000000000039e-04,1.000000000000000082e-05,4.000000000000000327e-05,2.000000000000000164e-05,5.999999999999999474e-05,5.000000000000000240e-05,1.800000000000000113e-04,3.000000000000000000e+00,1.700000000000000000e+01
4.615700000000000000e+04,-2.000000000000000164e-05,-2.999999999999999737e-05,-1.000000000000000048e-04,-2.999999999999999737e-05,-2.999999999999999737e-05,1.000000000000000082e-05,0.000000000000000000e+00,0.000000000000000000e+00,3.000000000000000000e+00,1.700000000000000000e+01
4.615800000000000000e+04,5.000000000000000240e-05,5.000000000000000240e-05,-2.000000000000000164e-05,2.999999999999999737e-05,2.000000000000000164e-05,1.000000000000000082e-05,1.000000000000000082e-05,-5.999999999999999474e-05,3.000000000000000000e+00,1.700000000000000000e+01
4.615900000000000000e+04,5.000000000000000240e-05,5.000000000000000240e-05,-2.000000000000000164e-05,2.999999999999999737e-05,2.000000000000000164e-05,1.000000000000000082e-05,1.000000000000000082e-05,-5.999999999999999474e-05,3.000000000000000000e+00,1.700000000000000000e+01
4.616000000000000000e+04,5.000000000000000240e-05,5.000000000000000240e-05,-2.000000000000000164e-05,2.999999999999999737e-05,2.000000000000000164e-05,1.000000000000000082e-05,1.000000000000000082e-05,-5.999999999999999474e-05,3.000000000000000000e+00,1.700000000000000000e+01
4.616100000000000000e+04,5.000000000000000240e-05,5.000000000000000240e-05,-2.000000000000000164e-05,2.999999999999999737e-05,2.000000000000000164e-05,1.000000000000000082e-05,1.000000000000000082e-05,-5.999999999999999474e-05,3.000000000000000000e+00,1.700000000000000000e+01
4.616200000000000000e+04,5.000000000000000240e-05,5.000000000000000240e-05,-2.000000000000000164e-05,2.999999999999999737e-05,2.000000000000000164e-05,1.000000000000000082e-05,1.000000000000000082e-05,-5.999999999999999474e-05,3.000000000000000000e+00,1.700000000000000000e+01
4.616300000000000000e+04,5.000000000000000240e-05,5.000000000000000240e-05,-2.000000000000000164e-05,2.999999999999999737e-05,2.000000000000000164e-05,1.000000000000000082e-05,1.000000000000000082e-05,-5.999999999999999474e-05,3.000000000000000000e+00,1.700000000000000000e+01
4.616400000000000000e+04,5.000000000000000240e-05,5.000000000000000240e-05,-2.000000000000000164e-05,2.999999999999999737e-05,2.000000000000000164e-05,1.000000000000000082e-05,1.000000000000000082e-05,-5.999999999999999474e-05,3.000000000000000000e+00,1.700000000000000000e+01
4.616500000000000000e+04,5.000000000000000240e-05,5.000000000000000240e-05,-2.000000000000000164e-05,2.999999999999999737e-05,2.000000000000000164e-05,1.000000000000000082e-05,1.000000000000000082e-05,-5.999999999999999474e-05,3.000000000000000000e+00,1.700000000000000000e+01
4.616600000000000000e+04,5.000000000000000240e-05,5.000000000000000240e-05,-2.000000000000000164e-05,2.999999999999999737e-05,2.000000000000000164e-05,1.000000000000000082e-05,1.000000000000000082e-05,-5.999999999999999474e-05,3.000000000000000000e+00,1.700000000000000000e+01
4.616700000000000000e+04,5.000000000000000240e-05,5.000000000000000240e-05,-2.000000000000000164e-05,2.999999999999999737e-05,2.000000000000000164e-05,1.000000000000000082e-05,1.000000000000000082e-05,-5.999999999999999474e-05,3.000000000000000000e+00,1.700000000000000000e+01
4.616800000000000000e+04,5.000000000000000240e-05,5.000000000000000240e-05,-2.000000000000000164e-05,2.999999999999999737e-05,2.000000000000000164e-05,1.000000000000000082e-05,1.000000000000000082e-05,-5.999999999999999474e-05,3.000000000000000000e+00,1.700000000000000000e+01
4.616900000000000000e+04,5.000000000000000240e-05,5.000000000000000240e-05,-2.000000000000000164e-05,2.999999999999999737e-05,2.000000000000000164e-05,1.000000000000000082e-05,1.000000000000000082e-05,-5.999999999999999474e-05,3.000000000000000000e+00,1.700000000000000000e+01
4.617000000000000000e+04,5.000000000000000240e-05,5.000000000000000240e-05,-2.000000000000000164e-05,2.999999999999999737e-05,2.000000000000000164e-05,1.000000000000000082e-05,1.000000000000000082e-05,-5.999999999999999474e-05,3.000000000000000000e+00,1.700000000000000000e+01
4.617100000000000000e+04,5.000000000000000240e-05,5.000000000000000240e-05,-2.000000000000000164e-05,2.999999999999999737e-05,2.000000000000000164e-05,1.000000000000000082e-05,1.000000000000000082e-05,-5.999999999999999474e-05,3.000000000000000000e+00,1.700000000000000000e+01
4.617200000000000000e+04,5.000000000000000240e-05,5.000000000000000240e-05,-2.000000000000000164e-05,2.999999999999999737e-05,2.000000000000000164e-05,1.000000000000000082e-05,1.000000000000000082e-05,-5.999999999999999474e-05,3.000000000000000000e+00,1.700000000000000000e+01
4.617300000000000000e+04,5.000000000000000240e-05,5.000000000000000240e-05,-2.000000000000000164e-05,2.999999999999999737e-05,2.000000000000000164e-05,1.000000000000000082e-05,1.000000000000000082e-05,-5.999999999999999474e-05,3.000000000000000000e+00,1.700000000000000000e+01
4.617400000000000000e+04,5.000000000000000240e-05,5.000000000000000240e-05,-2.000000000000000164e-05,2.999999999999999737e-05,2.000000000000000164e-05,1.000000000000000082e-05,1.000000000000000082e-05,-5.999999999999999474e-05,3.000000000000000000e+00,1.700000000000000000e+01
4.617500000000000000e+04,5.000000000000000240e-05,5.000000000000000240e-05,-2.000000000000000164e-05,2.999999999999999737e-05,2.000000000000000164e-05,1.000000000000000082e-05,1.000000000000000082e-05,-5.999999999999999474e-05,3.000000000000000000e+00,1.700000000000000000e+01
4.617600000000000000e+04,5.000000000000000240e-05,5.000000000000000240e-05,-2.000000000000000164e-05,2.999999999999999737e-05,2.000000000000000164e-05,1.000000000000000082e-05,1.000000000000000082e-05,-5.999999999999999474e-05,3.000000000000000000e+00,1.700000000000000000e+01
4.617700000000000000e+04,5.000000000000000240e-05,5.000000000000000240e-05,-2.000000000000000164e-05,2.999999999999999737e-05,2.000000000000000164e-05,1.000000000000000082e-05,1.000000000000000082e-05,-5.999999999999999474e-05,3.000000000000000000e+00,1.700000000000000000e+01
4.617800000000000000e+04,5.000000000000000240e-05,5.000000000000000240e-05,-2.000000000000000164e-05,2.999999999999999737e-05,2.000000000000000164e-05,1.000000000000000082e-05,1.000000000000000082e-05,-5.999999999999999474e-05,3.000000000000000000e+00,1.700000000000000000e+01
4.617900000000000000e+04,5.000000000000000240e-05,9.000000000000000567e-05,2.999999999999999737e-05,-2.000000000000000164e-05,-2.000000000000000164e-05,-1.000000000000000082e-05,-2.999999999999999737e-05,2.999999999999999737e-05,3.000000000000000000e+00,1.700000000000000000e+01
4.618000000000000000e+04,5.000000000000000240e-05,9.000000000000000567e-05,2.999999999999999737e-05,-2.000000000000000164e-05,-2.000000000000000164e-05,-1.000000000000000082e-05,-2.999999999999999737e-05,2.999999999999999737e-05,3.000000000000000000e+00,1.700000000000000000e+01
4.618100000000000000e+04,-4.000000000000000327e-05,-8.000000000000000654e-05,-4.000000000000000327e-05,-5.999999999999999474e-05,2.000000000000000164e-05,0.000000000000000000e+00,-2.000000000000000164e-05,-5.000000000000000240e-05,3.000000000000000000e+00,1.700000000000000000e+01
4.618200000000000000e+04,-4.000000000000000327e-05,-8.000000000000000654e-05,-4.000000000000000327e-05,-5.999999999999999474e-05,2.000000000000000164e-05,0.000000000000000000e+00,-2.000000000000000164e-05,-5.000000000000000240e-05,3.000000000000000000e+00,1.700000000000000000e+01
4.618300000000000000e+04,-4.000000000000000327e-05,-8.000000000000000654e-05,-4.000000000000000327e-05,-5.999999999999999474e-05,2.000000000000000164e-05,0.000000000000000000e+00,-2.000000000000000164e-05,-5.000000000000000240e-05,3.000000000000000000e+00,1.700000000000000000e+01
4.618400000000000000e+04,-4.000000000000000327e-05,-8.000000000000000654e-05,-4.000000000000000327e-05,-5.999999999999999474e-05,2.000000000000000164e-05,0.000000000000000000e+00,-2.000000000000000164e-05,-5.000000000000000240e-05,3.000000000000000000e+00,1.700000000000000000e+01
4.618500000000000000e+04,-4.000000000000000327e-05,-8.000000000000000654e-05,-4.000000000000000327e-05,-5.999999999999999474e-05,2.000000000000000164e-05,0.000000000000000000e+00,-2.000000000000000164e-05,-5.000000000000000240e-05,3.000000000000000000e+00,1.700000000000000000e+01
4.618600000000000000e+04,-4.000000000000000327e-05,-8.000000000000000654e-05,-4.000000000000000327e-05,-5.999999999999999474e-05,2.000000000000000164e-05,0.000000000000000000e+00,-2.000000000000000164e-05,-5.000000000000000240e-05,3.000000000000000000e+00,1.700000000000000000e+01
4.618800000000000000e+04,-4.000000000000000327e-05,-8.000000000000000654e-05,-4.000000000000000327e-05,-5.999999999999999474e-05,2.000000000000000164e-05,0.000000000000000000e+00,-2.000000000000000164e-05,-5.000000000000000240e-05,3.000000000000000000e+00,1.700000000000000000e+01
4.619000000000000000e+04,-4.000000000000000327e-05,-8.000000000000000654e-05,-4.000000000000000327e-05,-5.999999999999999474e-05,2.000000000000000164e-05,0.000000000000000000e+00,-2.000000000000000164e-05,-5.000000000000000240e-05,3.000000000000000000e+00,1.700000000000000000e+01
4.619100000000000000e+04,-4.000000000000000327e-05,-8.000000000000000654e-05,-4.000000000000000327e-05,-5.999999999999999474e-05,2.000000000000000164e-05,0.000000000000000000e+00,-2.000000000000000164e-05,-5.000000000000000240e-05,3.000000000000000000e+00,1.700000000000000000e+01
4.619200000000000000e+04,-4.000000000000000327e-05,-8.000000000000000654e-05,-4.000000000000000327e-05,-5.999999999999999474e-05,2.000000000000000164e-05,0.000000000000000000e+00,-2.000000000000000164e-05,-5.000000000000000240e-05,3.000000000000000000e+00,1.700000000000000000e+01
4.619300000000000000e+04,-1.000000000000000082e-05,2.000000000000000164e-05,1.000000000000000082e-05,2.000000000000000164e-05,-2.000000000000000164e-05,0.000000000000000000e+00,-4.000000000000000327e-05,0.000000000000000000e+00,3.000000000000000000e+00,1.700000000000000000e+01
4.619400000000000000e+04,-4.000000000000000327e-05,-5.999999999999999474e-05,-4.000000000000000327e-05,-2.999999999999999737e-05,-2.000000000000000164e-05,-5.999999999999999474e-05,-5.000000000000000240e-05,-5.999999999999999474e-05,3.000000000000000000e+00,1.700000000000000000e+01
4.619500000000000000e+04,-4.000000000000000327e-05,-5.999999999999999474e-05,-4.000000000000000327e-05,-2.999999999999999737e-05,-2.000000000000000164e-05,-5.999999999999999474e-05,-5.000000000000000240e-05,-5.999999999999999474e-05,3.000000000000000000e+00,1.700000000000000000e+01
4.619600000000000000e+04,-4.000000000000000327e-05,-5.999999999999999474e-05,-4.000000000000000327e-05,-2.999999999999999737e-05,-2.000000000000000164e-05,-5.999999999999999474e-05,-5.000000000000000240e-05,-5.999999999999999474e-05,3.000000000000000000e+00,1.700000000000000000e+01
4.619700000000000000e+04,-4.000000000000000327e-05,-5.999999999999999474e-05,-4.000000000000000327e-05,-2.999999999999999737e-05,-2.000000000000000164e-05,-5.999999999999999474e-05,-5.000000000000000240e-05,-5.999999999999999474e-05,3.000000000000000000e+00,1.700000000000000000e+01
4.619800000000000000e+04,-4.000000000000000327e-05,-5.999999999999999474e-05,-4.000000000000000327e-05,-2.999999999999999737e-05,-2.000000000000000164e-05,-5.999999999999999474e-05,-5.000000000000000240e-05,-5.999999999999999474e-05,3.000000000000000000e+00,1.700000000000000000e+01
4.619900000000000000e+04,-4.000000000000000327e-05,-5.999999999999999474e-05,-4.000000000000000327e-05,-2.999999999999999737e-05,-2.000000000000000164e-05,-5.999999999999999474e-05,-5.000000000000000240e-05,-5.999999999999999474e-05,3.000000000000000000e+00,1.700000000000000000e+01
4.620000000000000000e+04,-2.999999999999999737e-05,2.999999999999999737e-05,-1.000000000000000082e-05,-1.000000000000000082e-05,-5.000000000000000240e-05,-4.000000000000000327e-05,-2.000000000000000164e-05,-1.000000000000000082e-05,3.000000000000000000e+00,1.700000000000000000e+01
4.620100000000000000e+04,-2.999999999999999737e-05,2.999999999999999737e-05,-1.000000000000000082e-05,-1.000000000000000082e-05,-5.000000000000000240e-05,-4.000000000000000327e-05,-2.000000000000000164e-05,-1.000000000000000082e-05,3.000000000000000000e+00,1.700000000000000000e+01
4.620200000000000000e+04,-2.999999999999999737e-05,2.999999999999999737e-05,-1.000000000000000082e-05,-1.000000000000000082e-05,-5.000000000000000240e-05,-4.000000000000000327e-05,-2.000000000000000164e-05,-1.000000000000000082e-05,3.000000000000000000e+00,1.700000000000000000e+01
4.620300000000000000e+04,-2.999999999999999737e-05,2.999999999999999737e-05,-1.000000000000000082e-05,-1.000000000000000082e-05,-5.000000000000000240e-05,-4.000000000000000327e-05,-2.000000000000000164e-05,-1.000000000000000082e-05,3.000000000000000000e+00,1.700000000000000000e+01
4.620400000000000000e+04,-2.999999999999999737e-05,2.999999999999999737e-05,-1.000000000000000082e-05,-1.000000000000000082e-05,-5.000000000000000240e-05,-4.000000000000000327e-05,-2.000000000000000164e-05,-1.000000000000000082e-05,3.000000000000000000e+00,1.700000000000000000e+01
4.620500000000000000e+04,-2.999999999999999737e-05,2.999999999999999737e-05,-1.000000000000000082e-05,-1.000000000000000082e-05,-5.000000000000000240e-05,-4.000000000000000327e-05,-2.000000000000000164e-05,-1.000000000000000082e-05,3.000000000000000000e+00,1.700000000000000000e+01
4.620600000000000000e+04,-2.999999999999999737e-05,2.999999999999999737e-05,-1.000000000000000082e-05,-1.000000000000000082e-05,-5.000000000000000240e-05,-4.000000000000000327e-05,-2.000000000000000164e-05,-1.000000000000000082e-05,3.000000000000000000e+00,1.700000000000000000e+01
4.620700000000000000e+04,-2.999999999999999737e-05,2.999999999999999737e-05,-1.000000000000000082e-05,-1.000000000000000082e-05,-5.000000000000000240e-05,-4.000000000000000327e-05,-2.000000000000000164e-05,-1.000000000000000082e-05,3.000000000000000000e+00,1.700000000000000000e+01
4.620800000000000000e+04,-2.999999999999999737e-05,2.999999999999999737e-05,-1.000000000000000082e-05,-1.000000000000000082e-05,-5.000000000000000240e-05,-4.000000000000000327e-05,-2.000000000000000164e-05,-1.000000000000000082e-05,3.000000000000000000e+00,1.700000000000000000e+01
4.620900000000000000e+04,-2.999999999999999737e-05,2.999999999999999737e-05,-1.000000000000000082e-05,-1.000000000000000082e-05,-5.000000000000000240e-05,-4.000000000000000327e-05,-2.000000000000000164e-05,-1.000000000000000082e-05,3.000000000000000000e+00,1.700000000000000000e+01
4.621000000000000000e+04,-2.999999999999999737e-05,2.999999999999999737e-05,-1.000000000000000082e-05,-1.000000000000000082e-05,-5.000000000000000240e-05,-4.000000000000000327e-05,-2.000000000000000164e-05,-1.000000000000000082e-05,3.000000000000000000e+00,1.700000000000000000e+01
4.621100000000000000e+04,-2.999999999999999737e-05,2.999999999999999737e-05,-1.000000000000000082e-05,-1.000000000000000082e-05,-5.000000000000000240e-05,-4.000000000000000327e-05,-2.000000000000000164e-05,-1.000000000000000082e-05,3.000000000000000000e+00,1.700000000000000000e+01
4.621200000000000000e+04,-2.999999999999999737e-05,2.999999999999999737e-05,-1.000000000000000082e-05,-1.000000000000000082e-05,-5.000000000000000240e-05,-4.000000000000000327e-05,-2.000000000000000164e-05,-1.000000000000000082e-05,3.000000000000000000e+00,1.700000000000000000e+01
4.621300000000000000e+04,-2.999999999999999737e-05,2.999999999999999737e-05,-1.000000000000000082e-05,-1.000000000000000082e-05,-5.000000000000000240e-05,-4.000000000000000327e-05,-2.000000000000000164e-05,-1.000000000000000082e-05,3.000000000000000000e+00,1.700000000000000000e+01
4.621400000000000000e+04,-2.999999999999999737e-05,2.999999999999999737e-05,-1.000000000000000082e-05,-1.000000000000000082e-05,-5.000000000000000240e-05,-4.000000000000000327e-05,-2.000000000000000164e-05,-1.000000000000000082e-05,3.000000000000000000e+00,1.700000000000000000e+01
4.621500000000000000e+04,-2.999999999999999737e-05,2.999999999999999737e-05,-1.000000000000000082e-05,-1.000000000000000082e-05,-5.000000000000000240e-05,-4.000000000000000327e-05,-2.000000000000000164e-05,-1.000000000000000082e-05,3.000000000000000000e+00,1.700000000000000000e+01
4.621600000000000000e+04,2.000000000000000164e-05,1.000000000000000082e-05,-1.000000000000000082e-05,1.000000000000000082e-05,1.000000000000000048e-04,0.000000000000000000e+00,1.000000000000000082e-05,-2.000000000000000164e-05,3.000000000000000000e+00,1.700000000000000000e+01
4.621700000000000000e+04,-1.300000000000000157e-04,-1.600000000000000131e-04,-1.000000000000000082e-05,-2.000000000000000164e-05,-2.999999999999999737e-05,1.000000000000000082e-05,1.000000000000000082e-05,1.000000000000000082e-05,3.000000000000000000e+00,1.700000000000000000e+01
4.621800000000000000e+04,4.000000000000000327e-05,5.000000000000000240e-05,2.000000000000000164e-05,4.000000000000000327e-05,2.999999999999999737e-05,-2.000000000000000164e-05,-2.000000000000000164e-05,-5.999999999999999474e-05,3.000000000000000000e+00,1.700000000000000000e+01
4.621900000000000000e+04,4.000000000000000327e-05,5.000000000000000240e-05,2.000000000000000164e-05,4.000000000000000327e-05,2.999999999999999737e-05,-2.000000000000000164e-05,-2.000000000000000164e-05,-5.999999999999999474e-05,3.000000000000000000e+00,1.700000000000000000e+01
4.622000000000000000e+04,4.000000000000000327e-05,5.000000000000000240e-05,2.000000000000000164e-05,4.000000000000000327e-05,2.999999999999999737e-05,-2.000000000000000164e-05,-2.000000000000000164e-05,-5.999999999999999474e-05,3.000000000000000000e+00,1.700000000000000000e+01
4.622100000000000000e+04,4.000000000000000327e-05,5.000000000000000240e-05,2.000000000000000164e-05,4.000000000000000327e-05,2.999999999999999737e-05,-2.000000000000000164e-05,-2.000000000000000164e-05,-5.999999999999999474e-05,3.000000000000000000e+00,1.700000000000000000e+01
4.622200000000000000e+04,4.000000000000000327e-05,5.000000000000000240e-05,2.000000000000000164e-05,4.000000000000000327e-05,2.999999999999999737e-05,-2.000000000000000164e-05,-2.000000000000000164e-05,-5.999999999999999474e-05,3.000000000000000000e+00,1.700000000000000000e+01
4.622300000000000000e+04,4.000000000000000327e-05,5.000000000000000240e-05,2.000000000000000164e-05,4.000000000000000327e-05,2.999999999999999737e-05,-2.000000000000000164e-05,-2.000000000000000164e-05,-5.999999999999999474e-05,3.000000000000000000e+00,1.700000000000000000e+01
4.622400000000000000e+04,4.000000000000000327e-05,5.000000000000000240e-05,2.000000000000000164e-05,4.000000000000000327e-05,2.999999999999999737e-05,-2.000000000000000164e-05,-2.000000000000000164e-05,-5.999999999999999474e-05,3.000000000000000000e+00,1.700000000000000000e+01
4.622500000000000000e+04,4.000000000000000327e-05,5.000000000000000240e-05,2.000000000000000164e-05,4.000000000000000327e-05,2.999999999999999737e-05,-2.000000000000000164e-05,-2.000000000000000164e-05,-5.999999999999999474e-05,3.000000000000000000e+00,1.700000000000000000e+01
4.622600000000000000e+04,4.000000000000000327e-05,5.000000000000000240e-05,2.000000000000000164e-05,4.000000000000000327e-05,2.999999999999999737e-05,-2.000000000000000164e-05,-2.000000000000000164e-05,-5.999999999999999474e-05,3.000000000000000000e+00,1.700000000000000000e+01
4.622700000000000000e+04,4.000000000000000327e-05,5.000000000000000240e-05,2.000000000000000164e-05,4.000000000000000327e-05,2.999999999999999737e-05,-2.000000000000000164e-05,-2.000000000000000164e-05,-5.999999999999999474e-05,3.000000000000000000e+00,1.700000000000000000e+01
4.622800000000000000e+04,4.000000000000000327e-05,5.000000000000000240e-05,2.000000000000000164e-05,4.000000000000000327e-05,2.999999999999999737e-05,-2.000000000000000164e-05,-2.000000000000000164e-05,-5.999999999999999474e-05,3.000000000000000000e+00,1.700000000000000000e+01
4.622900000000000000e+04,4.000000000000000327e-05,5.000000000000000240e-05,2.000000000000000164e-05,4.000000000000000327e-05,2.999999999999999737e-05,-2.000000000000000164e-05,-2.000000000000000164e-05,-5.999999999999999474e-05,3.000000000000000000e+00,1.700000000000000000e+01
4.623000000000000000e+04,4.000000000000000327e-05,5.000000000000000240e-05,2.000000000000000164e-05,4.000000000000000327e-05,2.999999999999999737e-05,-2.000000000000000164e-05,-2.000000000000000164e-05,-5.999999999999999474e-05,3.000000000000000000e+00,1.700000000000000000e+01
4.623100000000000000e+04,4.000000000000000327e-05,5.000000000000000240e-05,2.000000000000000164e-05,4.000000000000000327e-05,2.999999999999999737e-05,-2.000000000000000164e-05,-2.000000000000000164e-05,-5.999999999999999474e-05,3.000000000000000000e+00,1.700000000000000000e+01
4.623200000000000000e+04,4.000000000000000327e-05,5.000000000000000240e-05,2.000000000000000164e-05,4.000000000000000327e-05,2.999999999999999737e-05,-2.000000000000000164e-05,-2.000000000000000164e-05,-5.999999999999999474e-05,3.000000000000000000e+00,1.700000000000000000e+01
4.623300000000000000e+04,4.000000000000000327e-05,5.000000000000000240e-05,2.000000000000000164e-05,4.000000000000000327e-05,2.999999999999999737e-05,-2.000000000000000164e-05,-2.000000000000000164e-05,-5.999999999999999474e-05,3.000000000000000000e+00,1.700000000000000000e+01
4.623400000000000000e+04,4.000000000000000327e-05,5.000000000000000240e-05,2.000000000000000164e-05,4.000000000000000327e-05,2.999999999999999737e-05,-2.000000000000000164e-05,-2.000000000000000164e-05,-5.999999999999999474e-05,3.000000000000000000e+00,1.700000000000000000e+01
4.623500000000000000e+04,4.000000000000000327e-05,5.000000000000000240e-05,2.000000000000000164e-05,4.000000000000000327e-05,2.999999999999999737e-05,-2.000000000000000164e-05,-2.000000000000000164e-05,-5.999999999999999474e-05,3.000000000000000000e+00,1.700000000000000000e+01
4.623600000000000000e+04,4.000000000000000327e-05,5.000000000000000240e-05,2.000000000000000164e-05,4.000000000000000327e-05,2.999999999999999737e-05,-2.000000000000000164e-05,-2.000000000000000164e-05,-5.999999999999999474e-05,3.000000000000000000e+00,1.700000000000000000e+01
4.623800000000000000e+04,1.000000000000000082e-05,-1.000000000000000082e-05,-2.000000000000000164e-05,-2.000000000000000164e-05,0.000000000000000000e+00,1.000000000000000082e-05,0.000000000000000000e+00,5.000000000000000240e-05,3.000000000000000000e+00,1.700000000000000000e+01
4.623900000000000000e+04,-5.999999999999999474e-05,0.000000000000000000e+00,-2.999999999999999737e-05,-2.000000000000000164e-05,-2.999999999999999737e-05,-2.999999999999999737e-05,-4.000000000000000327e-05,-1.000000000000000082e-05,3.000000000000000000e+00,1.700000000000000000e+01
4.624000000000000000e+04,-5.999999999999999474e-05,0.000000000000000000e+00,-2.999999999999999737e-05,-2.000000000000000164e-05,-2.999999999999999737e-05,-2.999999999999999737e-05,-4.000000000000000327e-05,-1.000000000000000082e-05,3.000000000000000000e+00,1.700000000000000000e+01
4.624100000000000000e+04,-2.000000000000000164e-05,-2.000000000000000164e-05,-1.000000000000000082e-05,-2.000000000000000164e-05,0.000000000000000000e+00,-2.000000000000000164e-05,-2.000000000000000164e-05,-5.000000000000000240e-05,3.000000000000000000e+00,1.700000000000000000e+01
4.624200000000000000e+04,-2.000000000000000164e-05,-2.000000000000000164e-05,-1.000000000000000082e-05,-2.000000000000000164e-05,0.000000000000000000e+00,-2.000000000000000164e-05,-2.000000000000000164e-05,-5.000000000000000240e-05,3.000000000000000000e+00,1.700000000000000000e+01
4.624300000000000000e+04,-2.000000000000000164e-05,-2.000000000000000164e-05,-1.000000000000000082e-05,-2.000000000000000164e-05,0.000000000000000000e+00,-2.000000000000000164e-05,-2.000000000000000164e-05,-5.000000000000000240e-05,3.000000000000000000e+00,1.700000000000000000e+01
4.624400000000000000e+04,-2.000000000000000164e-05,-2.000000000000000164e-05,-1.000000000000000082e-05,-2.000000000000000164e-05,0.000000000000000000e+00,-2.000000000000000164e-05,-2.000000000000000164e-05,-5.000000000000000240e-05,3.000000000000000000e+00,1.700000000000000000e+01
4.624500000000000000e+04,-2.000000000000000164e-05,-2.000000000000000164e-05,-1.000000000000000082e-05,-2.000000000000000164e-05,0.000000000000000000e+00,-2.000000000000000164e-05,-2.000000000000000164e-05,-5.000000000000000240e-05,3.000000000000000000e+00,1.700000000000000000e+01
4.624600000000000000e+04,-2.000000000000000164e-05,-2.000000000000000164e-05,-1.000000000000000082e-05,-2.000000000000000164e-05,0.000000000000000000e+00,-2.000000000000000164e-05,-2.000000000000000164e-05,-5.000000000000000240e-05,3.000000000000000000e+00,1.700000000000000000e+01
4.624700000000000000e+04,-2.000000000000000164e-05,-2.000000000000000164e-05,-1.000000000000000082e-05,-2.000000000000000164e-05,0.000000000000000000e+00,-2.000000000000000164e-05,-2.000000000000000164e-05,-5.000000000000000240e-05,3.000000000000000000e+00,1.700000000000000000e+01
4.624800000000000000e+04,-2.000000000000000164e-05,-2.000000000000000164e-05,-1.000000000000000082e-05,-2.000000000000000164e-05,0.000000000000000000e+00,-2.000000000000000164e-05,-2.000000000000000164e-05,-5.000000000000000240e-05,3.000000000000000000e+00,1.700000000000000000e+01
4.624900000000000000e+04,-2.000000000000000164e-05,-2.000000000000000164e-05,-1.000000000000000082e-05,-2.000000000000000164e-05,0.000000000000000000e+00,-2.000000000000000164e-05,-2.000000000000000164e-05,-5.000000000000000240e-05,3.000000000000000000e+00,1.700000000000000000e+01
4.625000000000000000e+04,-2.000000000000000164e-05,-2.000000000000000164e-05,-1.000000000000000082e-05,-2.000000000000000164e-05,0.000000000000000000e+00,-2.000000000000000164e-05,-2.000000000000000164e-05,-5.000000000000000240e-05,3.000000000000000000e+00,1.700000000000000000e+01
4.625100000000000000e+04,-2.000000000000000164e-05,-2.000000000000000164e-05,-1.000000000000000082e-05,-2.000000000000000164e-05,0.000000000000000000e+00,-2.000000000000000164e-05,-2.000000000000000164e-05,-5.000000000000000240e-05,3.000000000000000000e+00,1.700000000000000000e+01
4.625200000000000000e+04,-2.000000000000000164e-05,-2.000000000000000164e-05,-1.000000000000000082e-05,-2.000000000000000164e-05,0.000000000000000000e+00,-2.000000000000000164e-05,-2.000000000000000164e-05,-5.000000000000000240e-05,3.000000000000000000e+00,1.700000000000000000e+01
4.625300000000000000e+04,-2.000000000000000164e-05,-2.000000000000000164e-05,-1.000000000000000082e-05,-2.000000000000000164e-05,0.000000000000000000e+00,-2.000000000000000164e-05,-2.000000000000000164e-05,-5.000000000000000240e-05,3.000000000000000000e+00,1.700000000000000000e+01
4.625400000000000000e+04,4.000000000000000327e-05,1.000000000000000082e-05,1.000000000000000082e-05,-2.000000000000000164e-05,-8.000000000000000654e-05,-5.000000000000000240e-05,-1.000000000000000082e-05,1.000000000000000082e-05,3.000000000000000000e+00,1.700000000000000000e+01
4.625500000000000000e+04,4.000000000000000327e-05,1.000000000000000082e-05,1.000000000000000082e-05,-2.000000000000000164e-05,-8.000000000000000654e-05,-5.000000000000000240e-05,-1.000000000000000082e-05,1.000000000000000082e-05,3.000000000000000000e+00,1.700000000000000000e+01
4.625600000000000000e+04,-8.000000000000000654e-05,-6.999999999999999387e-05,-5.999999999999999474e-05,-1.000000000000000082e-05,2.999999999999999737e-05,1.000000000000000082e-05,1.000000000000000082e-05,-4.000000000000000327e-05,3.000000000000000000e+00,1.700000000000000000e+01
4.625700000000000000e+04,-8.000000000000000654e-05,-6.999999999999999387e-05,-5.999999999999999474e-05,-1.000000000000000082e-05,2.999999999999999737e-05,1.000000000000000082e-05,1.000000000000000082e-05,-4.000000000000000327e-05,3.000000000000000000e+00,1.700000000000000000e+01
4.625800000000000000e+04,-8.000000000000000654e-05,-6.999999999999999387e-05,-5.999999999999999474e-05,-1.000000000000000082e-05,2.999999999999999737e-05,1.000000000000000082e-05,1.000000000000000082e-05,-4.000000000000000327e-05,3.000000000000000000e+00,1.700000000000000000e+01
4.625900000000000000e+04,-8.000000000000000654e-05,-6.999999999999999387e-05,-5.999999999999999474e-05,-1.000000000000000082e-05,2.999999999999999737e-05,1.000000000000000082e-05,1.000000000000000082e-05,-4.000000000000000327e-05,3.000000000000000000e+00,1.700000000000000000e+01
4.626000000000000000e+04,-8.000000000000000654e-05,-6.999999999999999387e-05,-5.999999999999999474e-05,-1.000000000000000082e-05,2.999999999999999737e-05,1.000000000000000082e-05,1.000000000000000082e-05,-4.000000000000000327e-05,3.000000000000000000e+00,1.700000000000000000e+01
4.626100000000000000e+04,-8.000000000000000654e-05,-6.999999999999999387e-05,-5.999999999999999474e-05,-1.000000000000000082e-05,2.999999999999999737e-05,1.000000000000000082e-05,1.000000000000000082e-05,-4.000000000000000327e-05,3.000000000000000000e+00,1.700000000000000000e+01
4.626200000000000000e+04,-8.000000000000000654e-05,-6.999999999999999387e-05,-5.999999999999999474e-05,-1.000000000000000082e-05,2.999999999999999737e-05,1.000000000000000082e-05,1.000000000000000082e-05,-4.000000000000000327e-05,3.000000000000000000e+00,1.700000000000000000e+01
4.626300000000000000e+04,-8.000000000000000654e-05,-6.999999999999999387e-05,-5.999999999999999474e-05,-1.000000000000000082e-05,2.999999999999999737e-05,1.000000000000000082e-05,1.000000000000000082e-05,-4.000000000000000327e-05,3.000000000000000000e+00,1.700000000000000000e+01
4.626400000000000000e+04,-8.000000000000000654e-05,-6.999999999999999387e-05,-5.999999999999999474e-05,-1.000000000000000082e-05,2.999999999999999737e-05,1.000000000000000082e-05,1.000000000000000082e-05,-4.000000000000000327e-05,3.000000000000000000e+00,1.700000000000000000e+01
4.626500000000000000e+04,-8.000000000000000654e-05,-6.999999999999999387e-05,-5.999999999999999474e-05,-1.000000000000000082e-05,2.999999999999999737e-05,1.000000000000000082e-05,1.000000000000000082e-05,-4.000000000000000327e-05,3.000000000000000000e+00,1.700000000000000000e+01
4.626600000000000000e+04,-8.000000000000000654e-05,-6.999999999999999387e-05,-5.999999999999999474e-05,-1.000000000000000082e-05,2.999999999999999737e-05,1.000000000000000082e-05,1.000000000000000082e-05,-4.000000000000000327e-05,3.000000000000000000e+00,1.700000000000000000e+01
4.626700000000000000e+04,-8.000000000000000654e-05,-6.999999999999999387e-05,-5.999999999999999474e-05,-1.000000000000000082e-05,2.999999999999999737e-05,1.000000000000000082e-05,1.000000000000000082e-05,-4.000000000000000327e-05,3.000000000000000000e+00,1.700000000000000000e+01
4.626800000000000000e+04,-8.000000000000000654e-05,-6.999999999999999387e-05,-5.999999999999999474e-05,-1.000000000000000082e-05,2.999999999999999737e-05,1.000000000000000082e-05,1.000000000000000082e-05,-4.000000000000000327e-05,3.000000000000000000e+00,1.700000000000000000e+01
4.626900000000000000e+04,-8.000000000000000654e-05,-6.999999999999999387e-05,-5.999999999999999474e-05,-1.000000000000000082e-05,2.999999999999999737e-05,1.000000000000000082e-05,1.000000000000000082e-05,-4.000000000000000327e-05,3.000000000000000000e+00,1.700000000000000000e+01
4.627000000000000000e+04,-8.000000000000000654e-05,-6.999999999999999387e-05,-5.999999999999999474e-05,-1.000000000000000082e-05,2.999999999999999737e-05,1.000000000000000082e-05,1.000000000000000082e-05,-4.000000000000000327e-05,3.000000000000000000e+00,1.700000000000000000e+01
4.627100000000000000e+04,-8.000000000000000654e-05,-6.999999999999999387e-05,-5.999999999999999474e-05,-1.000000000000000082e-05,2.999999999999999737e-05,1.000000000000000082e-05,1.000000000000000082e-05,-4.000000000000000327e-05,3.000000000000000000e+00,1.700000000000000000e+01
4.627200000000000000e+04,-8.000000000000000654e-05,-6.999999999999999387e-05,-5.999999999999999474e-05,-1.000000000000000082e-05,2.999999999999999737e-05,1.000000000000000082e-05,1.000000000000000082e-05,-4.000000000000000327e-05,3.000000000000000000e+00,1.700000000000000000e+01
4.627300000000000000e+04,-8.000000000000000654e-05,-6.999999999999999387e-05,-5.999999999999999474e-05,-1.000000000000000082e-05,2.999999999999999737e-05,1.000000000000000082e-05,1.000000000000000082e-05,-4.000000000000000327e-05,3.000000000000000000e+00,1.700000000000000000e+01
4.627400000000000000e+04,-8.000000000000000654e-05,-6.999999999999999387e-05,-5.999999999999999474e-05,-1.000000000000000082e-05,2.999999999999999737e-05,1.000000000000000082e-05,1.000000000000000082e-05,-4.000000000000000327e-05,3.000000000000000000e+00,1.700000000000000000e+01
4.627500000000000000e+04,-8.000000000000000654e-05,-6.999999999999999387e-05,-5.999999999999999474e-05,-1.000000000000000082e-05,2.999999999999999737e-05,1.000000000000000082e-05,1.000000000000000082e-05,-4.000000000000000327e-05,3.000000000000000000e+00,1.700000000000000000e+01
4.627600000000000000e+04,-8.000000000000000654e-05,-6.999999999999999387e-05,-5.999999999999999474e-05,-1.000000000000000082e-05,2.999999999999999737e-05,1.000000000000000082e-05,1.000000000000000082e-05,-4.000000000000000327e-05,3.000000000000000000e+00,1.700000000000000000e+01
4.627700000000000000e+04,0.000000000000000000e+00,0.000000000000000000e+00,0.000000000000000000e+00,1.000000000000000082e-05,4.000000000000000327e-05,1.000000000000000082e-05,-1.000000000000000082e-05,-1.000000000000000082e-05,3.000000000000000000e+00,1.700000000000000000e+01
4.627800000000000000e+04,-1.199999999999999895e-04,-9.000000000000000567e-05,-1.000000000000000082e-05,-2.999999999999999737e-05,-8.000000000000000654e-05,-2.999999999999999737e-05,0.000000000000000000e+00,-4.000000000000000327e-05,3.000000000000000000e+00,1.700000000000000000e+01
4.627900000000000000e+04,-1.199999999999999895e-04,-9.000000000000000567e-05,-1.000000000000000082e-05,-2.999999999999999737e-05,-8.000000000000000654e-05,-2.999999999999999737e-05,0.000000000000000000e+00,-4.000000000000000327e-05,3.000000000000000000e+00,1.700000000000000000e+01
4.628000000000000000e+04,-1.199999999999999895e-04,-9.000000000000000567e-05,-1.000000000000000082e-05,-2.999999999999999737e-05,-8.000000000000000654e-05,-2.999999999999999737e-05,0.000000000000000000e+00,-4.000000000000000327e-05,3.000000000000000000e+00,1.700000000000000000e+01
4.628100000000000000e+04,-1.199999999999999895e-04,-9.000000000000000567e-05,-1.000000000000000082e-05,-2.999999999999999737e-05,-8.000000000000000654e-05,-2.999999999999999737e-05,0.000000000000000000e+00,-4.000000000000000327e-05,3.000000000000000000e+00,1.700000000000000000e+01
4.628200000000000000e+04,-1.199999999999999895e-04,-9.000000000000000567e-05,-1.000000000000000082e-05,-2.999999999999999737e-05,-8.000000000000000654e-05,-2.999999999999999737e-05,0.000000000000000000e+00,-4.000000000000000327e-05,3.000000000000000000e+00,1.700000000000000000e+01
4.628300000000000000e+04,-1.199999999999999895e-04,-9.000000000000000567e-05,-1.000000000000000082e-05,-2.999999999999999737e-05,-8.000000000000000654e-05,-2.999999999999999737e-05,0.000000000000000000e+00,-4.000000000000000327e-05,3.000000000000000000e+00,1.700000000000000000e+01
4.628400000000000000e+04,-1.199999999999999895e-04,-9.000000000000000567e-05,-1.000000000000000082e-05,-2.999999999999999737e-05,-8.000000000000000654e-05,-2.999999999999999737e-05,0.000000000000000000e+00,-4.000000000000000327e-05,3.000000000000000000e+00,1.700000000000000000e+01
4.628500000000000000e+04,-1.199999999999999895e-04,-9.000000000000000567e-05,-1.000000000000000082e-05,-2.999999999999999737e-05,-8.000000000000000654e-05,-2.999999999999999737e-05,0.000000000000000000e+00,-4.000000000000000327e-05,3.000000000000000000e+00,1.700000000000000000e+01
4.628600000000000000e+04,-1.199999999999999895e-04,-9.000000000000000567e-05,-1.000000000000000082e-05,-2.999999999999999737e-05,-8.000000000000000654e-05,-2.999999999999999737e-05,0.000000000000000000e+00,-4.000000000000000327e-05,3.000000000000000000e+00,1.700000000000000000e+01
4.628900000000000000e+04,-1.199999999999999895e-04,-9.000000000000000567e-05,-1.000000000000000082e-05,-2.999999999999999737e-05,-8.000000000000000654e-05,-2.999999999999999737e-05,0.000000000000000000e+00,-4.000000000000000327e-05,3.000000000000000000e+00,1.700000000000000000e+01
4.629000000000000000e+04,-1.199999999999999895e-04,-9.000000000000000567e-05,-1.000000000000000082e-05,-2.999999999999999737e-05,-8.000000000000000654e-05,-2.999999999999999737e-05,0.000000000000000000e+00,-4.000000000000000327e-05,3.000000000000000000e+00,1.700000000000000000e+01
4.629100000000000000e+04,-1.199999999999999895e-04,-9.000000000000000567e-05,-1.000000000000000082e-05,-2.999999999999999737e-05,-8.000000000000000654e-05,-2.999999999999999737e-05,0.000000000000000000e+00,-4.000000000000000327e-05,3.000000000000000000e+00,1.700000000000000000e+01
4.629200000000000000e+04,-1.199999999999999895e-04,-9.000000000000000567e-05,-1.000000000000000082e-05,-2.999999999999999737e-05,-8.000000000000000654e-05,-2.999999999999999737e-05,0.000000000000000000e+00,-4.000000000000000327e-05,3.000000000000000000e+00,1.700000000000000000e+01
4.629300000000000000e+04,-1.199999999999999895e-04,-9.000000000000000567e-05,-1.000000000000000082e-05,-2.999999999999999737e-05,-8.000000000000000654e-05,-2.999999999999999737e-05,0.000000000000000000e+00,-4.000000000000000327e-05,3.000000000000000000e+00,1.700000000000000000e+01
4.629400000000000000e+04,-1.199999999999999895e-04,-9.000000000000000567e-05,-1.000000000000000082e-05,-2.999999999999999737e-05,-8.000000000000000654e-05,-2.999999999999999737e-05,0.000000000000000000e+00,-4.000000000000000327e-05,3.000000000000000000e+00,1.700000000000000000e+01
4.629500000000000000e+04,-1.199999999999999895e-04,-9.000000000000000567e-05,-1.000000000000000082e-05,-2.999999999999999737e-05,-8.000000000000000654e-05,-2.999999999999999737e-05,0.000000000000000000e+00,-4.000000000000000327e-05,3.000000000000000000e+00,1.700000000000000000e+01
4.629600000000000000e+04,-1.199999999999999895e-04,-9.000000000000000567e-05,-1.000000000000000082e-05,-2.999999999999999737e-05,-8.000000000000000654e-05,-2.999999999999999737e-05,0.000000000000000000e+00,-4.000000000000000327e-05,3.000000000000000000e+00,1.700000000000000000e+01
4.629700000000000000e+04,-1.199999999999999895e-04,-9.000000000000000567e-05,-1.000000000000000082e-05,-2.999999999999999737e-05,-8.000000000000000654e-05,-2.999999999999999737e-05,0.000000000000000000e+00,-4.000000000000000327e-05,3.000000000000000000e+00,1.700000000000000000e+01
4.629800000000000000e+04,-1.199999999999999895e-04,-9.000000000000000567e-05,-1.000000000000000082e-05,-2.999999999999999737e-05,-8.000000000000000654e-05,-2.999999999999999737e-05,0.000000000000000000e+00,-4.000000000000000327e-05,3.000000000000000000e+00,1.700000000000000000e+01
4.629900000000000000e+04,-1.199999999999999895e-04,-1.199999999999999895e-04,1.000000000000000082e-05,5.000000000000000240e-05,5.000000000000000240e-05,-1.000000000000000082e-05,1.000000000000000082e-05,-4.000000000000000327e-05,3.000000000000000000e+00,1.700000000000000000e+01
4.630000000000000000e+04,-1.199999999999999895e-04,-1.199999999999999895e-04,1.000000000000000082e-05,5.000000000000000240e-05,5.000000000000000240e-05,-1.000000000000000082e-05,1.000000000000000082e-05,-4.000000000000000327e-05,3.000000000000000000e+00,1.700000000000000000e+01
4.630100000000000000e+04,1.000000000000000082e-05,-1.000000000000000082e-05,-5.999999999999999474e-05,-2.999999999999999737e-05,2.000000000000000164e-05,1.000000000000000082e-05,-2.000000000000000164e-05,0.000000000000000000e+00,3.000000000000000000e+00,1.700000000000000000e+01
4.630200000000000000e+04,1.000000000000000082e-05,-1.000000000000000082e-05,-5.999999999999999474e-05,-2.999999999999999737e-05,2.000000000000000164e-05,1.000000000000000082e-05,-2.000000000000000164e-05,0.000000000000000000e+00,3.000000000000000000e+00,1.700000000000000000e+01
4.630300000000000000e+04,1.000000000000000082e-05,-1.000000000000000082e-05,-5.999999999999999474e-05,-2.999999999999999737e-05,2.000000000000000164e-05,1.000000000000000082e-05,-2.000000000000000164e-05,0.000000000000000000e+00,3.000000000000000000e+00,1.700000000000000000e+01
4.630400000000000000e+04,1.000000000000000082e-05,-1.000000000000000082e-05,-5.999999999999999474e-05,-2.999999999999999737e-05,2.000000000000000164e-05,1.000000000000000082e-05,-2.000000000000000164e-05,0.000000000000000000e+00,3.000000000000000000e+00,1.700000000000000000e+01
4.630500000000000000e+04,1.000000000000000082e-05,-1.000000000000000082e-05,-5.999999999999999474e-05,-2.999999999999999737e-05,2.000000000000000164e-05,1.000000000000000082e-05,-2.000000000000000164e-05,0.000000000000000000e+00,3.000000000000000000e+00,1.700000000000000000e+01
4.630600000000000000e+04,1.000000000000000082e-05,-1.000000000000000082e-05,-5.999999999999999474e-05,-2.999999999999999737e-05,2.000000000000000164e-05,1.000000000000000082e-05,-2.000000000000000164e-05,0.000000000000000000e+00,3.000000000000000000e+00,1.700000000000000000e+01
4.630700000000000000e+04,1.000000000000000082e-05,-1.000000000000000082e-05,-5.999999999999999474e-05,-2.999999999999999737e-05,2.000000000000000164e-05,1.000000000000000082e-05,-2.000000000000000164e-05,0.000000000000000000e+00,3.000000000000000000e+00,1.700000000000000000e+01
4.630800000000000000e+04,1.000000000000000082e-05,-1.000000000000000082e-05,-5.999999999999999474e-05,-2.999999999999999737e-05,2.000000000000000164e-05,1.000000000000000082e-05,-2.000000000000000164e-05,0.000000000000000000e+00,3.000000000000000000e+00,1.700000000000000000e+01
4.630900000000000000e+04,1.000000000000000082e-05,-1.000000000000000082e-05,-5.999999999999999474e-05,-2.999999999999999737e-05,2.000000000000000164e-05,1.000000000000000082e-05,-2.000000000000000164e-05,0.000000000000000000e+00,3.000000000000000000e+00,1.700000000000000000e+01
4.631000000000000000e+04,1.000000000000000082e-05,-1.000000000000000082e-05,-5.999999999999999474e-05,-2.999999999999999737e-05,2.000000000000000164e-05,1.000000000000000082e-05,-2.000000000000000164e-05,0.000000000000000000e+00,3.000000000000000000e+00,1.700000000000000000e+01
4.631100000000000000e+04,1.000000000000000082e-05,-1.000000000000000082e-05,-5.999999999999999474e-05,-2.999999999999999737e-05,2.000000000000000164e-05,1.000000000000000082e-05,-2.000000000000000164e-05,0.000000000000000000e+00,3.000000000000000000e+00,1.700000000000000000e+01
4.631200000000000000e+04,1.000000000000000082e-05,-1.000000000000000082e-05,-5.999999999999999474e-05,-2.999999999999999737e-05,2.000000000000000164e-05,1.000000000000000082e-05,-2.000000000000000164e-05,0.000000000000000000e+00,3.000000000000000000e+00,1.700000000000000000e+01
4.631300000000000000e+04,0.000000000000000000e+00,2.000000000000000164e-05,1.000000000000000082e-05,2.999999999999999737e-05,9.000000000000000567e-05,-1.000000000000000082e-05,-2.999999999999999737e-05,-2.000000000000000164e-05,3.000000000000000000e+00,1.700000000000000000e+01
4.631400000000000000e+04,0.000000000000000000e+00,2.000000000000000164e-05,1.000000000000000082e-05,2.999999999999999737e-05,9.000000000000000567e-05,-1.000000000000000082e-05,-2.999999999999999737e-05,-2.000000000000000164e-05,3.000000000000000000e+00,1.700000000000000000e+01
4.631500000000000000e+04,0.000000000000000000e+00,2.000000000000000164e-05,1.000000000000000082e-05,2.999999999999999737e-05,9.000000000000000567e-05,-1.000000000000000082e-05,-2.999999999999999737e-05,-2.000000000000000164e-05,3.000000000000000000e+00,1.700000000000000000e+01
4.631600000000000000e+04,0.000000000000000000e+00,2.000000000000000164e-05,1.000000000000000082e-05,2.999999999999999737e-05,9.000000000000000567e-05,-1.000000000000000082e-05,-2.999999999999999737e-05,-2.000000000000000164e-05,3.000000000000000000e+00,1.700000000000000000e+01
4.631700000000000000e+04,0.000000000000000000e+00,2.000000000000000164e-05,1.000000000000000082e-05,2.999999999999999737e-05,9.000000000000000567e-05,-1.000000000000000082e-05,-2.999999999999999737e-05,-2.000000000000000164e-05,3.000000000000000000e+00,1.700000000000000000e+01
4.631800000000000000e+04,0.000000000000000000e+00,2.000000000000000164e-05,1.000000000000000082e-05,2.999999999999999737e-05,9.000000000000000567e-05,-1.000000000000000082e-05,-2.999999999999999737e-05,-2.000000000000000164e-05,3.000000000000000000e+00,1.700000000000000000e+01
4.631900000000000000e+04,0.000000000000000000e+00,2.000000000000000164e-05,1.000000000000000082e-05,2.999999999999999737e-05,9.000000000000000567e-05,-1.000000000000000082e-05,-2.999999999999999737e-05,-2.000000000000000164e-05,3.000000000000000000e+00,1.700000000000000000e+01
4.632000000000000000e+04,2.000000000000000164e-05,1.000000000000000082e-05,-2.999999999999999737e-05,-2.000000000000000164e-05,-6.999999999999999387e-05,-4.000000000000000327e-05,-4.000000000000000327e-05,0.000000000000000000e+00,3.000000000000000000e+00,1.700000000000000000e+01
4.632100000000000000e+04,2.000000000000000164e-05,1.000000000000000082e-05,-2.999999999999999737e-05,-2.000000000000000164e-05,-6.999999999999999387e-05,-4.000000000000000327e-05,-4.000000000000000327e-05,0.000000000000000000e+00,3.000000000000000000e+00,1.700000000000000000e+01
4.632200000000000000e+04,2.000000000000000164e-05,1.000000000000000082e-05,-2.999999999999999737e-05,-2.000000000000000164e-05,-6.999999999999999387e-05,-4.000000000000000327e-05,-4.000000000000000327e-05,0.000000000000000000e+00,3.000000000000000000e+00,1.700000000000000000e+01
4.632300000000000000e+04,2.000000000000000164e-05,1.000000000000000082e-05,-2.999999999999999737e-05,-2.000000000000000164e-05,-6.999999999999999387e-05,-4.000000000000000327e-05,-4.000000000000000327e-05,0.000000000000000000e+00,3.000000000000000000e+00,1.700000000000000000e+01
4.632400000000000000e+04,2.000000000000000164e-05,1.000000000000000082e-05,-2.999999999999999737e-05,-2.000000000000000164e-05,-6.999999999999999387e-05,-4.000000000000000327e-05,-4.000000000000000327e-05,0.000000000000000000e+00,3.000000000000000000e+00,1.700000000000000000e+01
4.632500000000000000e+04,2.000000000000000164e-05,1.000000000000000082e-05,-2.999999999999999737e-05,-2.000000000000000164e-05,-6.999999999999999387e-05,-4.000000000000000327e-05,-4.000000000000000327e-05,0.000000000000000000e+00,3.000000000000000000e+00,1.700000000000000000e+01
4.632600000000000000e+04,2.000000000000000164e-05,1.000000000000000082e-05,-2.999999999999999737e-05,-2.000000000000000164e-05,-6.999999999999999387e-05,-4.000000000000000327e-05,-4.000000000000000327e-05,0.000000000000000000e+00,3.000000000000000000e+00,1.700000000000000000e+01
4.632700000000000000e+04,2.000000000000000164e-05,1.000000000000000082e-05,-2.999999999999999737e-05,-2.000000000000000164e-05,-6.999999999999999387e-05,-4.000000000000000327e-05,-4.000000000000000327e-05,0.000000000000000000e+00,3.000000000000000000e+00,1.700000000000000000e+01
4.632800000000000000e+04,2.000000000000000164e-05,1.000000000000000082e-05,-2.999999999999999737e-05,-2.000000000000000164e-05,-6.999999999999999387e-05,-4.000000000000000327e-05,-4.000000000000000327e-05,0.000000000000000000e+00,3.000000000000000000e+00,1.700000000000000000e+01
4.632900000000000000e+04,2.000000000000000164e-05,1.000000000000000082e-05,-2.999999999999999737e-05,-2.000000000000000164e-05,-6.999999999999999387e-05,-4.000000000000000327e-05,-4.000000000000000327e-05,0.000000000000000000e+00,3.000000000000000000e+00,1.700000000000000000e+01
4.633000000000000000e+04,2.000000000000000164e-05,1.000000000000000082e-05,-2.999999999999999737e-05,-2.000000000000000164e-05,-6.999999999999999387e-05,-4.000000000000000327e-05,-4.000000000000000327e-05,0.000000000000000000e+00,3.000000000000000000e+00,1.700000000000000000e+01
4.633100000000000000e+04,2.000000000000000164e-05,1.000000000000000082e-05,-2.999999999999999737e-05,-2.000000000000000164e-05,-6.999999999999999387e-05,-4.000000000000000327e-05,-4.000000000000000327e-05,0.000000000000000000e+00,3.000000000000000000e+00,1.700000000000000000e+01
4.633200000000000000e+04,2.000000000000000164e-05,1.000000000000000082e-05,-2.999999999999999737e-05,-2.000000000000000164e-05,-6.999999999999999387e-05,-4.000000000000000327e-05,-4.000000000000000327e-05,0.000000000000000000e+00,3.000000000000000000e+00,1.700000000000000000e+01
4.633300000000000000e+04,2.000000000000000164e-05,1.000000000000000082e-05,-2.999999999999999737e-05,-2.000000000000000164e-05,-6.999999999999999387e-05,-4.000000000000000327e-05,-4.000000000000000327e-05,0.000000000000000000e+00,3.000000000000000000e+00,1.700000000000000000e+01
4.633400000000000000e+04,2.000000000000000164e-05,1.000000000000000082e-05,-2.999999999999999737e-05,-2.000000000000000164e-05,-6.999999999999999387e-05,-4.000000000000000327e-05,-4.000000000000000327e-05,0.000000000000000000e+00,3.000000000000000000e+00,1.700000000000000000e+01
4.633500000000000000e+04,2.000000000000000164e-05,1.000000000000000082e-05,-2.999999999999999737e-05,-2.000000000000000164e-05,-6.999999999999999387e-05,-4.000000000000000327e-05,-4.000000000000000327e-05,0.000000000000000000e+00,3.000000000000000000e+00,1.700000000000000000e+01
4.633600000000000000e+04,8.000000000000000654e-05,1.000000000000000048e-04,-4.000000000000000327e-05,-2.000000000000000164e-05,-6.999999999999999387e-05,4.000000000000000327e-05,5.000000000000000240e-05,0.000000000000000000e+00,3.000000000000000000e+00,1.700000000000000000e+01
4.633900000000000000e+04,2.000000000000000164e-05,0.000000000000000000e+00,1.000000000000000082e-05,0.000000000000000000e+00,-2.000000000000000164e-05,-1.000000000000000082e-05,-1.000000000000000082e-05,-2.999999999999999737e-05,3.000000000000000000e+00,1.700000000000000000e+01
4.634000000000000000e+04,2.000000000000000164e-05,0.000000000000000000e+00,1.000000000000000082e-05,0.000000000000000000e+00,-2.000000000000000164e-05,-1.000000000000000082e-05,-1.000000000000000082e-05,-2.999999999999999737e-05,3.000000000000000000e+00,1.700000000000000000e+01
4.634100000000000000e+04,2.000000000000000164e-05,0.000000000000000000e+00,1.000000000000000082e-05,0.000000000000000000e+00,-2.000000000000000164e-05,-1.000000000000000082e-05,-1.000000000000000082e-05,-2.999999999999999737e-05,3.000000000000000000e+00,1.700000000000000000e+01
4.634200000000000000e+04,2.000000000000000164e-05,0.000000000000000000e+00,1.000000000000000082e-05,0.000000000000000000e+00,-2.000000000000000164e-05,-1.000000000000000082e-05,-1.000000000000000082e-05,-2.999999999999999737e-05,3.000000000000000000e+00,1.700000000000000000e+01
4.634300000000000000e+04,2.000000000000000164e-05,0.000000000000000000e+00,1.000000000000000082e-05,0.000000000000000000e+00,-2.000000000000000164e-05,-1.000000000000000082e-05,-1.000000000000000082e-05,-2.999999999999999737e-05,3.000000000000000000e+00,1.700000000000000000e+01
4.634400000000000000e+04,2.000000000000000164e-05,0.000000000000000000e+00,1.000000000000000082e-05,0.000000000000000000e+00,-2.000000000000000164e-05,-1.000000000000000082e-05,-1.000000000000000082e-05,-2.999999999999999737e-05,3.000000000000000000e+00,1.700000000000000000e+01
4.634500000000000000e+04,2.000000000000000164e-05,0.000000000000000000e+00,1.000000000000000082e-05,0.000000000000000000e+00,-2.000000000000000164e-05,-1.000000000000000082e-05,-1.000000000000000082e-05,-2.999999999999999737e-05,3.000000000000000000e+00,1.700000000000000000e+01
4.634600000000000000e+04,2.000000000000000164e-05,0.000000000000000000e+00,1.000000000000000082e-05,0.000000000000000000e+00,-2.000000000000000164e-05,-1.000000000000000082e-05,-1.000000000000000082e-05,-2.999999999999999737e-05,3.000000000000000000e+00,1.700000000000000000e+01
4.634700000000000000e+04,2.000000000000000164e-05,0.000000000000000000e+00,1.000000000000000082e-05,0.000000000000000000e+00,-2.000000000000000164e-05,-1.000000000000000082e-05,-1.000000000000000082e-05,-2.999999999999999737e-05,3.000000000000000000e+00,1.700000000000000000e+01
4.634800000000000000e+04,2.000000000000000164e-05,0.000000000000000000e+00,1.000000000000000082e-05,0.000000000000000000e+00,-2.000000000000000164e-05,-1.000000000000000082e-05,-1.000000000000000082e-05,-2.999999999999999737e-05,3.000000000000000000e+00,1.700000000000000000e+01
4.634900000000000000e+04,2.000000000000000164e-05,0.000000000000000000e+00,1.000000000000000082e-05,0.000000000000000000e+00,-2.000000000000000164e-05,-1.000000000000000082e-05,-1.000000000000000082e-05,-2.999999999999999737e-05,3.000000000000000000e+00,1.700000000000000000e+01
4.635000000000000000e+04,2.000000000000000164e-05,0.000000000000000000e+00,1.000000000000000082e-05,0.000000000000000000e+00,-2.000000000000000164e-05,-1.000000000000000082e-05,-1.000000000000000082e-05,-2.999999999999999737e-05,3.000000000000000000e+00,1.700000000000000000e+01
4.635100000000000000e+04,2.000000000000000164e-05,0.000000000000000000e+00,1.000000000000000082e-05,0.000000000000000000e+00,-2.000000000000000164e-05,-1.000000000000000082e-05,-1.000000000000000082e-05,-2.999999999999999737e-05,3.000000000000000000e+00,1.700000000000000000e+01
4.635200000000000000e+04,2.000000000000000164e-05,0.000000000000000000e+00,1.000000000000000082e-05,0.000000000000000000e+00,-2.000000000000000164e-05,-1.000000000000000082e-05,-1.000000000000000082e-05,-2.999999999999999737e-05,3.000000000000000000e+00,1.700000000000000000e+01
4.635300000000000000e+04,2.000000000000000164e-05,0.000000000000000000e+00,1.000000000000000082e-05,0.000000000000000000e+00,-2.000000000000000164e-05,-1.000000000000000082e-05,-1.000000000000000082e-05,-2.999999999999999737e-05,3.000000000000000000e+00,1.700000000000000000e+01
4.635400000000000000e+04,2.000000000000000164e-05,0.000000000000000000e+00,1.000000000000000082e-05,0.000000000000000000e+00,-2.000000000000000164e-05,-1.000000000000000082e-05,-1.000000000000000082e-05,-2.999999999999999737e-05,3.000000000000000000e+00,1.700000000000000000e+01
4.635500000000000000e+04,2.000000000000000164e-05,0.000000000000000000e+00,1.000000000000000082e-05,0.000000000000000000e+00,-2.000000000000000164e-05,-1.000000000000000082e-05,-1.000000000000000082e-05,-2.999999999999999737e-05,3.000000000000000000e+00,1.700000000000000000e+01
4.635600000000000000e+04,2.000000000000000164e-05,0.000000000000000000e+00,1.000000000000000082e-05,0.000000000000000000e+00,-2.000000000000000164e-05,-1.000000000000000082e-05,-1.000000000000000082e-05,-2.999999999999999737e-05,3.000000000000000000e+00,1.700000000000000000e+01
4.635700000000000000e+04,2.000000000000000164e-05,0.000000000000000000e+00,1.000000000000000082e-05,0.000000000000000000e+00,-2.000000000000000164e-05,-1.000000000000000082e-05,-1.000000000000000082e-05,-2.999999999999999737e-05,3.000000000000000000e+00,1.700000000000000000e+01
4.635800000000000000e+04,2.000000000000000164e-05,0.000000000000000000e+00,1.000000000000000082e-05,0.000000000000000000e+00,-2.000000000000000164e-05,-1.000000000000000082e-05,-1.000000000000000082e-05,-2.999999999999999737e-05,3.000000000000000000e+00,1.700000000000000000e+01
4.635900000000000000e+04,-2.999999999999999737e-05,-5.000000000000000240e-05,-1.000000000000000082e-05,-2.999999999999999737e-05,5.999999999999999474e-05,2.999999999999999737e-05,0.000000000000000000e+00,2.999999999999999737e-05,3.000000000000000000e+00,1.700000000000000000e+01
4.636000000000000000e+04,-2.999999999999999737e-05,-5.000000000000000240e-05,-1.000000000000000082e-05,-2.999999999999999737e-05,5.999999999999999474e-05,2.999999999999999737e-05,0.000000000000000000e+00,2.999999999999999737e-05,3.000000000000000000e+00,1.700000000000000000e+01
4.636100000000000000e+04,2.999999999999999737e-05,4.000000000000000327e-05,1.000000000000000082e-05,5.999999999999999474e-05,1.699999999999999851e-04,1.499999999999999869e-04,5.000000000000000240e-05,-5.999999999999999474e-05,3.000000000000000000e+00,1.700000000000000000e+01
4.636200000000000000e+04,2.999999999999999737e-05,4.000000000000000327e-05,1.000000000000000082e-05,5.999999999999999474e-05,1.699999999999999851e-04,1.499999999999999869e-04,5.000000000000000240e-05,-5.999999999999999474e-05,3.000000000000000000e+00,1.700000000000000000e+01
4.636300000000000000e+04,2.999999999999999737e-05,4.000000000000000327e-05,1.000000000000000082e-05,5.999999999999999474e-05,1.699999999999999851e-04,1.499999999999999869e-04,5.000000000000000240e-05,-5.999999999999999474e-05,3.000000000000000000e+00,1.700000000000000000e+01
4.636400000000000000e+04,2.999999999999999737e-05,4.000000000000000327e-05,1.000000000000000082e-05,5.999999999999999474e-05,1.699999999999999851e-04,1.499999999999999869e-04,5.000000000000000240e-05,-5.999999999999999474e-05,3.000000000000000000e+00,1.700000000000000000e+01
4.636500000000000000e+04,2.999999999999999737e-05,4.000000000000000327e-05,1.000000000000000082e-05,5.999999999999999474e-05,1.699999999999999851e-04,1.499999999999999869e-04,5.000000000000000240e-05,-5.999999999999999474e-05,3.000000000000000000e+00,1.700000000000000000e+01
4.636600000000000000e+04,2.999999999999999737e-05,4.000000000000000327e-05,1.000000000000000082e-05,5.999999999999999474e-05,1.699999999999999851e-04,1.499999999999999869e-04,5.000000000000000240e-05,-5.999999999999999474e-05,3.000000000000000000e+00,1.700000000000000000e+01
4.636700000000000000e+04,2.999999999999999737e-05,4.000000000000000327e-05,1.000000000000000082e-05,5.999999999999999474e-05,1.699999999999999851e-04,1.499999999999999869e-04,5.000000000000000240e-05,-5.999999999999999474e-05,3.000000000000000000e+00,1.700000000000000000e+01
4.636800000000000000e+04,2.999999999999999737e-05,4.000000000000000327e-05,1.000000000000000082e-05,5.999999999999999474e-05,1.699999999999999851e-04,1.499999999999999869e-04,5.000000000000000240e-05,-5.999999999999999474e-05,3.000000000000000000e+00,1.700000000000000000e+01
4.636900000000000000e+04,2.999999999999999737e-05,4.000000000000000327e-05,1.000000000000000082e-05,5.999999999999999474e-05,1.699999999999999851e-04,1.499999999999999869e-04,5.000000000000000240e-05,-5.999999999999999474e-05,3.000000000000000000e+00,1.700000000000000000e+01
4.637000000000000000e+04,2.999999999999999737e-05,4.000000000000000327e-05,1.000000000000000082e-05,5.999999999999999474e-05,1.699999999999999851e-04,1.499999999999999869e-04,5.000000000000000240e-05,-5.999999999999999474e-05,3.000000000000000000e+00,1.700000000000000000e+01
4.637100000000000000e+04,2.999999999999999737e-05,4.000000000000000327e-05,1.000000000000000082e-05,5.999999999999999474e-05,1.699999999999999851e-04,1.499999999999999869e-04,5.000000000000000240e-05,-5.999999999999999474e-05,3.000000000000000000e+00,1.700000000000000000e+01
4.637200000000000000e+04,2.999999999999999737e-05,4.000000000000000327e-05,1.000000000000000082e-05,5.999999999999999474e-05,1.699999999999999851e-04,1.499999999999999869e-04,5.000000000000000240e-05,-5.999999999999999474e-05,3.000000000000000000e+00,1.700000000000000000e+01
4.637300000000000000e+04,4.000000000000000327e-05,-2.000000000000000164e-05,-2.000000000000000164e-05,-4.000000000000000327e-05,-9.000000000000000567e-05,-4.000000000000000327e-05,-4.000000000000000327e-05,-5.000000000000000240e-05,3.000000000000000000e+00,1.700000000000000000e+01
4.637400000000000000e+04,4.000000000000000327e-05,-2.000000000000000164e-05,-2.000000000000000164e-05,-4.000000000000000327e-05,-9.000000000000000567e-05,-4.000000000000000327e-05,-4.000000000000000327e-05,-5.000000000000000240e-05,3.000000000000000000e+00,1.700000000000000000e+01
4.637500000000000000e+04,4.000000000000000327e-05,-2.000000000000000164e-05,-2.000000000000000164e-05,-4.000000000000000327e-05,-9.000000000000000567e-05,-4.000000000000000327e-05,-4.000000000000000327e-05,-5.000000000000000240e-05,3.000000000000000000e+00,1.700000000000000000e+01
4.637600000000000000e+04,4.000000000000000327e-05,-2.000000000000000164e-05,-2.000000000000000164e-05,-4.000000000000000327e-05,-9.000000000000000567e-05,-4.000000000000000327e-05,-4.000000000000000327e-05,-5.000000000000000240e-05,3.000000000000000000e+00,1.700000000000000000e+01
4.637700000000000000e+04,4.000000000000000327e-05,-2.000000000000000164e-05,-2.000000000000000164e-05,-4.000000000000000327e-05,-9.000000000000000567e-05,-4.000000000000000327e-05,-4.000000000000000327e-05,-5.000000000000000240e-05,3.000000000000000000e+00,1.700000000000000000e+01
4.637800000000000000e+04,4.000000000000000327e-05,-2.000000000000000164e-05,-2.000000000000000164e-05,-4.000000000000000327e-05,-9.000000000000000567e-05,-4.000000000000000327e-05,-4.000000000000000327e-05,-5.000000000000000240e-05,3.000000000000000000e+00,1.700000000000000000e+01
4.637900000000000000e+04,4.000000000000000327e-05,-2.000000000000000164e-05,-2.000000000000000164e-05,-4.000000000000000327e-05,-9.000000000000000567e-05,-4.000000000000000327e-05,-4.000000000000000327e-05,-5.000000000000000240e-05,3.000000000000000000e+00,1.700000000000000000e+01
4.638000000000000000e+04,4.000000000000000327e-05,-2.000000000000000164e-05,-2.000000000000000164e-05,-4.000000000000000327e-05,-9.000000000000000567e-05,-4.000000000000000327e-05,-4.000000000000000327e-05,-5.000000000000000240e-05,3.000000000000000000e+00,1.700000000000000000e+01
4.638100000000000000e+04,4.000000000000000327e-05,-2.000000000000000164e-05,-2.000000000000000164e-05,-4.000000000000000327e-05,-9.000000000000000567e-05,-4.000000000000000327e-05,-4.000000000000000327e-05,-5.000000000000000240e-05,3.000000000000000000e+00,1.700000000000000000e+01
4.638200000000000000e+04,4.000000000000000327e-05,-2.000000000000000164e-05,-2.000000000000000164e-05,-4.000000000000000327e-05,-9.000000000000000567e-05,-4.000000000000000327e-05,-4.000000000000000327e-05,-5.000000000000000240e-05,3.000000000000000000e+00,1.700000000000000000e+01
4.638300000000000000e+04,4.000000000000000327e-05,-2.000000000000000164e-05,-2.000000000000000164e-05,-4.000000000000000327e-05,-9.000000000000000567e-05,-4.000000000000000327e-05,-4.000000000000000327e-05,-5.000000000000000240e-05,3.000000000000000000e+00,1.700000000000000000e+01
4.638400000000000000e+04,4.000000000000000327e-05,-2.000000000000000164e-05,-2.000000000000000164e-05,-4.000000000000000327e-05,-9.000000000000000567e-05,-4.000000000000000327e-05,-4.000000000000000327e-05,-5.000000000000000240e-05,3.000000000000000000e+00,1.700000000000000000e+01
4.638500000000000000e+04,4.000000000000000327e-05,-2.000000000000000164e-05,-2.000000000000000164e-05,-4.000000000000000327e-05,-9.000000000000000567e-05,-4.000000000000000327e-05,-4.000000000000000327e-05,-5.000000000000000240e-05,3.000000000000000000e+00,1.700000000000000000e+01
4.638600000000000000e+04,4.000000000000000327e-05,-2.000000000000000164e-05,-2.000000000000000164e-05,-4.000000000000000327e-05,-9.000000000000000567e-05,-4.000000000000000327e-05,-4.000000000000000327e-05,-5.000000000000000240e-05,3.000000000000000000e+00,1.700000000000000000e+01
4.638900000000000000e+04,4.000000000000000327e-05,-2.000000000000000164e-05,-2.000000000000000164e-05,-4.000000000000000327e-05,-9.000000000000000567e-05,-4.000000000000000327e-05,-4.000000000000000327e-05,-5.000000000000000240e-05,3.000000000000000000e+00,1.700000000000000000e+01
4.639000000000000000e+04,4.000000000000000327e-05,5.999999999999999474e-05,2.000000000000000164e-05,-2.999999999999999737e-05,-8.000000000000000654e-05,-1.000000000000000048e-04,-5.000000000000000240e-05,-1.000000000000000082e-05,3.000000000000000000e+00,1.700000000000000000e+01
4.639100000000000000e+04,4.000000000000000327e-05,5.999999999999999474e-05,2.000000000000000164e-05,-2.999999999999999737e-05,-8.000000000000000654e-05,-1.000000000000000048e-04,-5.000000000000000240e-05,-1.000000000000000082e-05,3.000000000000000000e+00,1.700000000000000000e+01
4.639200000000000000e+04,4.000000000000000327e-05,5.999999999999999474e-05,2.000000000000000164e-05,-2.999999999999999737e-05,-8.000000000000000654e-05,-1.000000000000000048e-04,-5.000000000000000240e-05,-1.000000000000000082e-05,3.000000000000000000e+00,1.700000000000000000e+01
4.639300000000000000e+04,4.000000000000000327e-05,5.999999999999999474e-05,2.000000000000000164e-05,-2.999999999999999737e-05,-8.000000000000000654e-05,-1.000000000000000048e-04,-5.000000000000000240e-05,-1.000000000000000082e-05,3.000000000000000000e+00,1.700000000000000000e+01
4.639400000000000000e+04,4.000000000000000327e-05,5.999999999999999474e-05,2.000000000000000164e-05,-2.999999999999999737e-05,-8.000000000000000654e-05,-1.000000000000000048e-04,-5.000000000000000240e-05,-1.000000000000000082e-05,3.000000000000000000e+00,1.700000000000000000e+01
4.639500000000000000e+04,4.000000000000000327e-05,5.999999999999999474e-05,2.000000000000000164e-05,-2.999999999999999737e-05,-8.000000000000000654e-05,-1.000000000000000048e-04,-5.000000000000000240e-05,-1.000000000000000082e-05,3.000000000000000000e+00,1.700000000000000000e+01
4.639600000000000000e+04,4.000000000000000327e-05,5.999999999999999474e-05,2.000000000000000164e-05,-2.999999999999999737e-05,-8.000000000000000654e-05,-1.000000000000000048e-04,-5.000000000000000240e-05,-1.000000000000000082e-05,3.000000000000000000e+00,1.700000000000000000e+01
4.639700000000000000e+04,1.000000000000000082e-05,1.000000000000000082e-05,-2.000000000000000164e-05,-1.000000000000000082e-05,5.999999999999999474e-05,-1.000000000000000082e-05,1.000000000000000082e-05,1.000000000000000082e-05,3.000000000000000000e+00,1.700000000000000000e+01
4.639800000000000000e+04,-1.000000000000000048e-04,-1.199999999999999895e-04,-2.000000000000000164e-05,1.000000000000000082e-05,-1.000000000000000082e-05,1.000000000000000048e-04,2.000000000000000164e-05,-5.999999999999999474e-05,3.000000000000000000e+00,1.700000000000000000e+01
4.639900000000000000e+04,-2.000000000000000164e-05,0.000000000000000000e+00,-1.000000000000000082e-05,0.000000000000000000e+00,2.000000000000000164e-05,-5.000000000000000240e-05,-1.000000000000000082e-05,2.999999999999999737e-05,3.000000000000000000e+00,1.700000000000000000e+01
4.640000000000000000e+04,-2.000000000000000164e-05,0.000000000000000000e+00,-1.000000000000000082e-05,0.000000000000000000e+00,2.000000000000000164e-05,-5.000000000000000240e-05,-1.000000000000000082e-05,2.999999999999999737e-05,3.000000000000000000e+00,1.700000000000000000e+01
4.640100000000000000e+04,-2.000000000000000164e-05,0.000000000000000000e+00,-1.000000000000000082e-05,0.000000000000000000e+00,2.000000000000000164e-05,-5.000000000000000240e-05,-1.000000000000000082e-05,2.999999999999999737e-05,3.000000000000000000e+00,1.700000000000000000e+01
4.640200000000000000e+04,-2.000000000000000164e-05,0.000000000000000000e+00,-1.000000000000000082e-05,0.000000000000000000e+00,2.000000000000000164e-05,-5.000000000000000240e-05,-1.000000000000000082e-05,2.999999999999999737e-05,3.000000000000000000e+00,1.700000000000000000e+01
4.640300000000000000e+04,-2.000000000000000164e-05,0.000000000000000000e+00,-1.000000000000000082e-05,0.000000000000000000e+00,2.000000000000000164e-05,-5.000000000000000240e-05,-1.000000000000000082e-05,2.999999999999999737e-05,3.000000000000000000e+00,1.700000000000000000e+01
4.640400000000000000e+04,-2.000000000000000164e-05,0.000000000000000000e+00,-1.000000000000000082e-05,0.000000000000000000e+00,2.000000000000000164e-05,-5.000000000000000240e-05,-1.000000000000000082e-05,2.999999999999999737e-05,3.000000000000000000e+00,1.700000000000000000e+01
4.640500000000000000e+04,-2.000000000000000164e-05,0.000000000000000000e+00,-1.000000000000000082e-05,0.000000000000000000e+00,2.000000000000000164e-05,-5.000000000000000240e-05,-1.000000000000000082e-05,2.999999999999999737e-05,3.000000000000000000e+00,1.700000000000000000e+01
4.640600000000000000e+04,-2.000000000000000164e-05,0.000000000000000000e+00,-1.000000000000000082e-05,0.000000000000000000e+00,2.000000000000000164e-05,-5.000000000000000240e-05,-1.000000000000000082e-05,2.999999999999999737e-05,3.000000000000000000e+00,1.700000000000000000e+01
4.640700000000000000e+04,-2.000000000000000164e-05,0.000000000000000000e+00,-1.000000000000000082e-05,0.000000000000000000e+00,2.000000000000000164e-05,-5.000000000000000240e-05,-1.000000000000000082e-05,2.999999999999999737e-05,3.000000000000000000e+00,1.700000000000000000e+01
4.640800000000000000e+04,-2.000000000000000164e-05,0.000000000000000000e+00,-1.000000000000000082e-05,0.000000000000000000e+00,2.000000000000000164e-05,-5.000000000000000240e-05,-1.000000000000000082e-05,2.999999999999999737e-05,3.000000000000000000e+00,1.700000000000000000e+01
4.640900000000000000e+04,-2.000000000000000164e-05,0.000000000000000000e+00,-1.000000000000000082e-05,0.000000000000000000e+00,2.000000000000000164e-05,-5.000000000000000240e-05,-1.000000000000000082e-05,2.999999999999999737e-05,3.000000000000000000e+00,1.700000000000000000e+01
4.641000000000000000e+04,-2.000000000000000164e-05,0.000000000000000000e+00,-1.000000000000000082e-05,0.000000000000000000e+00,2.000000000000000164e-05,-5.000000000000000240e-05,-1.000000000000000082e-05,2.999999999999999737e-05,3.000000000000000000e+00,1.700000000000000000e+01
4.641100000000000000e+04,-2.000000000000000164e-05,0.000000000000000000e+00,-1.000000000000000082e-05,0.000000000000000000e+00,2.000000000000000164e-05,-5.000000000000000240e-05,-1.000000000000000082e-05,2.999999999999999737e-05,3.000000000000000000e+00,1.700000000000000000e+01
4.641200000000000000e+04,-2.000000000000000164e-05,0.000000000000000000e+00,-1.000000000000000082e-05,0.000000000000000000e+00,2.000000000000000164e-05,-5.000000000000000240e-05,-1.000000000000000082e-05,2.999999999999999737e-05,3.000000000000000000e+00,1.700000000000000000e+01
4.641300000000000000e+04,-2.000000000000000164e-05,0.000000000000000000e+00,-1.000000000000000082e-05,0.000000000000000000e+00,2.000000000000000164e-05,-5.000000000000000240e-05,-1.000000000000000082e-05,2.999999999999999737e-05,3.000000000000000000e+00,1.700000000000000000e+01
4.641400000000000000e+04,-2.000000000000000164e-05,0.000000000000000000e+00,-1.000000000000000082e-05,0.000000000000000000e+00,2.000000000000000164e-05,-5.000000000000000240e-05,-1.000000000000000082e-05,2.999999999999999737e-05,3.000000000000000000e+00,1.700000000000000000e+01
4.641500000000000000e+04,-2.000000000000000164e-05,0.000000000000000000e+00,-1.000000000000000082e-05,0.000000000000000000e+00,2.000000000000000164e-05,-5.000000000000000240e-05,-1.000000000000000082e-05,2.999999999999999737e-05,3.000000000000000000e+00,1.700000000000000000e+01
4.641600000000000000e+04,-2.000000000000000164e-05,0.000000000000000000e+00,-1.000000000000000082e-05,0.000000000000000000e+00,2.000000000000000164e-05,-5.000000000000000240e-05,-1.000000000000000082e-05,2.999999999999999737e-05,3.000000000000000000e+00,1.700000000000000000e+01
4.641700000000000000e+04,-2.000000000000000164e-05,0.000000000000000000e+00,-1.000000000000000082e-05,0.000000000000000000e+00,2.000000000000000164e-05,-5.000000000000000240e-05,-1.000000000000000082e-05,2.999999999999999737e-05,3.000000000000000000e+00,1.700000000000000000e+01
4.641800000000000000e+04,-2.000000000000000164e-05,0.000000000000000000e+00,-1.000000000000000082e-05,0.000000000000000000e+00,2.000000000000000164e-05,-5.000000000000000240e-05,-1.000000000000000082e-05,2.999999999999999737e-05,3.000000000000000000e+00,1.700000000000000000e+01
4.641900000000000000e+04,-2.000000000000000164e-05,2.999999999999999737e-05,1.000000000000000082e-05,-2.999999999999999737e-05,-2.000000000000000164e-05,-5.000000000000000240e-05,-5.000000000000000240e-05,0.000000000000000000e+00,3.000000000000000000e+00,1.700000000000000000e+01
4.642000000000000000e+04,-2.000000000000000164e-05,2.999999999999999737e-05,1.000000000000000082e-05,-2.999999999999999737e-05,-2.000000000000000164e-05,-5.000000000000000240e-05,-5.000000000000000240e-05,0.000000000000000000e+00,3.000000000000000000e+00,1.700000000000000000e+01
4.642100000000000000e+04,-2.999999999999999737e-05,-5.000000000000000240e-05,-1.000000000000000082e-05,-2.999999999999999737e-05,-5.000000000000000240e-05,0.000000000000000000e+00,-2.000000000000000164e-05,-2.999999999999999737e-05,3.000000000000000000e+00,1.700000000000000000e+01
4.642200000000000000e+04,-2.999999999999999737e-05,-5.000000000000000240e-05,-1.000000000000000082e-05,-2.999999999999999737e-05,-5.000000000000000240e-05,0.000000000000000000e+00,-2.000000000000000164e-05,-2.999999999999999737e-05,3.000000000000000000e+00,1.700000000000000000e+01
4.642300000000000000e+04,-2.999999999999999737e-05,-5.000000000000000240e-05,-1.000000000000000082e-05,-2.999999999999999737e-05,-5.000000000000000240e-05,0.000000000000000000e+00,-2.000000000000000164e-05,-2.999999999999999737e-05,3.000000000000000000e+00,1.700000000000000000e+01
4.642400000000000000e+04,-2.999999999999999737e-05,-5.000000000000000240e-05,-1.000000000000000082e-05,-2.999999999999999737e-05,-5.000000000000000240e-05,0.000000000000000000e+00,-2.000000000000000164e-05,-2.999999999999999737e-05,3.000000000000000000e+00,1.700000000000000000e+01
4.642500000000000000e+04,-2.999999999999999737e-05,-5.000000000000000240e-05,-1.000000000000000082e-05,-2.999999999999999737e-05,-5.000000000000000240e-05,0.000000000000000000e+00,-2.000000000000000164e-05,-2.999999999999999737e-05,3.000000000000000000e+00,1.700000000000000000e+01
4.642600000000000000e+04,-2.999999999999999737e-05,-5.000000000000000240e-05,-1.000000000000000082e-05,-2.999999999999999737e-05,-5.000000000000000240e-05,0.000000000000000000e+00,-2.000000000000000164e-05,-2.999999999999999737e-05,3.000000000000000000e+00,1.700000000000000000e+01
4.642700000000000000e+04,-2.999999999999999737e-05,-5.000000000000000240e-05,-1.000000000000000082e-05,-2.999999999999999737e-05,-5.000000000000000240e-05,0.000000000000000000e+00,-2.000000000000000164e-05,-2.999999999999999737e-05,3.000000000000000000e+00,1.700000000000000000e+01
4.642800000000000000e+04,-2.999999999999999737e-05,-5.000000000000000240e-05,-1.000000000000000082e-05,-2.999999999999999737e-05,-5.000000000000000240e-05,0.000000000000000000e+00,-2.000000000000000164e-05,-2.999999999999999737e-05,3.000000000000000000e+00,1.700000000000000000e+01
4.642900000000000000e+04,-2.999999999999999737e-05,-5.000000000000000240e-05,-1.000000000000000082e-05,-2.999999999999999737e-05,-5.000000000000000240e-05,0.000000000000000000e+00,-2.000000000000000164e-05,-2.999999999999999737e-05,3.000000000000000000e+00,1.700000000000000000e+01
4.643000000000000000e+04,-2.999999999999999737e-05,-5.000000000000000240e-05,-1.000000000000000082e-05,-2.999999999999999737e-05,-5.000000000000000240e-05,0.000000000000000000e+00,-2.000000000000000164e-05,-2.999999999999999737e-05,3.000000000000000000e+00,1.700000000000000000e+01
4.643100000000000000e+04,-2.999999999999999737e-05,-5.000000000000000240e-05,-1.000000000000000082e-05,-2.999999999999999737e-05,-5.000000000000000240e-05,0.000000000000000000e+00,-2.000000000000000164e-05,-2.999999999999999737e-05,3.000000000000000000e+00,1.700000000000000000e+01
4.643200000000000000e+04,-2.999999999999999737e-05,-5.000000000000000240e-05,-1.000000000000000082e-05,-2.999999999999999737e-05,-5.000000000000000240e-05,0.000000000000000000e+00,-2.000000000000000164e-05,-2.999999999999999737e-05,3.000000000000000000e+00,1.700000000000000000e+01
4.643300000000000000e+04,1.000000000000000048e-04,9.000000000000000567e-05,5.999999999999999474e-05,5.000000000000000240e-05,-5.999999999999999474e-05,1.000000000000000082e-05,0.000000000000000000e+00,0.000000000000000000e+00,3.000000000000000000e+00,1.700000000000000000e+01
4.643400000000000000e+04,1.000000000000000048e-04,9.000000000000000567e-05,5.999999999999999474e-05,5.000000000000000240e-05,-5.999999999999999474e-05,1.000000000000000082e-05,0.000000000000000000e+00,0.000000000000000000e+00,3.000000000000000000e+00,1.700000000000000000e+01
4.643500000000000000e+04,1.000000000000000048e-04,9.000000000000000567e-05,5.999999999999999474e-05,5.000000000000000240e-05,-5.999999999999999474e-05,1.000000000000000082e-05,0.000000000000000000e+00,0.000000000000000000e+00,3.000000000000000000e+00,1.700000000000000000e+01
4.643600000000000000e+04,1.000000000000000048e-04,9.000000000000000567e-05,5.999999999999999474e-05,5.000000000000000240e-05,-5.999999999999999474e-05,1.000000000000000082e-05,0.000000000000000000e+00,0.000000000000000000e+00,3.000000000000000000e+00,1.700000000000000000e+01
4.643900000000000000e+04,1.000000000000000048e-04,9.000000000000000567e-05,5.999999999999999474e-05,5.000000000000000240e-05,-5.999999999999999474e-05,1.000000000000000082e-05,0.000000000000000000e+00,0.000000000000000000e+00,3.000000000000000000e+00,1.700000000000000000e+01
4.644000000000000000e+04,1.000000000000000048e-04,9.000000000000000567e-05,5.999999999999999474e-05,5.000000000000000240e-05,-5.999999999999999474e-05,1.000000000000000082e-05,0.000000000000000000e+00,0.000000000000000000e+00,3.000000000000000000e+00,1.700000000000000000e+01
4.644100000000000000e+04,1.000000000000000048e-04,9.000000000000000567e-05,5.999999999999999474e-05,5.000000000000000240e-05,-5.999999999999999474e-05,1.000000000000000082e-05,0.000000000000000000e+00,0.000000000000000000e+00,3.000000000000000000e+00,1.700000000000000000e+01
4.644200000000000000e+04,1.000000000000000048e-04,9.000000000000000567e-05,5.999999999999999474e-05,5.000000000000000240e-05,-5.999999999999999474e-05,1.000000000000000082e-05,0.000000000000000000e+00,0.000000000000000000e+00,3.000000000000000000e+00,1.700000000000000000e+01
4.644300000000000000e+04,1.000000000000000048e-04,9.000000000000000567e-05,5.999999999999999474e-05,5.000000000000000240e-05,-5.999999999999999474e-05,1.000000000000000082e-05,0.000000000000000000e+00,0.000000000000000000e+00,3.000000000000000000e+00,1.700000000000000000e+01
4.644400000000000000e+04,1.000000000000000048e-04,9.000000000000000567e-05,5.999999999999999474e-05,5.000000000000000240e-05,-5.999999999999999474e-05,1.000000000000000082e-05,0.000000000000000000e+00,0.000000000000000000e+00,3.000000000000000000e+00,1.700000000000000000e+01
4.644500000000000000e+04,1.000000000000000048e-04,9.000000000000000567e-05,5.999999999999999474e-05,5.000000000000000240e-05,-5.999999999999999474e-05,1.000000000000000082e-05,0.000000000000000000e+00,0.000000000000000000e+00,3.000000000000000000e+00,1.700000000000000000e+01
4.644600000000000000e+04,1.000000000000000048e-04,9.000000000000000567e-05,5.999999999999999474e-05,5.000000000000000240e-05,-5.999999999999999474e-05,1.000000000000000082e-05,0.000000000000000000e+00,0.000000000000000000e+00,3.000000000000000000e+00,1.700000000000000000e+01
4.644700000000000000e+04,1.000000000000000048e-04,9.000000000000000567e-05,5.999999999999999474e-05,5.000000000000000240e-05,-5.999999999999999474e-05,1.000000000000000082e-05,0.000000000000000000e+00,0.000000000000000000e+00,3.000000000000000000e+00,1.700000000000000000e+01
4.644800000000000000e+04,-1.899999999999999834e-04,-2.299999999999999799e-04,-4.000000000000000327e-05,-2.999999999999999737e-05,2.000000000000000164e-05,1.000000000000000082e-05,0.000000000000000000e+00,-1.000000000000000082e-05,3.000000000000000000e+00,1.700000000000000000e+01
4.644900000000000000e+04,2.000000000000000164e-05,-2.999999999999999737e-05,-1.000000000000000048e-04,-2.999999999999999737e-05,-2.999999999999999737e-05,-1.000000000000000082e-05,0.000000000000000000e+00,1.000000000000000082e-05,3.000000000000000000e+00,1.700000000000000000e+01
4.645000000000000000e+04,2.000000000000000164e-05,-2.999999999999999737e-05,-1.000000000000000048e-04,-2.999999999999999737e-05,-2.999999999999999737e-05,-1.000000000000000082e-05,0.000000000000000000e+00,1.000000000000000082e-05,3.000000000000000000e+00,1.700000000000000000e+01
4.645100000000000000e+04,2.000000000000000164e-05,-2.999999999999999737e-05,-1.000000000000000048e-04,-2.999999999999999737e-05,-2.999999999999999737e-05,-1.000000000000000082e-05,0.000000000000000000e+00,1.000000000000000082e-05,3.000000000000000000e+00,1.700000000000000000e+01
4.645200000000000000e+04,2.000000000000000164e-05,-2.999999999999999737e-05,-1.000000000000000048e-04,-2.999999999999999737e-05,-2.999999999999999737e-05,-1.000000000000000082e-05,0.000000000000000000e+00,1.000000000000000082e-05,3.000000000000000000e+00,1.700000000000000000e+01
4.645300000000000000e+04,2.000000000000000164e-05,-2.999999999999999737e-05,-1.000000000000000048e-04,-2.999999999999999737e-05,-2.999999999999999737e-05,-1.000000000000000082e-05,0.000000000000000000e+00,1.000000000000000082e-05,3.000000000000000000e+00,1.700000000000000000e+01
4.645400000000000000e+04,2.000000000000000164e-05,-2.999999999999999737e-05,-1.000000000000000048e-04,-2.999999999999999737e-05,-2.999999999999999737e-05,-1.000000000000000082e-05,0.000000000000000000e+00,1.000000000000000082e-05,3.000000000000000000e+00,1.700000000000000000e+01
4.645500000000000000e+04,2.000000000000000164e-05,-2.999999999999999737e-05,-1.000000000000000048e-04,-2.999999999999999737e-05,-2.999999999999999737e-05,-1.000000000000000082e-05,0.000000000000000000e+00,1.000000000000000082e-05,3.000000000000000000e+00,1.700000000000000000e+01
4.645600000000000000e+04,-2.999999999999999737e-05,-6.999999999999999387e-05,-5.000000000000000240e-05,-5.000000000000000240e-05,-5.999999999999999474e-05,-4.000000000000000327e-05,-1.000000000000000082e-05,-5.999999999999999474e-05,3.000000000000000000e+00,1.700000000000000000e+01
4.645700000000000000e+04,-4.000000000000000327e-05,-1.000000000000000082e-05,-2.999999999999999737e-05,-2.999999999999999737e-05,-1.100000000000000039e-04,-6.999999999999999387e-05,-4.000000000000000327e-05,-4.000000000000000327e-05,3.000000000000000000e+00,1.700000000000000000e+01
4.645800000000000000e+04,-1.000000000000000082e-05,4.000000000000000327e-05,4.000000000000000327e-05,-5.999999999999999474e-05,-1.600000000000000131e-04,-6.999999999999999387e-05,-4.000000000000000327e-05,2.000000000000000164e-05,3.000000000000000000e+00,1.700000000000000000e+01
4.645900000000000000e+04,-1.000000000000000082e-05,4.000000000000000327e-05,4.000000000000000327e-05,-5.999999999999999474e-05,-1.600000000000000131e-04,-6.999999999999999387e-05,-4.000000000000000327e-05,2.000000000000000164e-05,3.000000000000000000e+00,1.700000000000000000e+01
4.646000000000000000e+04,-1.000000000000000082e-05,4.000000000000000327e-05,4.000000000000000327e-05,-5.999999999999999474e-05,-1.600000000000000131e-04,-6.999999999999999387e-05,-4.000000000000000327e-05,2.000000000000000164e-05,3.000000000000000000e+00,1.700000000000000000e+01
4.646100000000000000e+04,-1.000000000000000082e-05,4.000000000000000327e-05,4.000000000000000327e-05,-5.999999999999999474e-05,-1.600000000000000131e-04,-6.999999999999999387e-05,-4.000000000000000327e-05,2.000000000000000164e-05,3.000000000000000000e+00,1.700000000000000000e+01
4.646200000000000000e+04,-1.000000000000000082e-05,4.000000000000000327e-05,4.000000000000000327e-05,-5.999999999999999474e-05,-1.600000000000000131e-04,-6.999999999999999387e-05,-4.000000000000000327e-05,2.000000000000000164e-05,3.000000000000000000e+00,1.700000000000000000e+01
4.646300000000000000e+04,-1.000000000000000082e-05,4.000000000000000327e-05,4.000000000000000327e-05,-5.999999999999999474e-05,-1.600000000000000131e-04,-6.999999999999999387e-05,-4.000000000000000327e-05,2.000000000000000164e-05,3.000000000000000000e+00,1.700000000000000000e+01
4.646400000000000000e+04,-1.000000000000000082e-05,4.000000000000000327e-05,4.000000000000000327e-05,-5.999999999999999474e-05,-1.600000000000000131e-04,-6.999999999999999387e-05,-4.000000000000000327e-05,2.000000000000000164e-05,3.000000000000000000e+00,1.700000000000000000e+01
4.646500000000000000e+04,-1.000000000000000082e-05,4.000000000000000327e-05,4.000000000000000327e-05,-5.999999999999999474e-05,-1.600000000000000131e-04,-6.999999999999999387e-05,-4.000000000000000327e-05,2.000000000000000164e-05,3.000000000000000000e+00,1.700000000000000000e+01
4.646600000000000000e+04,-1.000000000000000082e-05,4.000000000000000327e-05,4.000000000000000327e-05,-5.999999999999999474e-05,-1.600000000000000131e-04,-6.999999999999999387e-05,-4.000000000000000327e-05,2.000000000000000164e-05,3.000000000000000000e+00,1.700000000000000000e+01
4.646700000000000000e+04,-1.000000000000000082e-05,4.000000000000000327e-05,4.000000000000000327e-05,-5.999999999999999474e-05,-1.600000000000000131e-04,-6.999999999999999387e-05,-4.000000000000000327e-05,2.000000000000000164e-05,3.000000000000000000e+00,1.700000000000000000e+01
4.646800000000000000e+04,-1.000000000000000082e-05,4.000000000000000327e-05,4.000000000000000327e-05,-5.999999999999999474e-05,-1.600000000000000131e-04,-6.999999999999999387e-05,-4.000000000000000327e-05,2.000000000000000164e-05,3.000000000000000000e+00,1.700000000000000000e+01
4.646900000000000000e+04,-1.000000000000000082e-05,4.000000000000000327e-05,4.000000000000000327e-05,-5.999999999999999474e-05,-1.600000000000000131e-04,-6.999999999999999387e-05,-4.000000000000000327e-05,2.000000000000000164e-05,3.000000000000000000e+00,1.700000000000000000e+01
4.647000000000000000e+04,-1.000000000000000082e-05,4.000000000000000327e-05,4.000000000000000327e-05,-5.999999999999999474e-05,-1.600000000000000131e-04,-6.999999999999999387e-05,-4.000000000000000327e-05,2.000000000000000164e-05,3.000000000000000000e+00,1.700000000000000000e+01
4.647100000000000000e+04,-1.000000000000000082e-05,4.000000000000000327e-05,4.000000000000000327e-05,-5.999999999999999474e-05,-1.600000000000000131e-04,-6.999999999999999387e-05,-4.000000000000000327e-05,2.000000000000000164e-05,3.000000000000000000e+00,1.700000000000000000e+01
4.647200000000000000e+04,-1.000000000000000082e-05,4.000000000000000327e-05,4.000000000000000327e-05,-5.999999999999999474e-05,-1.600000000000000131e-04,-6.999999999999999387e-05,-4.000000000000000327e-05,2.000000000000000164e-05,3.000000000000000000e+00,1.700000000000000000e+01
4.647300000000000000e+04,-1.000000000000000082e-05,4.000000000000000327e-05,4.000000000000000327e-05,-5.999999999999999474e-05,-1.600000000000000131e-04,-6.999999999999999387e-05,-4.000000000000000327e-05,2.000000000000000164e-05,3.000000000000000000e+00,1.700000000000000000e+01
4.647400000000000000e+04,-1.000000000000000082e-05,4.000000000000000327e-05,4.000000000000000327e-05,-5.999999999999999474e-05,-1.600000000000000131e-04,-6.999999999999999387e-05,-4.000000000000000327e-05,2.000000000000000164e-05,3.000000000000000000e+00,1.700000000000000000e+01
4.647500000000000000e+04,-1.000000000000000082e-05,4.000000000000000327e-05,4.000000000000000327e-05,-5.999999999999999474e-05,-1.600000000000000131e-04,-6.999999999999999387e-05,-4.000000000000000327e-05,2.000000000000000164e-05,3.000000000000000000e+00,1.700000000000000000e+01
4.647600000000000000e+04,-1.000000000000000082e-05,4.000000000000000327e-05,4.000000000000000327e-05,-5.999999999999999474e-05,-1.600000000000000131e-04,-6.999999999999999387e-05,-4.000000000000000327e-05,2.000000000000000164e-05,3.000000000000000000e+00,1.700000000000000000e+01
4.647700000000000000e+04,-1.000000000000000082e-05,4.000000000000000327e-05,4.000000000000000327e-05,-5.999999999999999474e-05,-1.600000000000000131e-04,-6.999999999999999387e-05,-4.000000000000000327e-05,2.000000000000000164e-05,3.000000000000000000e+00,1.700000000000000000e+01
4.647800000000000000e+04,-1.000000000000000082e-05,4.000000000000000327e-05,4.000000000000000327e-05,-5.999999999999999474e-05,-1.600000000000000131e-04,-6.999999999999999387e-05,-4.000000000000000327e-05,2.000000000000000164e-05,3.000000000000000000e+00,1.700000000000000000e+01
4.647900000000000000e+04,-2.999999999999999737e-05,-8.000000000000000654e-05,-4.000000000000000327e-05,-5.000000000000000240e-05,-6.999999999999999387e-05,-5.000000000000000240e-05,-2.999999999999999737e-05,2.000000000000000164e-05,3.000000000000000000e+00,1.700000000000000000e+01
4.648000000000000000e+04,-6.999999999999999387e-05,-6.999999999999999387e-05,0.000000000000000000e+00,0.000000000000000000e+00,6.999999999999999387e-05,4.000000000000000327e-05,-1.000000000000000082e-05,-2.999999999999999737e-05,3.000000000000000000e+00,1.700000000000000000e+01
4.648100000000000000e+04,-6.999999999999999387e-05,-6.999999999999999387e-05,0.000000000000000000e+00,0.000000000000000000e+00,6.999999999999999387e-05,4.000000000000000327e-05,-1.000000000000000082e-05,-2.999999999999999737e-05,3.000000000000000000e+00,1.700000000000000000e+01
4.648200000000000000e+04,-6.999999999999999387e-05,-6.999999999999999387e-05,0.000000000000000000e+00,0.000000000000000000e+00,6.999999999999999387e-05,4.000000000000000327e-05,-1.000000000000000082e-05,-2.999999999999999737e-05,3.000000000000000000e+00,1.700000000000000000e+01
4.648300000000000000e+04,-6.999999999999999387e-05,-6.999999999999999387e-05,0.000000000000000000e+00,0.000000000000000000e+00,6.999999999999999387e-05,4.000000000000000327e-05,-1.000000000000000082e-05,-2.999999999999999737e-05,3.000000000000000000e+00,1.700000000000000000e+01
4.648400000000000000e+04,-6.999999999999999387e-05,-6.999999999999999387e-05,0.000000000000000000e+00,0.000000000000000000e+00,6.999999999999999387e-05,4.000000000000000327e-05,-1.000000000000000082e-05,-2.999999999999999737e-05,3.000000000000000000e+00,1.700000000000000000e+01
4.648500000000000000e+04,-6.999999999999999387e-05,-6.999999999999999387e-05,0.000000000000000000e+00,0.000000000000000000e+00,6.999999999999999387e-05,4.000000000000000327e-05,-1.000000000000000082e-05,-2.999999999999999737e-05,3.000000000000000000e+00,1.700000000000000000e+01
4.648600000000000000e+04,-6.999999999999999387e-05,-6.999999999999999387e-05,0.000000000000000000e+00,0.000000000000000000e+00,6.999999999999999387e-05,4.000000000000000327e-05,-1.000000000000000082e-05,-2.999999999999999737e-05,3.000000000000000000e+00,1.700000000000000000e+01
4.648900000000000000e+04,-6.999999999999999387e-05,-6.999999999999999387e-05,0.000000000000000000e+00,0.000000000000000000e+00,6.999999999999999387e-05,4.000000000000000327e-05,-1.000000000000000082e-05,-2.999999999999999737e-05,3.000000000000000000e+00,1.700000000000000000e+01
4.649000000000000000e+04,-6.999999999999999387e-05,-6.999999999999999387e-05,0.000000000000000000e+00,0.000000000000000000e+00,6.999999999999999387e-05,4.000000000000000327e-05,-1.000000000000000082e-05,-2.999999999999999737e-05,3.000000000000000000e+00,1.700000000000000000e+01
4.649100000000000000e+04,-6.999999999999999387e-05,-6.999999999999999387e-05,0.000000000000000000e+00,0.000000000000000000e+00,6.999999999999999387e-05,4.000000000000000327e-05,-1.000000000000000082e-05,-2.999999999999999737e-05,3.000000000000000000e+00,1.700000000000000000e+01
4.649200000000000000e+04,-6.999999999999999387e-05,-6.999999999999999387e-05,0.000000000000000000e+00,0.000000000000000000e+00,6.999999999999999387e-05,4.000000000000000327e-05,-1.000000000000000082e-05,-2.999999999999999737e-05,3.000000000000000000e+00,1.700000000000000000e+01
4.649300000000000000e+04,5.999999999999999474e-05,6.999999999999999387e-05,2.000000000000000164e-05,-2.000000000000000164e-05,-4.000000000000000327e-05,-4.000000000000000327e-05,-2.000000000000000164e-05,-1.000000000000000082e-05,3.000000000000000000e+00,1.700000000000000000e+01
4.649400000000000000e+04,-2.000000000000000164e-05,-2.999999999999999737e-05,1.000000000000000082e-05,0.000000000000000000e+00,0.000000000000000000e+00,-1.000000000000000082e-05,-1.000000000000000082e-05,-1.000000000000000082e-05,3.000000000000000000e+00,1.700000000000000000e+01
4.649500000000000000e+04,-2.000000000000000164e-05,-2.999999999999999737e-05,1.000000000000000082e-05,0.000000000000000000e+00,0.000000000000000000e+00,-1.000000000000000082e-05,-1.000000000000000082e-05,-1.000000000000000082e-05,3.000000000000000000e+00,1.700000000000000000e+01
4.649600000000000000e+04,-2.000000000000000164e-05,-2.999999999999999737e-05,1.000000000000000082e-05,0.000000000000000000e+00,0.000000000000000000e+00,-1.000000000000000082e-05,-1.000000000000000082e-05,-1.000000000000000082e-05,3.000000000000000000e+00,1.700000000000000000e+01
4.649700000000000000e+04,-2.000000000000000164e-05,-2.999999999999999737e-05,1.000000000000000082e-05,0.000000000000000000e+00,0.000000000000000000e+00,-1.000000000000000082e-05,-1.000000000000000082e-05,-1.000000000000000082e-05,3.000000000000000000e+00,1.700000000000000000e+01
4.649800000000000000e+04,-2.000000000000000164e-05,-2.999999999999999737e-05,1.000000000000000082e-05,0.000000000000000000e+00,0.000000000000000000e+00,-1.000000000000000082e-05,-1.000000000000000082e-05,-1.000000000000000082e-05,3.000000000000000000e+00,1.700000000000000000e+01
4.649900000000000000e+04,-2.000000000000000164e-05,-2.999999999999999737e-05,1.000000000000000082e-05,0.000000000000000000e+00,0.000000000000000000e+00,-1.000000000000000082e-05,-1.000000000000000082e-05,-1.000000000000000082e-05,3.000000000000000000e+00,1.700000000000000000e+01
4.650000000000000000e+04,-4.000000000000000327e-05,-1.000000000000000082e-05,-2.000000000000000164e-05,-2.000000000000000164e-05,2.999999999999999737e-05,-1.000000000000000082e-05,0.000000000000000000e+00,-2.000000000000000164e-05,3.000000000000000000e+00,1.700000000000000000e+01
4.650100000000000000e+04,-4.000000000000000327e-05,-1.000000000000000082e-05,-2.000000000000000164e-05,-2.000000000000000164e-05,2.999999999999999737e-05,-1.000000000000000082e-05,0.000000000000000000e+00,-2.000000000000000164e-05,3.000000000000000000e+00,1.700000000000000000e+01
4.650200000000000000e+04,-4.000000000000000327e-05,-1.000000000000000082e-05,-2.000000000000000164e-05,-2.000000000000000164e-05,2.999999999999999737e-05,-1.000000000000000082e-05,0.000000000000000000e+00,-2.000000000000000164e-05,3.000000000000000000e+00,1.700000000000000000e+01
4.650300000000000000e+04,-4.000000000000000327e-05,-1.000000000000000082e-05,-2.000000000000000164e-05,-2.000000000000000164e-05,2.999999999999999737e-05,-1.000000000000000082e-05,0.000000000000000000e+00,-2.000000000000000164e-05,3.000000000000000000e+00,1.700000000000000000e+01
4.650400000000000000e+04,-4.000000000000000327e-05,-1.000000000000000082e-05,-2.000000000000000164e-05,-2.000000000000000164e-05,2.999999999999999737e-05,-1.000000000000000082e-05,0.000000000000000000e+00,-2.000000000000000164e-05,3.000000000000000000e+00,1.700000000000000000e+01
4.650500000000000000e+04,-4.000000000000000327e-05,-1.000000000000000082e-05,-2.000000000000000164e-05,-2.000000000000000164e-05,2.999999999999999737e-05,-1.000000000000000082e-05,0.000000000000000000e+00,-2.000000000000000164e-05,3.000000000000000000e+00,1.700000000000000000e+01
4.650600000000000000e+04,-4.000000000000000327e-05,-1.000000000000000082e-05,-2.000000000000000164e-05,-2.000000000000000164e-05,2.999999999999999737e-05,-1.000000000000000082e-05,0.000000000000000000e+00,-2.000000000000000164e-05,3.000000000000000000e+00,1.700000000000000000e+01
4.650700000000000000e+04,-4.000000000000000327e-05,-1.000000000000000082e-05,-2.000000000000000164e-05,-2.000000000000000164e-05,2.999999999999999737e-05,-1.000000000000000082e-05,0.000000000000000000e+00,-2.000000000000000164e-05,3.000000000000000000e+00,1.700000000000000000e+01
4.650800000000000000e+04,-4.000000000000000327e-05,-1.000000000000000082e-05,-2.000000000000000164e-05,-2.000000000000000164e-05,2.999999999999999737e-05,-1.000000000000000082e-05,0.000000000000000000e+00,-2.000000000000000164e-05,3.000000000000000000e+00,1.700000000000000000e+01
4.650900000000000000e+04,-4.000000000000000327e-05,-1.000000000000000082e-05,-2.000000000000000164e-05,-2.000000000000000164e-05,2.999999999999999737e-05,-1.000000000000000082e-05,0.000000000000000000e+00,-2.000000000000000164e-05,3.000000000000000000e+00,1.700000000000000000e+01
4.651000000000000000e+04,-4.000000000000000327e-05,-1.000000000000000082e-05,-2.000000000000000164e-05,-2.000000000000000164e-05,2.999999999999999737e-05,-1.000000000000000082e-05,0.000000000000000000e+00,-2.000000000000000164e-05,3.000000000000000000e+00,1.700000000000000000e+01
4.651100000000000000e+04,-4.000000000000000327e-05,-1.000000000000000082e-05,-2.000000000000000164e-05,-2.000000000000000164e-05,2.999999999999999737e-05,-1.000000000000000082e-05,0.000000000000000000e+00,-2.000000000000000164e-05,3.000000000000000000e+00,1.700000000000000000e+01
4.651200000000000000e+04,-4.000000000000000327e-05,-1.000000000000000082e-05,-2.000000000000000164e-05,-2.000000000000000164e-05,2.999999999999999737e-05,-1.000000000000000082e-05,0.000000000000000000e+00,-2.000000000000000164e-05,3.000000000000000000e+00,1.700000000000000000e+01
4.651300000000000000e+04,-4.000000000000000327e-05,-1.000000000000000082e-05,-2.000000000000000164e-05,-2.000000000000000164e-05,2.999999999999999737e-05,-1.000000000000000082e-05,0.000000000000000000e+00,-2.000000000000000164e-05,3.000000000000000000e+00,1.700000000000000000e+01
4.651400000000000000e+04,-4.000000000000000327e-05,-1.000000000000000082e-05,-2.000000000000000164e-05,-2.000000000000000164e-05,2.999999999999999737e-05,-1.000000000000000082e-05,0.000000000000000000e+00,-2.000000000000000164e-05,3.000000000000000000e+00,1.700000000000000000e+01
4.651500000000000000e+04,-4.000000000000000327e-05,-1.000000000000000082e-05,-2.000000000000000164e-05,-2.000000000000000164e-05,2.999999999999999737e-05,-1.000000000000000082e-05,0.000000000000000000e+00,-2.000000000000000164e-05,3.000000000000000000e+00,1.700000000000000000e+01
4.651600000000000000e+04,-6.999999999999999387e-05,1.000000000000000082e-05,0.000000000000000000e+00,0.000000000000000000e+00,-2.000000000000000164e-05,1.000000000000000082e-05,1.000000000000000082e-05,-1.000000000000000082e-05,3.000000000000000000e+00,1.700000000000000000e+01
4.651700000000000000e+04,-5.999999999999999474e-05,0.000000000000000000e+00,-2.000000000000000164e-05,2.000000000000000164e-05,4.000000000000000327e-05,2.999999999999999737e-05,2.000000000000000164e-05,0.000000000000000000e+00,3.000000000000000000e+00,1.700000000000000000e+01
4.651800000000000000e+04,4.000000000000000327e-05,5.000000000000000240e-05,1.000000000000000082e-05,1.000000000000000082e-05,2.000000000000000164e-05,-1.000000000000000082e-05,-2.000000000000000164e-05,2.000000000000000164e-05,3.000000000000000000e+00,1.700000000000000000e+01
4.651900000000000000e+04,4.000000000000000327e-05,5.000000000000000240e-05,1.000000000000000082e-05,1.000000000000000082e-05,2.000000000000000164e-05,-1.000000000000000082e-05,-2.000000000000000164e-05,2.000000000000000164e-05,3.000000000000000000e+00,1.700000000000000000e+01
4.652000000000000000e+04,4.000000000000000327e-05,5.000000000000000240e-05,1.000000000000000082e-05,1.000000000000000082e-05,2.000000000000000164e-05,-1.000000000000000082e-05,-2.000000000000000164e-05,2.000000000000000164e-05,3.000000000000000000e+00,1.700000000000000000e+01
4.652100000000000000e+04,4.000000000000000327e-05,5.000000000000000240e-05,1.000000000000000082e-05,1.000000000000000082e-05,2.000000000000000164e-05,-1.000000000000000082e-05,-2.000000000000000164e-05,2.000000000000000164e-05,3.000000000000000000e+00,1.700000000000000000e+01
4.652200000000000000e+04,4.000000000000000327e-05,5.000000000000000240e-05,1.000000000000000082e-05,1.000000000000000082e-05,2.000000000000000164e-05,-1.000000000000000082e-05,-2.000000000000000164e-05,2.000000000000000164e-05,3.000000000000000000e+00,1.700000000000000000e+01
4.652300000000000000e+04,4.000000000000000327e-05,5.000000000000000240e-05,1.000000000000000082e-05,1.000000000000000082e-05,2.000000000000000164e-05,-1.000000000000000082e-05,-2.000000000000000164e-05,2.000000000000000164e-05,3.000000000000000000e+00,1.700000000000000000e+01
4.652400000000000000e+04,4.000000000000000327e-05,5.000000000000000240e-05,1.000000000000000082e-05,1.000000000000000082e-05,2.000000000000000164e-05,-1.000000000000000082e-05,-2.000000000000000164e-05,2.000000000000000164e-05,3.000000000000000000e+00,1.700000000000000000e+01
4.652500000000000000e+04,4.000000000000000327e-05,5.000000000000000240e-05,1.000000000000000082e-05,1.000000000000000082e-05,2.000000000000000164e-05,-1.000000000000000082e-05,-2.000000000000000164e-05,2.000000000000000164e-05,3.000000000000000000e+00,1.700000000000000000e+01
4.652600000000000000e+04,4.000000000000000327e-05,5.000000000000000240e-05,1.000000000000000082e-05,1.000000000000000082e-05,2.000000000000000164e-05,-1.000000000000000082e-05,-2.000000000000000164e-05,2.000000000000000164e-05,3.000000000000000000e+00,1.700000000000000000e+01
4.652700000000000000e+04,4.000000000000000327e-05,5.000000000000000240e-05,1.000000000000000082e-05,1.000000000000000082e-05,2.000000000000000164e-05,-1.000000000000000082e-05,-2.000000000000000164e-05,2.000000000000000164e-05,3.000000000000000000e+00,1.700000000000000000e+01
4.652800000000000000e+04,4.000000000000000327e-05,5.000000000000000240e-05,1.000000000000000082e-05,1.000000000000000082e-05,2.000000000000000164e-05,-1.000000000000000082e-05,-2.000000000000000164e-05,2.000000000000000164e-05,3.000000000000000000e+00,1.700000000000000000e+01
4.652900000000000000e+04,4.000000000000000327e-05,5.000000000000000240e-05,1.000000000000000082e-05,1.000000000000000082e-05,2.000000000000000164e-05,-1.000000000000000082e-05,-2.000000000000000164e-05,2.000000000000000164e-05,3.000000000000000000e+00,1.700000000000000000e+01
4.653000000000000000e+04,4.000000000000000327e-05,5.000000000000000240e-05,1.000000000000000082e-05,1.000000000000000082e-05,2.000000000000000164e-05,-1.000000000000000082e-05,-2.000000000000000164e-05,2.000000000000000164e-05,3.000000000000000000e+00,1.700000000000000000e+01
4.653100000000000000e+04,4.000000000000000327e-05,5.000000000000000240e-05,1.000000000000000082e-05,1.000000000000000082e-05,2.000000000000000164e-05,-1.000000000000000082e-05,-2.000000000000000164e-05,2.000000000000000164e-05,3.000000000000000000e+00,1.700000000000000000e+01
4.653200000000000000e+04,4.000000000000000327e-05,5.000000000000000240e-05,1.000000000000000082e-05,1.000000000000000082e-05,2.000000000000000164e-05,-1.000000000000000082e-05,-2.000000000000000164e-05,2.000000000000000164e-05,3.000000000000000000e+00,1.700000000000000000e+01
4.653300000000000000e+04,4.000000000000000327e-05,5.000000000000000240e-05,1.000000000000000082e-05,1.000000000000000082e-05,2.000000000000000164e-05,-1.000000000000000082e-05,-2.000000000000000164e-05,2.000000000000000164e-05,3.000000000000000000e+00,1.700000000000000000e+01
4.653400000000000000e+04,4.000000000000000327e-05,5.000000000000000240e-05,1.000000000000000082e-05,1.000000000000000082e-05,2.000000000000000164e-05,-1.000000000000000082e-05,-2.000000000000000164e-05,2.000000000000000164e-05,3.000000000000000000e+00,1.700000000000000000e+01
4.653500000000000000e+04,4.000000000000000327e-05,5.000000000000000240e-05,1.000000000000000082e-05,1.000000000000000082e-05,2.000000000000000164e-05,-1.000000000000000082e-05,-2.000000000000000164e-05,2.000000000000000164e-05,3.000000000000000000e+00,1.700000000000000000e+01
4.653600000000000000e+04,4.000000000000000327e-05,5.000000000000000240e-05,1.000000000000000082e-05,1.000000000000000082e-05,2.000000000000000164e-05,-1.000000000000000082e-05,-2.000000000000000164e-05,2.000000000000000164e-05,3.000000000000000000e+00,1.700000000000000000e+01
4.653800000000000000e+04,4.000000000000000327e-05,5.000000000000000240e-05,1.000000000000000082e-05,1.000000000000000082e-05,2.000000000000000164e-05,-1.000000000000000082e-05,-2.000000000000000164e-05,2.000000000000000164e-05,3.000000000000000000e+00,1.700000000000000000e+01
4.653900000000000000e+04,-1.199999999999999895e-04,-1.199999999999999895e-04,-2.000000000000000164e-05,-2.999999999999999737e-05,0.000000000000000000e+00,-1.000000000000000082e-05,1.000000000000000082e-05,-2.999999999999999737e-05,3.000000000000000000e+00,1.700000000000000000e+01
4.654000000000000000e+04,-1.199999999999999895e-04,-1.199999999999999895e-04,-2.000000000000000164e-05,-2.999999999999999737e-05,0.000000000000000000e+00,-1.000000000000000082e-05,1.000000000000000082e-05,-2.999999999999999737e-05,3.000000000000000000e+00,1.700000000000000000e+01
4.654100000000000000e+04,-9.000000000000000567e-05,-6.999999999999999387e-05,-1.000000000000000082e-05,2.000000000000000164e-05,2.999999999999999737e-05,1.000000000000000082e-05,-1.000000000000000082e-05,-1.000000000000000082e-05,3.000000000000000000e+00,1.700000000000000000e+01
4.654200000000000000e+04,-9.000000000000000567e-05,-6.999999999999999387e-05,-1.000000000000000082e-05,2.000000000000000164e-05,2.999999999999999737e-05,1.000000000000000082e-05,-1.000000000000000082e-05,-1.000000000000000082e-05,3.000000000000000000e+00,1.700000000000000000e+01
4.654300000000000000e+04,-9.000000000000000567e-05,-6.999999999999999387e-05,-1.000000000000000082e-05,2.000000000000000164e-05,2.999999999999999737e-05,1.000000000000000082e-05,-1.000000000000000082e-05,-1.000000000000000082e-05,3.000000000000000000e+00,1.700000000000000000e+01
4.654400000000000000e+04,-9.000000000000000567e-05,-6.999999999999999387e-05,-1.000000000000000082e-05,2.000000000000000164e-05,2.999999999999999737e-05,1.000000000000000082e-05,-1.000000000000000082e-05,-1.000000000000000082e-05,3.000000000000000000e+00,1.700000000000000000e+01
4.654500000000000000e+04,-9.000000000000000567e-05,-6.999999999999999387e-05,-1.000000000000000082e-05,2.000000000000000164e-05,2.999999999999999737e-05,1.000000000000000082e-05,-1.000000000000000082e-05,-1.000000000000000082e-05,3.000000000000000000e+00,1.700000000000000000e+01
4.654600000000000000e+04,-9.000000000000000567e-05,-6.999999999999999387e-05,-1.000000000000000082e-05,2.000000000000000164e-05,2.999999999999999737e-05,1.000000000000000082e-05,-1.000000000000000082e-05,-1.000000000000000082e-05,3.000000000000000000e+00,1.700000000000000000e+01
4.654700000000000000e+04,-9.000000000000000567e-05,-6.999999999999999387e-05,-1.000000000000000082e-05,2.000000000000000164e-05,2.999999999999999737e-05,1.000000000000000082e-05,-1.000000000000000082e-05,-1.000000000000000082e-05,3.000000000000000000e+00,1.700000000000000000e+01
4.654800000000000000e+04,-9.000000000000000567e-05,-6.999999999999999387e-05,-1.000000000000000082e-05,2.000000000000000164e-05,2.999999999999999737e-05,1.000000000000000082e-05,-1.000000000000000082e-05,-1.000000000000000082e-05,3.000000000000000000e+00,1.700000000000000000e+01
4.654900000000000000e+04,-9.000000000000000567e-05,-6.999999999999999387e-05,-1.000000000000000082e-05,2.000000000000000164e-05,2.999999999999999737e-05,1.000000000000000082e-05,-1.000000000000000082e-05,-1.000000000000000082e-05,3.000000000000000000e+00,1.700000000000000000e+01
4.655000000000000000e+04,-9.000000000000000567e-05,-6.999999999999999387e-05,-1.000000000000000082e-05,2.000000000000000164e-05,2.999999999999999737e-05,1.000000000000000082e-05,-1.000000000000000082e-05,-1.000000000000000082e-05,3.000000000000000000e+00,1.700000000000000000e+01
4.655100000000000000e+04,-9.000000000000000567e-05,-6.999999999999999387e-05,-1.000000000000000082e-05,2.000000000000000164e-05,2.999999999999999737e-05,1.000000000000000082e-05,-1.000000000000000082e-05,-1.000000000000000082e-05,3.000000000000000000e+00,1.700000000000000000e+01
4.655200000000000000e+04,-9.000000000000000567e-05,-6.999999999999999387e-05,-1.000000000000000082e-05,2.000000000000000164e-05,2.999999999999999737e-05,1.000000000000000082e-05,-1.000000000000000082e-05,-1.000000000000000082e-05,3.000000000000000000e+00,1.700000000000000000e+01
4.655300000000000000e+04,2.999999999999999737e-05,-1.000000000000000082e-05,-4.000000000000000327e-05,-2.000000000000000164e-05,1.000000000000000082e-05,-2.999999999999999737e-05,-2.000000000000000164e-05,0.000000000000000000e+00,3.000000000000000000e+00,1.700000000000000000e+01
4.655400000000000000e+04,2.999999999999999737e-05,-1.000000000000000082e-05,-4.000000000000000327e-05,-2.000000000000000164e-05,1.000000000000000082e-05,-2.999999999999999737e-05,-2.000000000000000164e-05,0.000000000000000000e+00,3.000000000000000000e+00,1.700000000000000000e+01
4.655500000000000000e+04,2.999999999999999737e-05,-1.000000000000000082e-05,-4.000000000000000327e-05,-2.000000000000000164e-05,1.000000000000000082e-05,-2.999999999999999737e-05,-2.000000000000000164e-05,0.000000000000000000e+00,3.000000000000000000e+00,1.700000000000000000e+01
4.655600000000000000e+04,2.999999999999999737e-05,-1.000000000000000082e-05,-4.000000000000000327e-05,-2.000000000000000164e-05,1.000000000000000082e-05,-2.999999999999999737e-05,-2.000000000000000164e-05,0.000000000000000000e+00,3.000000000000000000e+00,1.700000000000000000e+01
4.655700000000000000e+04,2.999999999999999737e-05,-1.000000000000000082e-05,-4.000000000000000327e-05,-2.000000000000000164e-05,1.000000000000000082e-05,-2.999999999999999737e-05,-2.000000000000000164e-05,0.000000000000000000e+00,3.000000000000000000e+00,1.700000000000000000e+01
4.655800000000000000e+04,2.999999999999999737e-05,-1.000000000000000082e-05,-4.000000000000000327e-05,-2.000000000000000164e-05,1.000000000000000082e-05,-2.999999999999999737e-05,-2.000000000000000164e-05,0.000000000000000000e+00,3.000000000000000000e+00,1.700000000000000000e+01
4.655900000000000000e+04,2.999999999999999737e-05,-1.000000000000000082e-05,-4.000000000000000327e-05,-2.000000000000000164e-05,1.000000000000000082e-05,-2.999999999999999737e-05,-2.000000000000000164e-05,0.000000000000000000e+00,3.000000000000000000e+00,1.700000000000000000e+01
4.656000000000000000e+04,6.999999999999999387e-05,-1.000000000000000082e-05,-2.000000000000000164e-05,-2.000000000000000164e-05,-5.000000000000000240e-05,-2.000000000000000164e-05,0.000000000000000000e+00,2.500000000000000052e-04,3.000000000000000000e+00,1.700000000000000000e+01
4.656100000000000000e+04,6.999999999999999387e-05,-1.000000000000000082e-05,-2.000000000000000164e-05,-2.000000000000000164e-05,-5.000000000000000240e-05,-2.000000000000000164e-05,0.000000000000000000e+00,2.500000000000000052e-04,3.000000000000000000e+00,1.700000000000000000e+01
4.656200000000000000e+04,6.999999999999999387e-05,-1.000000000000000082e-05,-2.000000000000000164e-05,-2.000000000000000164e-05,-5.000000000000000240e-05,-2.000000000000000164e-05,0.000000000000000000e+00,2.500000000000000052e-04,3.000000000000000000e+00,1.700000000000000000e+01
