5.583900000000000000e+04,-8.000000000000000654e-05,-1.499999999999999869e-04,1.000000000000000082e-05,-5.000000000000000240e-05,3.099999999999999999e-04,3.200000000000000262e-04,1.399999999999999877e-04,-1.100000000000000039e-04,6.000000000000000000e+00,2.300000000000000000e+01
5.584000000000000000e+04,-8.000000000000000654e-05,-1.499999999999999869e-04,1.000000000000000082e-05,-5.000000000000000240e-05,3.099999999999999999e-04,3.200000000000000262e-04,1.399999999999999877e-04,-1.100000000000000039e-04,6.000000000000000000e+00,2.300000000000000000e+01
5.584100000000000000e+04,-8.000000000000000654e-05,-1.499999999999999869e-04,1.000000000000000082e-05,-5.000000000000000240e-05,3.099999999999999999e-04,3.200000000000000262e-04,1.399999999999999877e-04,-1.100000000000000039e-04,6.000000000000000000e+00,2.300000000000000000e+01
5.584200000000000000e+04,1.300000000000000157e-04,2.000000000000000164e-05,2.000000000000000164e-05,1.000000000000000082e-05,4.000000000000000327e-05,5.000000000000000104e-04,-1.000000000000000048e-04,2.700000000000000035e-04,6.000000000000000000e+00,2.300000000000000000e+01
5.584300000000000000e+04,1.300000000000000157e-04,2.000000000000000164e-05,2.000000000000000164e-05,1.000000000000000082e-05,4.000000000000000327e-05,5.000000000000000104e-04,-1.000000000000000048e-04,2.700000000000000035e-04,6.000000000000000000e+00,2.300000000000000000e+01
5.584400000000000000e+04,1.300000000000000157e-04,2.000000000000000164e-05,2.000000000000000164e-05,1.000000000000000082e-05,4.000000000000000327e-05,5.000000000000000104e-04,-1.000000000000000048e-04,2.700000000000000035e-04,6.000000000000000000e+00,2.300000000000000000e+01
5.584500000000000000e+04,1.300000000000000157e-04,2.000000000000000164e-05,2.000000000000000164e-05,1.000000000000000082e-05,4.000000000000000327e-05,5.000000000000000104e-04,-1.000000000000000048e-04,2.700000000000000035e-04,6.000000000000000000e+00,2.300000000000000000e+01
5.584600000000000000e+04,1.300000000000000157e-04,2.000000000000000164e-05,2.000000000000000164e-05,1.000000000000000082e-05,4.000000000000000327e-05,5.000000000000000104e-04,-1.000000000000000048e-04,2.700000000000000035e-04,6.000000000000000000e+00,2.300000000000000000e+01
5.584700000000000000e+04,1.300000000000000157e-04,2.000000000000000164e-05,2.000000000000000164e-05,1.000000000000000082e-05,4.000000000000000327e-05,5.000000000000000104e-04,-1.000000000000000048e-04,2.700000000000000035e-04,6.000000000000000000e+00,2.300000000000000000e+01
5.584800000000000000e+04,-2.600000000000000314e-04,-5.000000000000000240e-05,-5.000000000000000240e-05,-1.000000000000000082e-05,1.499999999999999869e-04,1.300000000000000157e-04,2.200000000000000078e-04,-5.800000000000000034e-04,6.000000000000000000e+00,2.300000000000000000e+01
5.584900000000000000e+04,-4.000000000000000327e-05,4.000000000000000327e-05,-1.000000000000000082e-05,-2.999999999999999737e-05,-5.999999999999999474e-05,-5.000000000000000104e-04,-1.100000000000000039e-04,1.600000000000000131e-04,6.000000000000000000e+00,2.300000000000000000e+01
5.585000000000000000e+04,-4.000000000000000327e-05,4.000000000000000327e-05,-1.000000000000000082e-05,-2.999999999999999737e-05,-5.999999999999999474e-05,-5.000000000000000104e-04,-1.100000000000000039e-04,1.600000000000000131e-04,6.000000000000000000e+00,2.300000000000000000e+01
5.585100000000000000e+04,-4.000000000000000327e-05,4.000000000000000327e-05,-1.000000000000000082e-05,-2.999999999999999737e-05,-5.999999999999999474e-05,-5.000000000000000104e-04,-1.100000000000000039e-04,1.600000000000000131e-04,6.000000000000000000e+00,2.300000000000000000e+01
5.585200000000000000e+04,-4.000000000000000327e-05,4.000000000000000327e-05,-1.000000000000000082e-05,-2.999999999999999737e-05,-5.999999999999999474e-05,-5.000000000000000104e-04,-1.100000000000000039e-04,1.600000000000000131e-04,6.000000000000000000e+00,2.300000000000000000e+01
5.585300000000000000e+04,-4.000000000000000327e-05,4.000000000000000327e-05,-1.000000000000000082e-05,-2.999999999999999737e-05,-5.999999999999999474e-05,-5.000000000000000104e-04,-1.100000000000000039e-04,1.600000000000000131e-04,6.000000000000000000e+00,2.300000000000000000e+01
5.585400000000000000e+04,-4.000000000000000327e-05,4.000000000000000327e-05,-1.000000000000000082e-05,-2.999999999999999737e-05,-5.999999999999999474e-05,-5.000000000000000104e-04,-1.100000000000000039e-04,1.600000000000000131e-04,6.000000000000000000e+00,2.300000000000000000e+01
5.585500000000000000e+04,-4.000000000000000327e-05,4.000000000000000327e-05,-1.000000000000000082e-05,-2.999999999999999737e-05,-5.999999999999999474e-05,-5.000000000000000104e-04,-1.100000000000000039e-04,1.600000000000000131e-04,6.000000000000000000e+00,2.300000000000000000e+01
5.585600000000000000e+04,-4.000000000000000327e-05,4.000000000000000327e-05,-1.000000000000000082e-05,-2.999999999999999737e-05,-5.999999999999999474e-05,-5.000000000000000104e-04,-1.100000000000000039e-04,1.600000000000000131e-04,6.000000000000000000e+00,2.300000000000000000e+01
5.585700000000000000e+04,-4.000000000000000327e-05,4.000000000000000327e-05,-1.000000000000000082e-05,-2.999999999999999737e-05,-5.999999999999999474e-05,-5.000000000000000104e-04,-1.100000000000000039e-04,1.600000000000000131e-04,6.000000000000000000e+00,2.300000000000000000e+01
5.585800000000000000e+04,-4.000000000000000327e-05,4.000000000000000327e-05,-1.000000000000000082e-05,-2.999999999999999737e-05,-5.999999999999999474e-05,-5.000000000000000104e-04,-1.100000000000000039e-04,1.600000000000000131e-04,6.000000000000000000e+00,2.300000000000000000e+01
5.585900000000000000e+04,-4.000000000000000327e-05,4.000000000000000327e-05,-1.000000000000000082e-05,-2.999999999999999737e-05,-5.999999999999999474e-05,-5.000000000000000104e-04,-1.100000000000000039e-04,1.600000000000000131e-04,6.000000000000000000e+00,2.300000000000000000e+01
5.586000000000000000e+04,-4.000000000000000327e-05,4.000000000000000327e-05,-1.000000000000000082e-05,-2.999999999999999737e-05,-5.999999999999999474e-05,-5.000000000000000104e-04,-1.100000000000000039e-04,1.600000000000000131e-04,6.000000000000000000e+00,2.300000000000000000e+01
5.586100000000000000e+04,-4.000000000000000327e-05,4.000000000000000327e-05,-1.000000000000000082e-05,-2.999999999999999737e-05,-5.999999999999999474e-05,-5.000000000000000104e-04,-1.100000000000000039e-04,1.600000000000000131e-04,6.000000000000000000e+00,2.300000000000000000e+01
5.586200000000000000e+04,-4.000000000000000327e-05,4.000000000000000327e-05,-1.000000000000000082e-05,-2.999999999999999737e-05,-5.999999999999999474e-05,-5.000000000000000104e-04,-1.100000000000000039e-04,1.600000000000000131e-04,6.000000000000000000e+00,2.300000000000000000e+01
5.586300000000000000e+04,-4.000000000000000327e-05,4.000000000000000327e-05,-1.000000000000000082e-05,-2.999999999999999737e-05,-5.999999999999999474e-05,-5.000000000000000104e-04,-1.100000000000000039e-04,1.600000000000000131e-04,6.000000000000000000e+00,2.300000000000000000e+01
5.586400000000000000e+04,-4.000000000000000327e-05,4.000000000000000327e-05,-1.000000000000000082e-05,-2.999999999999999737e-05,-5.999999999999999474e-05,-5.000000000000000104e-04,-1.100000000000000039e-04,1.600000000000000131e-04,6.000000000000000000e+00,2.300000000000000000e+01
5.586500000000000000e+04,1.499999999999999869e-04,-2.999999999999999737e-05,-4.000000000000000327e-05,-1.399999999999999877e-04,-4.599999999999999597e-04,-4.000000000000000192e-04,4.000000000000000327e-05,-6.999999999999999387e-05,6.000000000000000000e+00,2.300000000000000000e+01
5.586600000000000000e+04,-1.899999999999999834e-04,1.000000000000000082e-05,0.000000000000000000e+00,-4.000000000000000327e-05,-1.300000000000000157e-04,-2.399999999999999790e-04,-3.799999999999999667e-04,2.700000000000000035e-04,6.000000000000000000e+00,2.300000000000000000e+01
5.586700000000000000e+04,-5.000000000000000240e-05,-2.999999999999999737e-05,0.000000000000000000e+00,4.000000000000000327e-05,-5.000000000000000240e-05,-2.000000000000000096e-04,1.000000000000000082e-05,-1.069999999999999988e-03,6.000000000000000000e+00,2.300000000000000000e+01
5.586800000000000000e+04,-5.000000000000000240e-05,-2.999999999999999737e-05,0.000000000000000000e+00,4.000000000000000327e-05,-5.000000000000000240e-05,-2.000000000000000096e-04,1.000000000000000082e-05,-1.069999999999999988e-03,6.000000000000000000e+00,2.300000000000000000e+01
5.586900000000000000e+04,-5.000000000000000240e-05,-2.999999999999999737e-05,0.000000000000000000e+00,4.000000000000000327e-05,-5.000000000000000240e-05,-2.000000000000000096e-04,1.000000000000000082e-05,-1.069999999999999988e-03,6.000000000000000000e+00,2.300000000000000000e+01
5.587000000000000000e+04,-5.000000000000000240e-05,-2.999999999999999737e-05,0.000000000000000000e+00,4.000000000000000327e-05,-5.000000000000000240e-05,-2.000000000000000096e-04,1.000000000000000082e-05,-1.069999999999999988e-03,6.000000000000000000e+00,2.300000000000000000e+01
5.587100000000000000e+04,-5.000000000000000240e-05,-2.999999999999999737e-05,0.000000000000000000e+00,4.000000000000000327e-05,-5.000000000000000240e-05,-2.000000000000000096e-04,1.000000000000000082e-05,-1.069999999999999988e-03,6.000000000000000000e+00,2.300000000000000000e+01
5.587200000000000000e+04,-5.000000000000000240e-05,-2.999999999999999737e-05,0.000000000000000000e+00,4.000000000000000327e-05,-5.000000000000000240e-05,-2.000000000000000096e-04,1.000000000000000082e-05,-1.069999999999999988e-03,6.000000000000000000e+00,2.300000000000000000e+01
5.587300000000000000e+04,-5.000000000000000240e-05,-2.999999999999999737e-05,0.000000000000000000e+00,4.000000000000000327e-05,-5.000000000000000240e-05,-2.000000000000000096e-04,1.000000000000000082e-05,-1.069999999999999988e-03,6.000000000000000000e+00,2.300000000000000000e+01
5.587400000000000000e+04,-5.000000000000000240e-05,-2.999999999999999737e-05,0.000000000000000000e+00,4.000000000000000327e-05,-5.000000000000000240e-05,-2.000000000000000096e-04,1.000000000000000082e-05,-1.069999999999999988e-03,6.000000000000000000e+00,2.300000000000000000e+01
5.587500000000000000e+04,-5.000000000000000240e-05,-2.999999999999999737e-05,0.000000000000000000e+00,4.000000000000000327e-05,-5.000000000000000240e-05,-2.000000000000000096e-04,1.000000000000000082e-05,-1.069999999999999988e-03,6.000000000000000000e+00,2.300000000000000000e+01
5.587600000000000000e+04,-5.000000000000000240e-05,-2.999999999999999737e-05,0.000000000000000000e+00,4.000000000000000327e-05,-5.000000000000000240e-05,-2.000000000000000096e-04,1.000000000000000082e-05,-1.069999999999999988e-03,6.000000000000000000e+00,2.300000000000000000e+01
5.587700000000000000e+04,-5.000000000000000240e-05,-2.999999999999999737e-05,0.000000000000000000e+00,4.000000000000000327e-05,-5.000000000000000240e-05,-2.000000000000000096e-04,1.000000000000000082e-05,-1.069999999999999988e-03,6.000000000000000000e+00,2.300000000000000000e+01
5.587800000000000000e+04,-5.000000000000000240e-05,-2.999999999999999737e-05,0.000000000000000000e+00,4.000000000000000327e-05,-5.000000000000000240e-05,-2.000000000000000096e-04,1.000000000000000082e-05,-1.069999999999999988e-03,6.000000000000000000e+00,2.300000000000000000e+01
5.587900000000000000e+04,-5.000000000000000240e-05,-2.999999999999999737e-05,0.000000000000000000e+00,4.000000000000000327e-05,-5.000000000000000240e-05,-2.000000000000000096e-04,1.000000000000000082e-05,-1.069999999999999988e-03,6.000000000000000000e+00,2.300000000000000000e+01
5.588000000000000000e+04,-5.000000000000000240e-05,-2.999999999999999737e-05,0.000000000000000000e+00,4.000000000000000327e-05,-5.000000000000000240e-05,-2.000000000000000096e-04,1.000000000000000082e-05,-1.069999999999999988e-03,6.000000000000000000e+00,2.300000000000000000e+01
5.588100000000000000e+04,-5.000000000000000240e-05,-2.999999999999999737e-05,0.000000000000000000e+00,4.000000000000000327e-05,-5.000000000000000240e-05,-2.000000000000000096e-04,1.000000000000000082e-05,-1.069999999999999988e-03,6.000000000000000000e+00,2.300000000000000000e+01
5.588200000000000000e+04,-5.000000000000000240e-05,-2.999999999999999737e-05,0.000000000000000000e+00,4.000000000000000327e-05,-5.000000000000000240e-05,-2.000000000000000096e-04,1.000000000000000082e-05,-1.069999999999999988e-03,6.000000000000000000e+00,2.300000000000000000e+01
5.588300000000000000e+04,-5.000000000000000240e-05,-2.999999999999999737e-05,0.000000000000000000e+00,4.000000000000000327e-05,-5.000000000000000240e-05,-2.000000000000000096e-04,1.000000000000000082e-05,-1.069999999999999988e-03,6.000000000000000000e+00,2.300000000000000000e+01
5.588400000000000000e+04,-5.000000000000000240e-05,-2.999999999999999737e-05,0.000000000000000000e+00,4.000000000000000327e-05,-5.000000000000000240e-05,-2.000000000000000096e-04,1.000000000000000082e-05,-1.069999999999999988e-03,6.000000000000000000e+00,2.300000000000000000e+01
5.588500000000000000e+04,-5.000000000000000240e-05,-2.999999999999999737e-05,0.000000000000000000e+00,4.000000000000000327e-05,-5.000000000000000240e-05,-2.000000000000000096e-04,1.000000000000000082e-05,-1.069999999999999988e-03,6.000000000000000000e+00,2.300000000000000000e+01
5.588600000000000000e+04,-5.000000000000000240e-05,-2.999999999999999737e-05,0.000000000000000000e+00,4.000000000000000327e-05,-5.000000000000000240e-05,-2.000000000000000096e-04,1.000000000000000082e-05,-1.069999999999999988e-03,6.000000000000000000e+00,2.300000000000000000e+01
5.588900000000000000e+04,-4.000000000000000327e-05,-5.999999999999999474e-05,-4.000000000000000327e-05,-5.999999999999999474e-05,-2.100000000000000087e-04,-2.600000000000000314e-04,-2.399999999999999790e-04,-4.099999999999999912e-04,6.000000000000000000e+00,2.300000000000000000e+01
5.589000000000000000e+04,-4.000000000000000327e-05,-5.999999999999999474e-05,-4.000000000000000327e-05,-5.999999999999999474e-05,-2.100000000000000087e-04,-2.600000000000000314e-04,-2.399999999999999790e-04,-4.099999999999999912e-04,6.000000000000000000e+00,2.300000000000000000e+01
5.589100000000000000e+04,-4.000000000000000327e-05,-5.999999999999999474e-05,-4.000000000000000327e-05,-5.999999999999999474e-05,-2.100000000000000087e-04,-2.600000000000000314e-04,-2.399999999999999790e-04,-4.099999999999999912e-04,6.000000000000000000e+00,2.300000000000000000e+01
5.589200000000000000e+04,-4.000000000000000327e-05,-5.999999999999999474e-05,-4.000000000000000327e-05,-5.999999999999999474e-05,-2.100000000000000087e-04,-2.600000000000000314e-04,-2.399999999999999790e-04,-4.099999999999999912e-04,6.000000000000000000e+00,2.300000000000000000e+01
5.589300000000000000e+04,-4.000000000000000327e-05,-5.999999999999999474e-05,-4.000000000000000327e-05,-5.999999999999999474e-05,-2.100000000000000087e-04,-2.600000000000000314e-04,-2.399999999999999790e-04,-4.099999999999999912e-04,6.000000000000000000e+00,2.300000000000000000e+01
5.589400000000000000e+04,-4.000000000000000327e-05,-5.999999999999999474e-05,-4.000000000000000327e-05,-5.999999999999999474e-05,-2.100000000000000087e-04,-2.600000000000000314e-04,-2.399999999999999790e-04,-4.099999999999999912e-04,6.000000000000000000e+00,2.300000000000000000e+01
5.589500000000000000e+04,-4.000000000000000327e-05,-5.999999999999999474e-05,-4.000000000000000327e-05,-5.999999999999999474e-05,-2.100000000000000087e-04,-2.600000000000000314e-04,-2.399999999999999790e-04,-4.099999999999999912e-04,6.000000000000000000e+00,2.300000000000000000e+01
5.589600000000000000e+04,-4.000000000000000327e-05,-5.999999999999999474e-05,-4.000000000000000327e-05,-5.999999999999999474e-05,-2.100000000000000087e-04,-2.600000000000000314e-04,-2.399999999999999790e-04,-4.099999999999999912e-04,6.000000000000000000e+00,2.300000000000000000e+01
5.589700000000000000e+04,-4.000000000000000327e-05,-5.999999999999999474e-05,-4.000000000000000327e-05,-5.999999999999999474e-05,-2.100000000000000087e-04,-2.600000000000000314e-04,-2.399999999999999790e-04,-4.099999999999999912e-04,6.000000000000000000e+00,2.300000000000000000e+01
5.589800000000000000e+04,-4.000000000000000327e-05,-5.999999999999999474e-05,-4.000000000000000327e-05,-5.999999999999999474e-05,-2.100000000000000087e-04,-2.600000000000000314e-04,-2.399999999999999790e-04,-4.099999999999999912e-04,6.000000000000000000e+00,2.300000000000000000e+01
5.589900000000000000e+04,-4.000000000000000327e-05,-5.999999999999999474e-05,-4.000000000000000327e-05,-5.999999999999999474e-05,-2.100000000000000087e-04,-2.600000000000000314e-04,-2.399999999999999790e-04,-4.099999999999999912e-04,6.000000000000000000e+00,2.300000000000000000e+01
5.590000000000000000e+04,-4.000000000000000327e-05,-5.999999999999999474e-05,-4.000000000000000327e-05,-5.999999999999999474e-05,-2.100000000000000087e-04,-2.600000000000000314e-04,-2.399999999999999790e-04,-4.099999999999999912e-04,6.000000000000000000e+00,2.300000000000000000e+01
5.590100000000000000e+04,-4.000000000000000327e-05,-5.999999999999999474e-05,-4.000000000000000327e-05,-5.999999999999999474e-05,-2.100000000000000087e-04,-2.600000000000000314e-04,-2.399999999999999790e-04,-4.099999999999999912e-04,6.000000000000000000e+00,2.300000000000000000e+01
5.590200000000000000e+04,1.699999999999999851e-04,-1.000000000000000082e-05,-1.000000000000000082e-05,-2.000000000000000164e-05,1.699999999999999851e-04,-1.399999999999999877e-04,1.199999999999999895e-04,1.800000000000000113e-04,6.000000000000000000e+00,2.300000000000000000e+01
5.590300000000000000e+04,1.699999999999999851e-04,-1.000000000000000082e-05,-1.000000000000000082e-05,-2.000000000000000164e-05,1.699999999999999851e-04,-1.399999999999999877e-04,1.199999999999999895e-04,1.800000000000000113e-04,6.000000000000000000e+00,2.300000000000000000e+01
5.590400000000000000e+04,1.699999999999999851e-04,-1.000000000000000082e-05,-1.000000000000000082e-05,-2.000000000000000164e-05,1.699999999999999851e-04,-1.399999999999999877e-04,1.199999999999999895e-04,1.800000000000000113e-04,6.000000000000000000e+00,2.300000000000000000e+01
5.590500000000000000e+04,1.699999999999999851e-04,-1.000000000000000082e-05,-1.000000000000000082e-05,-2.000000000000000164e-05,1.699999999999999851e-04,-1.399999999999999877e-04,1.199999999999999895e-04,1.800000000000000113e-04,6.000000000000000000e+00,2.300000000000000000e+01
5.590600000000000000e+04,1.699999999999999851e-04,-1.000000000000000082e-05,-1.000000000000000082e-05,-2.000000000000000164e-05,1.699999999999999851e-04,-1.399999999999999877e-04,1.199999999999999895e-04,1.800000000000000113e-04,6.000000000000000000e+00,2.300000000000000000e+01
5.590700000000000000e+04,1.699999999999999851e-04,-1.000000000000000082e-05,-1.000000000000000082e-05,-2.000000000000000164e-05,1.699999999999999851e-04,-1.399999999999999877e-04,1.199999999999999895e-04,1.800000000000000113e-04,6.000000000000000000e+00,2.300000000000000000e+01
5.590800000000000000e+04,-2.700000000000000035e-04,-2.999999999999999737e-05,-2.000000000000000164e-05,-5.999999999999999474e-05,-3.499999999999999964e-04,-1.899999999999999834e-04,2.000000000000000164e-05,-8.000000000000000654e-05,6.000000000000000000e+00,2.300000000000000000e+01
5.590900000000000000e+04,1.699999999999999851e-04,1.000000000000000082e-05,-2.000000000000000164e-05,0.000000000000000000e+00,-2.000000000000000164e-05,-1.699999999999999851e-04,-2.000000000000000164e-05,5.500000000000000331e-04,6.000000000000000000e+00,2.300000000000000000e+01
5.591000000000000000e+04,1.699999999999999851e-04,1.000000000000000082e-05,-2.000000000000000164e-05,0.000000000000000000e+00,-2.000000000000000164e-05,-1.699999999999999851e-04,-2.000000000000000164e-05,5.500000000000000331e-04,6.000000000000000000e+00,2.300000000000000000e+01
5.591100000000000000e+04,1.699999999999999851e-04,1.000000000000000082e-05,-2.000000000000000164e-05,0.000000000000000000e+00,-2.000000000000000164e-05,-1.699999999999999851e-04,-2.000000000000000164e-05,5.500000000000000331e-04,6.000000000000000000e+00,2.300000000000000000e+01
5.591200000000000000e+04,1.699999999999999851e-04,1.000000000000000082e-05,-2.000000000000000164e-05,0.000000000000000000e+00,-2.000000000000000164e-05,-1.699999999999999851e-04,-2.000000000000000164e-05,5.500000000000000331e-04,6.000000000000000000e+00,2.300000000000000000e+01
5.591300000000000000e+04,1.699999999999999851e-04,1.000000000000000082e-05,-2.000000000000000164e-05,0.000000000000000000e+00,-2.000000000000000164e-05,-1.699999999999999851e-04,-2.000000000000000164e-05,5.500000000000000331e-04,6.000000000000000000e+00,2.300000000000000000e+01
5.591400000000000000e+04,1.699999999999999851e-04,1.000000000000000082e-05,-2.000000000000000164e-05,0.000000000000000000e+00,-2.000000000000000164e-05,-1.699999999999999851e-04,-2.000000000000000164e-05,5.500000000000000331e-04,6.000000000000000000e+00,2.300000000000000000e+01
5.591500000000000000e+04,1.699999999999999851e-04,1.000000000000000082e-05,-2.000000000000000164e-05,0.000000000000000000e+00,-2.000000000000000164e-05,-1.699999999999999851e-04,-2.000000000000000164e-05,5.500000000000000331e-04,6.000000000000000000e+00,2.300000000000000000e+01
5.591600000000000000e+04,1.699999999999999851e-04,1.000000000000000082e-05,-2.000000000000000164e-05,0.000000000000000000e+00,-2.000000000000000164e-05,-1.699999999999999851e-04,-2.000000000000000164e-05,5.500000000000000331e-04,6.000000000000000000e+00,2.300000000000000000e+01
5.591700000000000000e+04,1.699999999999999851e-04,1.000000000000000082e-05,-2.000000000000000164e-05,0.000000000000000000e+00,-2.000000000000000164e-05,-1.699999999999999851e-04,-2.000000000000000164e-05,5.500000000000000331e-04,6.000000000000000000e+00,2.300000000000000000e+01
5.591800000000000000e+04,1.699999999999999851e-04,1.000000000000000082e-05,-2.000000000000000164e-05,0.000000000000000000e+00,-2.000000000000000164e-05,-1.699999999999999851e-04,-2.000000000000000164e-05,5.500000000000000331e-04,6.000000000000000000e+00,2.300000000000000000e+01
5.591900000000000000e+04,1.699999999999999851e-04,1.000000000000000082e-05,-2.000000000000000164e-05,0.000000000000000000e+00,-2.000000000000000164e-05,-1.699999999999999851e-04,-2.000000000000000164e-05,5.500000000000000331e-04,6.000000000000000000e+00,2.300000000000000000e+01
5.592000000000000000e+04,1.699999999999999851e-04,1.000000000000000082e-05,-2.000000000000000164e-05,0.000000000000000000e+00,-2.000000000000000164e-05,-1.699999999999999851e-04,-2.000000000000000164e-05,5.500000000000000331e-04,6.000000000000000000e+00,2.300000000000000000e+01
5.592100000000000000e+04,1.699999999999999851e-04,1.000000000000000082e-05,-2.000000000000000164e-05,0.000000000000000000e+00,-2.000000000000000164e-05,-1.699999999999999851e-04,-2.000000000000000164e-05,5.500000000000000331e-04,6.000000000000000000e+00,2.300000000000000000e+01
5.592200000000000000e+04,1.699999999999999851e-04,1.000000000000000082e-05,-2.000000000000000164e-05,0.000000000000000000e+00,-2.000000000000000164e-05,-1.699999999999999851e-04,-2.000000000000000164e-05,5.500000000000000331e-04,6.000000000000000000e+00,2.300000000000000000e+01
5.592300000000000000e+04,1.699999999999999851e-04,1.000000000000000082e-05,-2.000000000000000164e-05,0.000000000000000000e+00,-2.000000000000000164e-05,-1.699999999999999851e-04,-2.000000000000000164e-05,5.500000000000000331e-04,6.000000000000000000e+00,2.300000000000000000e+01
5.592400000000000000e+04,1.699999999999999851e-04,1.000000000000000082e-05,-2.000000000000000164e-05,0.000000000000000000e+00,-2.000000000000000164e-05,-1.699999999999999851e-04,-2.000000000000000164e-05,5.500000000000000331e-04,6.000000000000000000e+00,2.300000000000000000e+01
5.592500000000000000e+04,-1.000000000000000082e-05,-2.999999999999999737e-05,0.000000000000000000e+00,-4.000000000000000327e-05,-1.300000000000000157e-04,-2.999999999999999737e-04,1.800000000000000113e-04,1.899999999999999834e-04,6.000000000000000000e+00,2.300000000000000000e+01
5.592600000000000000e+04,6.999999999999999387e-05,-2.000000000000000164e-05,-2.000000000000000164e-05,-2.000000000000000164e-05,-1.199999999999999895e-04,6.999999999999999387e-05,1.199999999999999895e-04,6.799999999999999404e-04,6.000000000000000000e+00,2.300000000000000000e+01
5.592700000000000000e+04,-1.699999999999999851e-04,1.699999999999999851e-04,4.000000000000000327e-05,1.000000000000000048e-04,-6.999999999999999387e-05,-6.700000000000000226e-04,-2.399999999999999790e-04,-9.000000000000000567e-05,6.000000000000000000e+00,2.300000000000000000e+01
5.592800000000000000e+04,-1.699999999999999851e-04,1.699999999999999851e-04,4.000000000000000327e-05,1.000000000000000048e-04,-6.999999999999999387e-05,-6.700000000000000226e-04,-2.399999999999999790e-04,-9.000000000000000567e-05,6.000000000000000000e+00,2.300000000000000000e+01
5.592900000000000000e+04,-1.699999999999999851e-04,1.699999999999999851e-04,4.000000000000000327e-05,1.000000000000000048e-04,-6.999999999999999387e-05,-6.700000000000000226e-04,-2.399999999999999790e-04,-9.000000000000000567e-05,6.000000000000000000e+00,2.300000000000000000e+01
5.593000000000000000e+04,-1.699999999999999851e-04,1.699999999999999851e-04,4.000000000000000327e-05,1.000000000000000048e-04,-6.999999999999999387e-05,-6.700000000000000226e-04,-2.399999999999999790e-04,-9.000000000000000567e-05,6.000000000000000000e+00,2.300000000000000000e+01
5.593100000000000000e+04,-1.699999999999999851e-04,1.699999999999999851e-04,4.000000000000000327e-05,1.000000000000000048e-04,-6.999999999999999387e-05,-6.700000000000000226e-04,-2.399999999999999790e-04,-9.000000000000000567e-05,6.000000000000000000e+00,2.300000000000000000e+01
5.593200000000000000e+04,-1.699999999999999851e-04,1.699999999999999851e-04,4.000000000000000327e-05,1.000000000000000048e-04,-6.999999999999999387e-05,-6.700000000000000226e-04,-2.399999999999999790e-04,-9.000000000000000567e-05,6.000000000000000000e+00,2.300000000000000000e+01
5.593300000000000000e+04,-1.699999999999999851e-04,1.699999999999999851e-04,4.000000000000000327e-05,1.000000000000000048e-04,-6.999999999999999387e-05,-6.700000000000000226e-04,-2.399999999999999790e-04,-9.000000000000000567e-05,6.000000000000000000e+00,2.300000000000000000e+01
5.593400000000000000e+04,-1.699999999999999851e-04,1.699999999999999851e-04,4.000000000000000327e-05,1.000000000000000048e-04,-6.999999999999999387e-05,-6.700000000000000226e-04,-2.399999999999999790e-04,-9.000000000000000567e-05,6.000000000000000000e+00,2.300000000000000000e+01
5.593500000000000000e+04,-1.699999999999999851e-04,1.699999999999999851e-04,4.000000000000000327e-05,1.000000000000000048e-04,-6.999999999999999387e-05,-6.700000000000000226e-04,-2.399999999999999790e-04,-9.000000000000000567e-05,6.000000000000000000e+00,2.300000000000000000e+01
5.593600000000000000e+04,-1.699999999999999851e-04,1.699999999999999851e-04,4.000000000000000327e-05,1.000000000000000048e-04,-6.999999999999999387e-05,-6.700000000000000226e-04,-2.399999999999999790e-04,-9.000000000000000567e-05,6.000000000000000000e+00,2.300000000000000000e+01
5.593800000000000000e+04,-1.699999999999999851e-04,1.699999999999999851e-04,4.000000000000000327e-05,1.000000000000000048e-04,-6.999999999999999387e-05,-6.700000000000000226e-04,-2.399999999999999790e-04,-9.000000000000000567e-05,6.000000000000000000e+00,2.300000000000000000e+01
5.593900000000000000e+04,-1.699999999999999851e-04,1.699999999999999851e-04,4.000000000000000327e-05,1.000000000000000048e-04,-6.999999999999999387e-05,-6.700000000000000226e-04,-2.399999999999999790e-04,-9.000000000000000567e-05,6.000000000000000000e+00,2.300000000000000000e+01
5.594000000000000000e+04,-1.699999999999999851e-04,1.699999999999999851e-04,4.000000000000000327e-05,1.000000000000000048e-04,-6.999999999999999387e-05,-6.700000000000000226e-04,-2.399999999999999790e-04,-9.000000000000000567e-05,6.000000000000000000e+00,2.300000000000000000e+01
5.594100000000000000e+04,-1.699999999999999851e-04,1.699999999999999851e-04,4.000000000000000327e-05,1.000000000000000048e-04,-6.999999999999999387e-05,-6.700000000000000226e-04,-2.399999999999999790e-04,-9.000000000000000567e-05,6.000000000000000000e+00,2.300000000000000000e+01
5.594200000000000000e+04,-1.699999999999999851e-04,1.699999999999999851e-04,4.000000000000000327e-05,1.000000000000000048e-04,-6.999999999999999387e-05,-6.700000000000000226e-04,-2.399999999999999790e-04,-9.000000000000000567e-05,6.000000000000000000e+00,2.300000000000000000e+01
5.594300000000000000e+04,-1.699999999999999851e-04,1.699999999999999851e-04,4.000000000000000327e-05,1.000000000000000048e-04,-6.999999999999999387e-05,-6.700000000000000226e-04,-2.399999999999999790e-04,-9.000000000000000567e-05,6.000000000000000000e+00,2.300000000000000000e+01
5.594400000000000000e+04,-1.699999999999999851e-04,1.699999999999999851e-04,4.000000000000000327e-05,1.000000000000000048e-04,-6.999999999999999387e-05,-6.700000000000000226e-04,-2.399999999999999790e-04,-9.000000000000000567e-05,6.000000000000000000e+00,2.300000000000000000e+01
5.594500000000000000e+04,-1.699999999999999851e-04,1.699999999999999851e-04,4.000000000000000327e-05,1.000000000000000048e-04,-6.999999999999999387e-05,-6.700000000000000226e-04,-2.399999999999999790e-04,-9.000000000000000567e-05,6.000000000000000000e+00,2.300000000000000000e+01
5.594600000000000000e+04,-1.699999999999999851e-04,1.699999999999999851e-04,4.000000000000000327e-05,1.000000000000000048e-04,-6.999999999999999387e-05,-6.700000000000000226e-04,-2.399999999999999790e-04,-9.000000000000000567e-05,6.000000000000000000e+00,2.300000000000000000e+01
5.594700000000000000e+04,-1.699999999999999851e-04,1.699999999999999851e-04,4.000000000000000327e-05,1.000000000000000048e-04,-6.999999999999999387e-05,-6.700000000000000226e-04,-2.399999999999999790e-04,-9.000000000000000567e-05,6.000000000000000000e+00,2.300000000000000000e+01
5.594800000000000000e+04,1.100000000000000039e-04,8.000000000000000654e-05,1.000000000000000082e-05,2.000000000000000164e-05,1.899999999999999834e-04,9.100000000000000016e-04,1.300000000000000157e-04,1.600000000000000131e-04,6.000000000000000000e+00,2.300000000000000000e+01
5.594900000000000000e+04,5.000000000000000240e-05,-1.000000000000000082e-05,-6.999999999999999387e-05,-1.199999999999999895e-04,-2.200000000000000078e-04,1.899999999999999834e-04,-2.999999999999999737e-05,-1.499999999999999869e-04,6.000000000000000000e+00,2.300000000000000000e+01
5.595000000000000000e+04,5.000000000000000240e-05,-1.000000000000000082e-05,-6.999999999999999387e-05,-1.199999999999999895e-04,-2.200000000000000078e-04,1.899999999999999834e-04,-2.999999999999999737e-05,-1.499999999999999869e-04,6.000000000000000000e+00,2.300000000000000000e+01
5.595100000000000000e+04,5.000000000000000240e-05,-1.000000000000000082e-05,-6.999999999999999387e-05,-1.199999999999999895e-04,-2.200000000000000078e-04,1.899999999999999834e-04,-2.999999999999999737e-05,-1.499999999999999869e-04,6.000000000000000000e+00,2.300000000000000000e+01
5.595200000000000000e+04,5.000000000000000240e-05,-1.000000000000000082e-05,-6.999999999999999387e-05,-1.199999999999999895e-04,-2.200000000000000078e-04,1.899999999999999834e-04,-2.999999999999999737e-05,-1.499999999999999869e-04,6.000000000000000000e+00,2.300000000000000000e+01
5.595300000000000000e+04,5.000000000000000240e-05,-1.000000000000000082e-05,-6.999999999999999387e-05,-1.199999999999999895e-04,-2.200000000000000078e-04,1.899999999999999834e-04,-2.999999999999999737e-05,-1.499999999999999869e-04,6.000000000000000000e+00,2.300000000000000000e+01
5.595400000000000000e+04,5.000000000000000240e-05,-1.000000000000000082e-05,-6.999999999999999387e-05,-1.199999999999999895e-04,-2.200000000000000078e-04,1.899999999999999834e-04,-2.999999999999999737e-05,-1.499999999999999869e-04,6.000000000000000000e+00,2.300000000000000000e+01
5.595500000000000000e+04,5.000000000000000240e-05,-1.000000000000000082e-05,-6.999999999999999387e-05,-1.199999999999999895e-04,-2.200000000000000078e-04,1.899999999999999834e-04,-2.999999999999999737e-05,-1.499999999999999869e-04,6.000000000000000000e+00,2.300000000000000000e+01
5.595600000000000000e+04,5.000000000000000240e-05,-1.000000000000000082e-05,-6.999999999999999387e-05,-1.199999999999999895e-04,-2.200000000000000078e-04,1.899999999999999834e-04,-2.999999999999999737e-05,-1.499999999999999869e-04,6.000000000000000000e+00,2.300000000000000000e+01
5.595700000000000000e+04,5.000000000000000240e-05,-1.000000000000000082e-05,-6.999999999999999387e-05,-1.199999999999999895e-04,-2.200000000000000078e-04,1.899999999999999834e-04,-2.999999999999999737e-05,-1.499999999999999869e-04,6.000000000000000000e+00,2.300000000000000000e+01
5.595800000000000000e+04,5.000000000000000240e-05,-1.000000000000000082e-05,-6.999999999999999387e-05,-1.199999999999999895e-04,-2.200000000000000078e-04,1.899999999999999834e-04,-2.999999999999999737e-05,-1.499999999999999869e-04,6.000000000000000000e+00,2.300000000000000000e+01
5.595900000000000000e+04,5.000000000000000240e-05,-1.000000000000000082e-05,-6.999999999999999387e-05,-1.199999999999999895e-04,-2.200000000000000078e-04,1.899999999999999834e-04,-2.999999999999999737e-05,-1.499999999999999869e-04,6.000000000000000000e+00,2.300000000000000000e+01
5.596000000000000000e+04,5.000000000000000240e-05,-1.000000000000000082e-05,-6.999999999999999387e-05,-1.199999999999999895e-04,-2.200000000000000078e-04,1.899999999999999834e-04,-2.999999999999999737e-05,-1.499999999999999869e-04,6.000000000000000000e+00,2.300000000000000000e+01
5.596100000000000000e+04,5.000000000000000240e-05,-1.000000000000000082e-05,-6.999999999999999387e-05,-1.199999999999999895e-04,-2.200000000000000078e-04,1.899999999999999834e-04,-2.999999999999999737e-05,-1.499999999999999869e-04,6.000000000000000000e+00,2.300000000000000000e+01
5.596200000000000000e+04,1.199999999999999895e-04,-2.000000000000000164e-05,1.000000000000000082e-05,1.000000000000000082e-05,5.699999999999999772e-04,-4.599999999999999597e-04,-1.100000000000000039e-04,4.499999999999999877e-04,6.000000000000000000e+00,2.300000000000000000e+01
5.596300000000000000e+04,1.199999999999999895e-04,-2.000000000000000164e-05,1.000000000000000082e-05,1.000000000000000082e-05,5.699999999999999772e-04,-4.599999999999999597e-04,-1.100000000000000039e-04,4.499999999999999877e-04,6.000000000000000000e+00,2.300000000000000000e+01
5.596400000000000000e+04,1.199999999999999895e-04,-2.000000000000000164e-05,1.000000000000000082e-05,1.000000000000000082e-05,5.699999999999999772e-04,-4.599999999999999597e-04,-1.100000000000000039e-04,4.499999999999999877e-04,6.000000000000000000e+00,2.300000000000000000e+01
5.596500000000000000e+04,1.199999999999999895e-04,-2.000000000000000164e-05,1.000000000000000082e-05,1.000000000000000082e-05,5.699999999999999772e-04,-4.599999999999999597e-04,-1.100000000000000039e-04,4.499999999999999877e-04,6.000000000000000000e+00,2.300000000000000000e+01
5.596600000000000000e+04,1.199999999999999895e-04,-2.000000000000000164e-05,1.000000000000000082e-05,1.000000000000000082e-05,5.699999999999999772e-04,-4.599999999999999597e-04,-1.100000000000000039e-04,4.499999999999999877e-04,6.000000000000000000e+00,2.300000000000000000e+01
5.596700000000000000e+04,1.199999999999999895e-04,-2.000000000000000164e-05,1.000000000000000082e-05,1.000000000000000082e-05,5.699999999999999772e-04,-4.599999999999999597e-04,-1.100000000000000039e-04,4.499999999999999877e-04,6.000000000000000000e+00,2.300000000000000000e+01
5.596800000000000000e+04,0.000000000000000000e+00,5.999999999999999474e-05,5.000000000000000240e-05,5.999999999999999474e-05,-1.100000000000000039e-04,1.399999999999999877e-04,5.999999999999999474e-05,-1.199999999999999895e-04,6.000000000000000000e+00,2.300000000000000000e+01
5.596900000000000000e+04,-1.199999999999999895e-04,-8.000000000000000654e-05,-1.000000000000000082e-05,-4.000000000000000327e-05,-5.999999999999999474e-05,3.299999999999999982e-04,1.000000000000000082e-05,2.000000000000000096e-04,6.000000000000000000e+00,2.300000000000000000e+01
5.597000000000000000e+04,-1.199999999999999895e-04,-8.000000000000000654e-05,-1.000000000000000082e-05,-4.000000000000000327e-05,-5.999999999999999474e-05,3.299999999999999982e-04,1.000000000000000082e-05,2.000000000000000096e-04,6.000000000000000000e+00,2.300000000000000000e+01
5.597100000000000000e+04,-1.199999999999999895e-04,-8.000000000000000654e-05,-1.000000000000000082e-05,-4.000000000000000327e-05,-5.999999999999999474e-05,3.299999999999999982e-04,1.000000000000000082e-05,2.000000000000000096e-04,6.000000000000000000e+00,2.300000000000000000e+01
5.597200000000000000e+04,-1.199999999999999895e-04,-8.000000000000000654e-05,-1.000000000000000082e-05,-4.000000000000000327e-05,-5.999999999999999474e-05,3.299999999999999982e-04,1.000000000000000082e-05,2.000000000000000096e-04,6.000000000000000000e+00,2.300000000000000000e+01
5.597300000000000000e+04,-1.199999999999999895e-04,-8.000000000000000654e-05,-1.000000000000000082e-05,-4.000000000000000327e-05,-5.999999999999999474e-05,3.299999999999999982e-04,1.000000000000000082e-05,2.000000000000000096e-04,6.000000000000000000e+00,2.300000000000000000e+01
5.597400000000000000e+04,-1.199999999999999895e-04,-8.000000000000000654e-05,-1.000000000000000082e-05,-4.000000000000000327e-05,-5.999999999999999474e-05,3.299999999999999982e-04,1.000000000000000082e-05,2.000000000000000096e-04,6.000000000000000000e+00,2.300000000000000000e+01
5.597500000000000000e+04,-1.199999999999999895e-04,-8.000000000000000654e-05,-1.000000000000000082e-05,-4.000000000000000327e-05,-5.999999999999999474e-05,3.299999999999999982e-04,1.000000000000000082e-05,2.000000000000000096e-04,6.000000000000000000e+00,2.300000000000000000e+01
5.597600000000000000e+04,-1.199999999999999895e-04,-8.000000000000000654e-05,-1.000000000000000082e-05,-4.000000000000000327e-05,-5.999999999999999474e-05,3.299999999999999982e-04,1.000000000000000082e-05,2.000000000000000096e-04,6.000000000000000000e+00,2.300000000000000000e+01
5.597700000000000000e+04,-1.199999999999999895e-04,-8.000000000000000654e-05,-1.000000000000000082e-05,-4.000000000000000327e-05,-5.999999999999999474e-05,3.299999999999999982e-04,1.000000000000000082e-05,2.000000000000000096e-04,6.000000000000000000e+00,2.300000000000000000e+01
5.597800000000000000e+04,-1.199999999999999895e-04,-8.000000000000000654e-05,-1.000000000000000082e-05,-4.000000000000000327e-05,-5.999999999999999474e-05,3.299999999999999982e-04,1.000000000000000082e-05,2.000000000000000096e-04,6.000000000000000000e+00,2.300000000000000000e+01
5.597900000000000000e+04,-1.199999999999999895e-04,-8.000000000000000654e-05,-1.000000000000000082e-05,-4.000000000000000327e-05,-5.999999999999999474e-05,3.299999999999999982e-04,1.000000000000000082e-05,2.000000000000000096e-04,6.000000000000000000e+00,2.300000000000000000e+01
5.598000000000000000e+04,-1.199999999999999895e-04,-8.000000000000000654e-05,-1.000000000000000082e-05,-4.000000000000000327e-05,-5.999999999999999474e-05,3.299999999999999982e-04,1.000000000000000082e-05,2.000000000000000096e-04,6.000000000000000000e+00,2.300000000000000000e+01
5.598100000000000000e+04,-1.199999999999999895e-04,-8.000000000000000654e-05,-1.000000000000000082e-05,-4.000000000000000327e-05,-5.999999999999999474e-05,3.299999999999999982e-04,1.000000000000000082e-05,2.000000000000000096e-04,6.000000000000000000e+00,2.300000000000000000e+01
5.598200000000000000e+04,-1.199999999999999895e-04,-8.000000000000000654e-05,-1.000000000000000082e-05,-4.000000000000000327e-05,-5.999999999999999474e-05,3.299999999999999982e-04,1.000000000000000082e-05,2.000000000000000096e-04,6.000000000000000000e+00,2.300000000000000000e+01
5.598300000000000000e+04,-1.199999999999999895e-04,-8.000000000000000654e-05,-1.000000000000000082e-05,-4.000000000000000327e-05,-5.999999999999999474e-05,3.299999999999999982e-04,1.000000000000000082e-05,2.000000000000000096e-04,6.000000000000000000e+00,2.300000000000000000e+01
5.598400000000000000e+04,-1.199999999999999895e-04,-8.000000000000000654e-05,-1.000000000000000082e-05,-4.000000000000000327e-05,-5.999999999999999474e-05,3.299999999999999982e-04,1.000000000000000082e-05,2.000000000000000096e-04,6.000000000000000000e+00,2.300000000000000000e+01
5.598500000000000000e+04,-1.499999999999999869e-04,-2.999999999999999737e-05,-2.999999999999999737e-05,-2.999999999999999737e-05,3.399999999999999702e-04,-4.000000000000000192e-04,0.000000000000000000e+00,-4.499999999999999877e-04,6.000000000000000000e+00,2.300000000000000000e+01
5.598600000000000000e+04,9.000000000000000567e-05,2.000000000000000164e-05,-1.000000000000000082e-05,-8.000000000000000654e-05,-3.499999999999999964e-04,5.200000000000000629e-04,2.999999999999999737e-05,7.200000000000000453e-04,6.000000000000000000e+00,2.300000000000000000e+01
5.598800000000000000e+04,-9.000000000000000567e-05,2.999999999999999737e-05,0.000000000000000000e+00,1.000000000000000048e-04,5.900000000000000296e-04,-3.200000000000000262e-04,8.000000000000000654e-05,-2.700000000000000035e-04,6.000000000000000000e+00,2.300000000000000000e+01
5.598900000000000000e+04,-9.000000000000000567e-05,2.999999999999999737e-05,0.000000000000000000e+00,1.000000000000000048e-04,5.900000000000000296e-04,-3.200000000000000262e-04,8.000000000000000654e-05,-2.700000000000000035e-04,6.000000000000000000e+00,2.300000000000000000e+01
5.599000000000000000e+04,-9.000000000000000567e-05,2.999999999999999737e-05,0.000000000000000000e+00,1.000000000000000048e-04,5.900000000000000296e-04,-3.200000000000000262e-04,8.000000000000000654e-05,-2.700000000000000035e-04,6.000000000000000000e+00,2.300000000000000000e+01
5.599100000000000000e+04,-9.000000000000000567e-05,2.999999999999999737e-05,0.000000000000000000e+00,1.000000000000000048e-04,5.900000000000000296e-04,-3.200000000000000262e-04,8.000000000000000654e-05,-2.700000000000000035e-04,6.000000000000000000e+00,2.300000000000000000e+01
5.599200000000000000e+04,-9.000000000000000567e-05,2.999999999999999737e-05,0.000000000000000000e+00,1.000000000000000048e-04,5.900000000000000296e-04,-3.200000000000000262e-04,8.000000000000000654e-05,-2.700000000000000035e-04,6.000000000000000000e+00,2.300000000000000000e+01
5.599300000000000000e+04,-9.000000000000000567e-05,2.999999999999999737e-05,0.000000000000000000e+00,1.000000000000000048e-04,5.900000000000000296e-04,-3.200000000000000262e-04,8.000000000000000654e-05,-2.700000000000000035e-04,6.000000000000000000e+00,2.300000000000000000e+01
5.599400000000000000e+04,-9.000000000000000567e-05,2.999999999999999737e-05,0.000000000000000000e+00,1.000000000000000048e-04,5.900000000000000296e-04,-3.200000000000000262e-04,8.000000000000000654e-05,-2.700000000000000035e-04,6.000000000000000000e+00,2.300000000000000000e+01
5.599500000000000000e+04,-9.000000000000000567e-05,2.999999999999999737e-05,0.000000000000000000e+00,1.000000000000000048e-04,5.900000000000000296e-04,-3.200000000000000262e-04,8.000000000000000654e-05,-2.700000000000000035e-04,6.000000000000000000e+00,2.300000000000000000e+01
5.599600000000000000e+04,-9.000000000000000567e-05,2.999999999999999737e-05,0.000000000000000000e+00,1.000000000000000048e-04,5.900000000000000296e-04,-3.200000000000000262e-04,8.000000000000000654e-05,-2.700000000000000035e-04,6.000000000000000000e+00,2.300000000000000000e+01
5.599700000000000000e+04,-9.000000000000000567e-05,2.999999999999999737e-05,0.000000000000000000e+00,1.000000000000000048e-04,5.900000000000000296e-04,-3.200000000000000262e-04,8.000000000000000654e-05,-2.700000000000000035e-04,6.000000000000000000e+00,2.300000000000000000e+01
5.599800000000000000e+04,-9.000000000000000567e-05,2.999999999999999737e-05,0.000000000000000000e+00,1.000000000000000048e-04,5.900000000000000296e-04,-3.200000000000000262e-04,8.000000000000000654e-05,-2.700000000000000035e-04,6.000000000000000000e+00,2.300000000000000000e+01
5.599900000000000000e+04,-9.000000000000000567e-05,2.999999999999999737e-05,0.000000000000000000e+00,1.000000000000000048e-04,5.900000000000000296e-04,-3.200000000000000262e-04,8.000000000000000654e-05,-2.700000000000000035e-04,6.000000000000000000e+00,2.300000000000000000e+01
5.600000000000000000e+04,-9.000000000000000567e-05,2.999999999999999737e-05,0.000000000000000000e+00,1.000000000000000048e-04,5.900000000000000296e-04,-3.200000000000000262e-04,8.000000000000000654e-05,-2.700000000000000035e-04,6.000000000000000000e+00,2.300000000000000000e+01
5.600100000000000000e+04,-9.000000000000000567e-05,2.999999999999999737e-05,0.000000000000000000e+00,1.000000000000000048e-04,5.900000000000000296e-04,-3.200000000000000262e-04,8.000000000000000654e-05,-2.700000000000000035e-04,6.000000000000000000e+00,2.300000000000000000e+01
5.600200000000000000e+04,-9.000000000000000567e-05,2.999999999999999737e-05,0.000000000000000000e+00,1.000000000000000048e-04,5.900000000000000296e-04,-3.200000000000000262e-04,8.000000000000000654e-05,-2.700000000000000035e-04,6.000000000000000000e+00,2.300000000000000000e+01
5.600300000000000000e+04,-9.000000000000000567e-05,2.999999999999999737e-05,0.000000000000000000e+00,1.000000000000000048e-04,5.900000000000000296e-04,-3.200000000000000262e-04,8.000000000000000654e-05,-2.700000000000000035e-04,6.000000000000000000e+00,2.300000000000000000e+01
5.600400000000000000e+04,-9.000000000000000567e-05,2.999999999999999737e-05,0.000000000000000000e+00,1.000000000000000048e-04,5.900000000000000296e-04,-3.200000000000000262e-04,8.000000000000000654e-05,-2.700000000000000035e-04,6.000000000000000000e+00,2.300000000000000000e+01
5.600500000000000000e+04,-9.000000000000000567e-05,2.999999999999999737e-05,0.000000000000000000e+00,1.000000000000000048e-04,5.900000000000000296e-04,-3.200000000000000262e-04,8.000000000000000654e-05,-2.700000000000000035e-04,6.000000000000000000e+00,2.300000000000000000e+01
5.600600000000000000e+04,-9.000000000000000567e-05,2.999999999999999737e-05,0.000000000000000000e+00,1.000000000000000048e-04,5.900000000000000296e-04,-3.200000000000000262e-04,8.000000000000000654e-05,-2.700000000000000035e-04,6.000000000000000000e+00,2.300000000000000000e+01
5.600700000000000000e+04,-2.200000000000000078e-04,-2.000000000000000164e-05,2.000000000000000164e-05,-1.000000000000000082e-05,-3.099999999999999999e-04,2.299999999999999799e-04,4.099999999999999912e-04,-5.000000000000000240e-05,6.000000000000000000e+00,2.300000000000000000e+01
5.600800000000000000e+04,4.799999999999999580e-04,-1.000000000000000082e-05,-1.000000000000000082e-05,-5.000000000000000240e-05,-3.399999999999999702e-04,1.000000000000000082e-05,2.000000000000000164e-05,2.000000000000000096e-04,6.000000000000000000e+00,2.300000000000000000e+01
5.600900000000000000e+04,-2.999999999999999737e-05,-1.000000000000000082e-05,-2.000000000000000164e-05,1.000000000000000082e-05,-1.100000000000000039e-04,3.099999999999999999e-04,6.999999999999999387e-05,-5.000000000000000240e-05,6.000000000000000000e+00,2.300000000000000000e+01
5.601000000000000000e+04,-2.999999999999999737e-05,-1.000000000000000082e-05,-2.000000000000000164e-05,1.000000000000000082e-05,-1.100000000000000039e-04,3.099999999999999999e-04,6.999999999999999387e-05,-5.000000000000000240e-05,6.000000000000000000e+00,2.300000000000000000e+01
5.601100000000000000e+04,-2.999999999999999737e-05,-1.000000000000000082e-05,-2.000000000000000164e-05,1.000000000000000082e-05,-1.100000000000000039e-04,3.099999999999999999e-04,6.999999999999999387e-05,-5.000000000000000240e-05,6.000000000000000000e+00,2.300000000000000000e+01
5.601200000000000000e+04,-2.999999999999999737e-05,-1.000000000000000082e-05,-2.000000000000000164e-05,1.000000000000000082e-05,-1.100000000000000039e-04,3.099999999999999999e-04,6.999999999999999387e-05,-5.000000000000000240e-05,6.000000000000000000e+00,2.300000000000000000e+01
5.601300000000000000e+04,-2.999999999999999737e-05,-1.000000000000000082e-05,-2.000000000000000164e-05,1.000000000000000082e-05,-1.100000000000000039e-04,3.099999999999999999e-04,6.999999999999999387e-05,-5.000000000000000240e-05,6.000000000000000000e+00,2.300000000000000000e+01
5.601400000000000000e+04,-2.999999999999999737e-05,-1.000000000000000082e-05,-2.000000000000000164e-05,1.000000000000000082e-05,-1.100000000000000039e-04,3.099999999999999999e-04,6.999999999999999387e-05,-5.000000000000000240e-05,6.000000000000000000e+00,2.300000000000000000e+01
5.601500000000000000e+04,-2.999999999999999737e-05,-1.000000000000000082e-05,-2.000000000000000164e-05,1.000000000000000082e-05,-1.100000000000000039e-04,3.099999999999999999e-04,6.999999999999999387e-05,-5.000000000000000240e-05,6.000000000000000000e+00,2.300000000000000000e+01
5.601600000000000000e+04,-2.999999999999999737e-05,-1.000000000000000082e-05,-2.000000000000000164e-05,1.000000000000000082e-05,-1.100000000000000039e-04,3.099999999999999999e-04,6.999999999999999387e-05,-5.000000000000000240e-05,6.000000000000000000e+00,2.300000000000000000e+01
5.601700000000000000e+04,-2.999999999999999737e-05,-1.000000000000000082e-05,-2.000000000000000164e-05,1.000000000000000082e-05,-1.100000000000000039e-04,3.099999999999999999e-04,6.999999999999999387e-05,-5.000000000000000240e-05,6.000000000000000000e+00,2.300000000000000000e+01
5.601800000000000000e+04,-2.999999999999999737e-05,-1.000000000000000082e-05,-2.000000000000000164e-05,1.000000000000000082e-05,-1.100000000000000039e-04,3.099999999999999999e-04,6.999999999999999387e-05,-5.000000000000000240e-05,6.000000000000000000e+00,2.300000000000000000e+01
5.601900000000000000e+04,-2.999999999999999737e-05,-1.000000000000000082e-05,-2.000000000000000164e-05,1.000000000000000082e-05,-1.100000000000000039e-04,3.099999999999999999e-04,6.999999999999999387e-05,-5.000000000000000240e-05,6.000000000000000000e+00,2.300000000000000000e+01
5.602000000000000000e+04,-2.999999999999999737e-05,-1.000000000000000082e-05,-2.000000000000000164e-05,1.000000000000000082e-05,-1.100000000000000039e-04,3.099999999999999999e-04,6.999999999999999387e-05,-5.000000000000000240e-05,6.000000000000000000e+00,2.300000000000000000e+01
5.602100000000000000e+04,-8.000000000000000654e-05,-2.000000000000000164e-05,-2.000000000000000164e-05,9.000000000000000567e-05,4.499999999999999877e-04,5.999999999999999474e-04,0.000000000000000000e+00,-5.699999999999999772e-04,6.000000000000000000e+00,2.300000000000000000e+01
5.602200000000000000e+04,-8.000000000000000654e-05,-2.000000000000000164e-05,-2.000000000000000164e-05,9.000000000000000567e-05,4.499999999999999877e-04,5.999999999999999474e-04,0.000000000000000000e+00,-5.699999999999999772e-04,6.000000000000000000e+00,2.300000000000000000e+01
5.602300000000000000e+04,-8.000000000000000654e-05,-2.000000000000000164e-05,-2.000000000000000164e-05,9.000000000000000567e-05,4.499999999999999877e-04,5.999999999999999474e-04,0.000000000000000000e+00,-5.699999999999999772e-04,6.000000000000000000e+00,2.300000000000000000e+01
5.602400000000000000e+04,-8.000000000000000654e-05,-2.000000000000000164e-05,-2.000000000000000164e-05,9.000000000000000567e-05,4.499999999999999877e-04,5.999999999999999474e-04,0.000000000000000000e+00,-5.699999999999999772e-04,6.000000000000000000e+00,2.300000000000000000e+01
5.602500000000000000e+04,-8.000000000000000654e-05,-2.000000000000000164e-05,-2.000000000000000164e-05,9.000000000000000567e-05,4.499999999999999877e-04,5.999999999999999474e-04,0.000000000000000000e+00,-5.699999999999999772e-04,6.000000000000000000e+00,2.300000000000000000e+01
5.602600000000000000e+04,-8.000000000000000654e-05,-2.000000000000000164e-05,-2.000000000000000164e-05,9.000000000000000567e-05,4.499999999999999877e-04,5.999999999999999474e-04,0.000000000000000000e+00,-5.699999999999999772e-04,6.000000000000000000e+00,2.300000000000000000e+01
5.602700000000000000e+04,-8.000000000000000654e-05,-2.000000000000000164e-05,-2.000000000000000164e-05,9.000000000000000567e-05,4.499999999999999877e-04,5.999999999999999474e-04,0.000000000000000000e+00,-5.699999999999999772e-04,6.000000000000000000e+00,2.300000000000000000e+01
5.602800000000000000e+04,-8.000000000000000654e-05,-2.000000000000000164e-05,-2.000000000000000164e-05,9.000000000000000567e-05,4.499999999999999877e-04,5.999999999999999474e-04,0.000000000000000000e+00,-5.699999999999999772e-04,6.000000000000000000e+00,2.300000000000000000e+01
5.602900000000000000e+04,-8.000000000000000654e-05,-2.000000000000000164e-05,-2.000000000000000164e-05,9.000000000000000567e-05,4.499999999999999877e-04,5.999999999999999474e-04,0.000000000000000000e+00,-5.699999999999999772e-04,6.000000000000000000e+00,2.300000000000000000e+01
5.603000000000000000e+04,-8.000000000000000654e-05,-8.000000000000000654e-05,-5.000000000000000240e-05,2.000000000000000164e-05,-1.399999999999999877e-04,1.300000000000000157e-04,2.000000000000000096e-04,-2.900000000000000017e-04,6.000000000000000000e+00,2.300000000000000000e+01
5.603100000000000000e+04,-8.000000000000000654e-05,-8.000000000000000654e-05,-5.000000000000000240e-05,2.000000000000000164e-05,-1.399999999999999877e-04,1.300000000000000157e-04,2.000000000000000096e-04,-2.900000000000000017e-04,6.000000000000000000e+00,2.300000000000000000e+01
5.603200000000000000e+04,-8.000000000000000654e-05,-8.000000000000000654e-05,-5.000000000000000240e-05,2.000000000000000164e-05,-1.399999999999999877e-04,1.300000000000000157e-04,2.000000000000000096e-04,-2.900000000000000017e-04,6.000000000000000000e+00,2.300000000000000000e+01
5.603300000000000000e+04,-8.000000000000000654e-05,-8.000000000000000654e-05,-5.000000000000000240e-05,2.000000000000000164e-05,-1.399999999999999877e-04,1.300000000000000157e-04,2.000000000000000096e-04,-2.900000000000000017e-04,6.000000000000000000e+00,2.300000000000000000e+01
5.603400000000000000e+04,-8.000000000000000654e-05,-8.000000000000000654e-05,-5.000000000000000240e-05,2.000000000000000164e-05,-1.399999999999999877e-04,1.300000000000000157e-04,2.000000000000000096e-04,-2.900000000000000017e-04,6.000000000000000000e+00,2.300000000000000000e+01
5.603500000000000000e+04,-8.000000000000000654e-05,-8.000000000000000654e-05,-5.000000000000000240e-05,2.000000000000000164e-05,-1.399999999999999877e-04,1.300000000000000157e-04,2.000000000000000096e-04,-2.900000000000000017e-04,6.000000000000000000e+00,2.300000000000000000e+01
5.603600000000000000e+04,-8.000000000000000654e-05,-8.000000000000000654e-05,-5.000000000000000240e-05,2.000000000000000164e-05,-1.399999999999999877e-04,1.300000000000000157e-04,2.000000000000000096e-04,-2.900000000000000017e-04,6.000000000000000000e+00,2.300000000000000000e+01
5.603800000000000000e+04,-8.000000000000000654e-05,-8.000000000000000654e-05,-5.000000000000000240e-05,2.000000000000000164e-05,-1.399999999999999877e-04,1.300000000000000157e-04,2.000000000000000096e-04,-2.900000000000000017e-04,6.000000000000000000e+00,2.300000000000000000e+01
5.603900000000000000e+04,-8.000000000000000654e-05,-8.000000000000000654e-05,-5.000000000000000240e-05,2.000000000000000164e-05,-1.399999999999999877e-04,1.300000000000000157e-04,2.000000000000000096e-04,-2.900000000000000017e-04,6.000000000000000000e+00,2.300000000000000000e+01
5.604000000000000000e+04,-8.000000000000000654e-05,-8.000000000000000654e-05,-5.000000000000000240e-05,2.000000000000000164e-05,-1.399999999999999877e-04,1.300000000000000157e-04,2.000000000000000096e-04,-2.900000000000000017e-04,6.000000000000000000e+00,2.300000000000000000e+01
5.604100000000000000e+04,-8.000000000000000654e-05,-8.000000000000000654e-05,-5.000000000000000240e-05,2.000000000000000164e-05,-1.399999999999999877e-04,1.300000000000000157e-04,2.000000000000000096e-04,-2.900000000000000017e-04,6.000000000000000000e+00,2.300000000000000000e+01
5.604200000000000000e+04,-8.000000000000000654e-05,-8.000000000000000654e-05,-5.000000000000000240e-05,2.000000000000000164e-05,-1.399999999999999877e-04,1.300000000000000157e-04,2.000000000000000096e-04,-2.900000000000000017e-04,6.000000000000000000e+00,2.300000000000000000e+01
5.604300000000000000e+04,-8.000000000000000654e-05,-8.000000000000000654e-05,-5.000000000000000240e-05,2.000000000000000164e-05,-1.399999999999999877e-04,1.300000000000000157e-04,2.000000000000000096e-04,-2.900000000000000017e-04,6.000000000000000000e+00,2.300000000000000000e+01
5.604400000000000000e+04,-8.000000000000000654e-05,-8.000000000000000654e-05,-5.000000000000000240e-05,2.000000000000000164e-05,-1.399999999999999877e-04,1.300000000000000157e-04,2.000000000000000096e-04,-2.900000000000000017e-04,6.000000000000000000e+00,2.300000000000000000e+01
5.604500000000000000e+04,-1.499999999999999869e-04,5.999999999999999474e-05,1.000000000000000082e-05,-6.999999999999999387e-05,-5.599999999999999509e-04,6.799999999999999404e-04,-2.999999999999999737e-05,2.999999999999999737e-05,6.000000000000000000e+00,2.300000000000000000e+01
5.604600000000000000e+04,-5.000000000000000240e-05,-1.000000000000000048e-04,2.000000000000000164e-05,2.999999999999999737e-05,-2.799999999999999755e-04,-1.499999999999999869e-04,-1.899999999999999834e-04,-5.099999999999999282e-04,6.000000000000000000e+00,2.300000000000000000e+01
5.604700000000000000e+04,-5.000000000000000240e-05,-1.000000000000000048e-04,2.000000000000000164e-05,2.999999999999999737e-05,-2.799999999999999755e-04,-1.499999999999999869e-04,-1.899999999999999834e-04,-5.099999999999999282e-04,6.000000000000000000e+00,2.300000000000000000e+01
5.604800000000000000e+04,-5.000000000000000240e-05,-1.000000000000000048e-04,2.000000000000000164e-05,2.999999999999999737e-05,-2.799999999999999755e-04,-1.499999999999999869e-04,-1.899999999999999834e-04,-5.099999999999999282e-04,6.000000000000000000e+00,2.300000000000000000e+01
5.604900000000000000e+04,-5.000000000000000240e-05,-1.000000000000000048e-04,2.000000000000000164e-05,2.999999999999999737e-05,-2.799999999999999755e-04,-1.499999999999999869e-04,-1.899999999999999834e-04,-5.099999999999999282e-04,6.000000000000000000e+00,2.300000000000000000e+01
5.605000000000000000e+04,-5.000000000000000240e-05,-1.000000000000000048e-04,2.000000000000000164e-05,2.999999999999999737e-05,-2.799999999999999755e-04,-1.499999999999999869e-04,-1.899999999999999834e-04,-5.099999999999999282e-04,6.000000000000000000e+00,2.300000000000000000e+01
5.605100000000000000e+04,-5.000000000000000240e-05,-1.000000000000000048e-04,2.000000000000000164e-05,2.999999999999999737e-05,-2.799999999999999755e-04,-1.499999999999999869e-04,-1.899999999999999834e-04,-5.099999999999999282e-04,6.000000000000000000e+00,2.300000000000000000e+01
5.605200000000000000e+04,-5.000000000000000240e-05,-1.000000000000000048e-04,2.000000000000000164e-05,2.999999999999999737e-05,-2.799999999999999755e-04,-1.499999999999999869e-04,-1.899999999999999834e-04,-5.099999999999999282e-04,6.000000000000000000e+00,2.300000000000000000e+01
5.605300000000000000e+04,-5.000000000000000240e-05,-1.000000000000000048e-04,2.000000000000000164e-05,2.999999999999999737e-05,-2.799999999999999755e-04,-1.499999999999999869e-04,-1.899999999999999834e-04,-5.099999999999999282e-04,6.000000000000000000e+00,2.300000000000000000e+01
5.605400000000000000e+04,-5.000000000000000240e-05,-1.000000000000000048e-04,2.000000000000000164e-05,2.999999999999999737e-05,-2.799999999999999755e-04,-1.499999999999999869e-04,-1.899999999999999834e-04,-5.099999999999999282e-04,6.000000000000000000e+00,2.300000000000000000e+01
5.605500000000000000e+04,-5.000000000000000240e-05,-1.000000000000000048e-04,2.000000000000000164e-05,2.999999999999999737e-05,-2.799999999999999755e-04,-1.499999999999999869e-04,-1.899999999999999834e-04,-5.099999999999999282e-04,6.000000000000000000e+00,2.300000000000000000e+01
5.605600000000000000e+04,-5.000000000000000240e-05,-1.000000000000000048e-04,2.000000000000000164e-05,2.999999999999999737e-05,-2.799999999999999755e-04,-1.499999999999999869e-04,-1.899999999999999834e-04,-5.099999999999999282e-04,6.000000000000000000e+00,2.300000000000000000e+01
5.605700000000000000e+04,-5.000000000000000240e-05,-1.000000000000000048e-04,2.000000000000000164e-05,2.999999999999999737e-05,-2.799999999999999755e-04,-1.499999999999999869e-04,-1.899999999999999834e-04,-5.099999999999999282e-04,6.000000000000000000e+00,2.300000000000000000e+01
5.605800000000000000e+04,-5.000000000000000240e-05,-1.000000000000000048e-04,2.000000000000000164e-05,2.999999999999999737e-05,-2.799999999999999755e-04,-1.499999999999999869e-04,-1.899999999999999834e-04,-5.099999999999999282e-04,6.000000000000000000e+00,2.300000000000000000e+01
5.605900000000000000e+04,-5.000000000000000240e-05,-1.000000000000000048e-04,2.000000000000000164e-05,2.999999999999999737e-05,-2.799999999999999755e-04,-1.499999999999999869e-04,-1.899999999999999834e-04,-5.099999999999999282e-04,6.000000000000000000e+00,2.300000000000000000e+01
5.606000000000000000e+04,-5.000000000000000240e-05,-1.000000000000000048e-04,2.000000000000000164e-05,2.999999999999999737e-05,-2.799999999999999755e-04,-1.499999999999999869e-04,-1.899999999999999834e-04,-5.099999999999999282e-04,6.000000000000000000e+00,2.300000000000000000e+01
5.606100000000000000e+04,-5.000000000000000240e-05,-1.000000000000000048e-04,2.000000000000000164e-05,2.999999999999999737e-05,-2.799999999999999755e-04,-1.499999999999999869e-04,-1.899999999999999834e-04,-5.099999999999999282e-04,6.000000000000000000e+00,2.300000000000000000e+01
5.606200000000000000e+04,-5.000000000000000240e-05,-1.000000000000000048e-04,2.000000000000000164e-05,2.999999999999999737e-05,-2.799999999999999755e-04,-1.499999999999999869e-04,-1.899999999999999834e-04,-5.099999999999999282e-04,6.000000000000000000e+00,2.300000000000000000e+01
5.606300000000000000e+04,-5.000000000000000240e-05,-1.000000000000000048e-04,2.000000000000000164e-05,2.999999999999999737e-05,-2.799999999999999755e-04,-1.499999999999999869e-04,-1.899999999999999834e-04,-5.099999999999999282e-04,6.000000000000000000e+00,2.300000000000000000e+01
5.606400000000000000e+04,-5.000000000000000240e-05,-1.000000000000000048e-04,2.000000000000000164e-05,2.999999999999999737e-05,-2.799999999999999755e-04,-1.499999999999999869e-04,-1.899999999999999834e-04,-5.099999999999999282e-04,6.000000000000000000e+00,2.300000000000000000e+01
5.606500000000000000e+04,-5.000000000000000240e-05,-1.000000000000000048e-04,2.000000000000000164e-05,2.999999999999999737e-05,-2.799999999999999755e-04,-1.499999999999999869e-04,-1.899999999999999834e-04,-5.099999999999999282e-04,6.000000000000000000e+00,2.300000000000000000e+01
5.606600000000000000e+04,-5.000000000000000240e-05,-1.000000000000000048e-04,2.000000000000000164e-05,2.999999999999999737e-05,-2.799999999999999755e-04,-1.499999999999999869e-04,-1.899999999999999834e-04,-5.099999999999999282e-04,6.000000000000000000e+00,2.300000000000000000e+01
5.606700000000000000e+04,-1.000000000000000082e-05,4.000000000000000327e-05,-8.000000000000000654e-05,-6.999999999999999387e-05,-1.399999999999999877e-04,1.100000000000000039e-04,1.000000000000000082e-05,-9.000000000000000567e-05,6.000000000000000000e+00,2.300000000000000000e+01
5.606800000000000000e+04,-1.600000000000000131e-04,0.000000000000000000e+00,5.000000000000000240e-05,4.000000000000000327e-05,-2.999999999999999737e-04,-3.299999999999999982e-04,-2.999999999999999737e-05,-1.100000000000000039e-04,6.000000000000000000e+00,2.300000000000000000e+01
5.606900000000000000e+04,-1.000000000000000048e-04,5.999999999999999474e-05,-1.000000000000000082e-05,2.000000000000000164e-05,-2.200000000000000078e-04,-3.499999999999999964e-04,2.399999999999999790e-04,6.400000000000000524e-04,6.000000000000000000e+00,2.300000000000000000e+01
5.607000000000000000e+04,-1.000000000000000048e-04,5.999999999999999474e-05,-1.000000000000000082e-05,2.000000000000000164e-05,-2.200000000000000078e-04,-3.499999999999999964e-04,2.399999999999999790e-04,6.400000000000000524e-04,6.000000000000000000e+00,2.300000000000000000e+01
5.607100000000000000e+04,-1.000000000000000048e-04,5.999999999999999474e-05,-1.000000000000000082e-05,2.000000000000000164e-05,-2.200000000000000078e-04,-3.499999999999999964e-04,2.399999999999999790e-04,6.400000000000000524e-04,6.000000000000000000e+00,2.300000000000000000e+01
5.607200000000000000e+04,-1.000000000000000048e-04,5.999999999999999474e-05,-1.000000000000000082e-05,2.000000000000000164e-05,-2.200000000000000078e-04,-3.499999999999999964e-04,2.399999999999999790e-04,6.400000000000000524e-04,6.000000000000000000e+00,2.300000000000000000e+01
5.607300000000000000e+04,-1.000000000000000048e-04,5.999999999999999474e-05,-1.000000000000000082e-05,2.000000000000000164e-05,-2.200000000000000078e-04,-3.499999999999999964e-04,2.399999999999999790e-04,6.400000000000000524e-04,6.000000000000000000e+00,2.300000000000000000e+01
5.607400000000000000e+04,-1.000000000000000048e-04,5.999999999999999474e-05,-1.000000000000000082e-05,2.000000000000000164e-05,-2.200000000000000078e-04,-3.499999999999999964e-04,2.399999999999999790e-04,6.400000000000000524e-04,6.000000000000000000e+00,2.300000000000000000e+01
5.607500000000000000e+04,-1.000000000000000048e-04,5.999999999999999474e-05,-1.000000000000000082e-05,2.000000000000000164e-05,-2.200000000000000078e-04,-3.499999999999999964e-04,2.399999999999999790e-04,6.400000000000000524e-04,6.000000000000000000e+00,2.300000000000000000e+01
5.607600000000000000e+04,-1.000000000000000048e-04,5.999999999999999474e-05,-1.000000000000000082e-05,2.000000000000000164e-05,-2.200000000000000078e-04,-3.499999999999999964e-04,2.399999999999999790e-04,6.400000000000000524e-04,6.000000000000000000e+00,2.300000000000000000e+01
5.607700000000000000e+04,-1.000000000000000048e-04,5.999999999999999474e-05,-1.000000000000000082e-05,2.000000000000000164e-05,-2.200000000000000078e-04,-3.499999999999999964e-04,2.399999999999999790e-04,6.400000000000000524e-04,6.000000000000000000e+00,2.300000000000000000e+01
5.607800000000000000e+04,-1.000000000000000048e-04,5.999999999999999474e-05,-1.000000000000000082e-05,2.000000000000000164e-05,-2.200000000000000078e-04,-3.499999999999999964e-04,2.399999999999999790e-04,6.400000000000000524e-04,6.000000000000000000e+00,2.300000000000000000e+01
5.607900000000000000e+04,-1.000000000000000048e-04,5.999999999999999474e-05,-1.000000000000000082e-05,2.000000000000000164e-05,-2.200000000000000078e-04,-3.499999999999999964e-04,2.399999999999999790e-04,6.400000000000000524e-04,6.000000000000000000e+00,2.300000000000000000e+01
5.608000000000000000e+04,-1.000000000000000048e-04,5.999999999999999474e-05,-1.000000000000000082e-05,2.000000000000000164e-05,-2.200000000000000078e-04,-3.499999999999999964e-04,2.399999999999999790e-04,6.400000000000000524e-04,6.000000000000000000e+00,2.300000000000000000e+01
5.608100000000000000e+04,-2.000000000000000164e-05,0.000000000000000000e+00,-1.100000000000000039e-04,-8.000000000000000654e-05,-1.800000000000000113e-04,-1.600000000000000131e-04,-1.100000000000000039e-04,-4.899999999999999842e-04,6.000000000000000000e+00,2.300000000000000000e+01
5.608200000000000000e+04,-2.000000000000000164e-05,0.000000000000000000e+00,-1.100000000000000039e-04,-8.000000000000000654e-05,-1.800000000000000113e-04,-1.600000000000000131e-04,-1.100000000000000039e-04,-4.899999999999999842e-04,6.000000000000000000e+00,2.300000000000000000e+01
5.608300000000000000e+04,-2.000000000000000164e-05,0.000000000000000000e+00,-1.100000000000000039e-04,-8.000000000000000654e-05,-1.800000000000000113e-04,-1.600000000000000131e-04,-1.100000000000000039e-04,-4.899999999999999842e-04,6.000000000000000000e+00,2.300000000000000000e+01
5.608400000000000000e+04,-2.000000000000000164e-05,0.000000000000000000e+00,-1.100000000000000039e-04,-8.000000000000000654e-05,-1.800000000000000113e-04,-1.600000000000000131e-04,-1.100000000000000039e-04,-4.899999999999999842e-04,6.000000000000000000e+00,2.300000000000000000e+01
5.608500000000000000e+04,-2.000000000000000164e-05,0.000000000000000000e+00,-1.100000000000000039e-04,-8.000000000000000654e-05,-1.800000000000000113e-04,-1.600000000000000131e-04,-1.100000000000000039e-04,-4.899999999999999842e-04,6.000000000000000000e+00,2.300000000000000000e+01
5.608600000000000000e+04,-2.000000000000000164e-05,0.000000000000000000e+00,-1.100000000000000039e-04,-8.000000000000000654e-05,-1.800000000000000113e-04,-1.600000000000000131e-04,-1.100000000000000039e-04,-4.899999999999999842e-04,6.000000000000000000e+00,2.300000000000000000e+01
5.608800000000000000e+04,-2.000000000000000164e-05,0.000000000000000000e+00,-1.100000000000000039e-04,-8.000000000000000654e-05,-1.800000000000000113e-04,-1.600000000000000131e-04,-1.100000000000000039e-04,-4.899999999999999842e-04,6.000000000000000000e+00,2.300000000000000000e+01
5.608900000000000000e+04,-2.000000000000000164e-05,0.000000000000000000e+00,-1.100000000000000039e-04,-8.000000000000000654e-05,-1.800000000000000113e-04,-1.600000000000000131e-04,-1.100000000000000039e-04,-4.899999999999999842e-04,6.000000000000000000e+00,2.300000000000000000e+01
5.609000000000000000e+04,-2.000000000000000164e-05,0.000000000000000000e+00,-1.100000000000000039e-04,-8.000000000000000654e-05,-1.800000000000000113e-04,-1.600000000000000131e-04,-1.100000000000000039e-04,-4.899999999999999842e-04,6.000000000000000000e+00,2.300000000000000000e+01
5.609100000000000000e+04,-2.000000000000000164e-05,0.000000000000000000e+00,-1.100000000000000039e-04,-8.000000000000000654e-05,-1.800000000000000113e-04,-1.600000000000000131e-04,-1.100000000000000039e-04,-4.899999999999999842e-04,6.000000000000000000e+00,2.300000000000000000e+01
5.609200000000000000e+04,-2.000000000000000164e-05,0.000000000000000000e+00,-1.100000000000000039e-04,-8.000000000000000654e-05,-1.800000000000000113e-04,-1.600000000000000131e-04,-1.100000000000000039e-04,-4.899999999999999842e-04,6.000000000000000000e+00,2.300000000000000000e+01
5.609300000000000000e+04,-2.000000000000000164e-05,0.000000000000000000e+00,-1.100000000000000039e-04,-8.000000000000000654e-05,-1.800000000000000113e-04,-1.600000000000000131e-04,-1.100000000000000039e-04,-4.899999999999999842e-04,6.000000000000000000e+00,2.300000000000000000e+01
5.609400000000000000e+04,-2.000000000000000164e-05,0.000000000000000000e+00,-1.100000000000000039e-04,-8.000000000000000654e-05,-1.800000000000000113e-04,-1.600000000000000131e-04,-1.100000000000000039e-04,-4.899999999999999842e-04,6.000000000000000000e+00,2.300000000000000000e+01
5.609500000000000000e+04,-2.000000000000000164e-05,0.000000000000000000e+00,-1.100000000000000039e-04,-8.000000000000000654e-05,-1.800000000000000113e-04,-1.600000000000000131e-04,-1.100000000000000039e-04,-4.899999999999999842e-04,6.000000000000000000e+00,2.300000000000000000e+01
5.609600000000000000e+04,-2.000000000000000164e-05,0.000000000000000000e+00,-1.100000000000000039e-04,-8.000000000000000654e-05,-1.800000000000000113e-04,-1.600000000000000131e-04,-1.100000000000000039e-04,-4.899999999999999842e-04,6.000000000000000000e+00,2.300000000000000000e+01
5.609700000000000000e+04,-2.000000000000000164e-05,0.000000000000000000e+00,-1.100000000000000039e-04,-8.000000000000000654e-05,-1.800000000000000113e-04,-1.600000000000000131e-04,-1.100000000000000039e-04,-4.899999999999999842e-04,6.000000000000000000e+00,2.300000000000000000e+01
5.609800000000000000e+04,2.000000000000000164e-05,-1.100000000000000039e-04,-4.000000000000000327e-05,-1.699999999999999851e-04,-1.000000000000000048e-04,-1.000000000000000082e-05,-2.399999999999999790e-04,1.699999999999999851e-04,6.000000000000000000e+00,2.300000000000000000e+01
5.609900000000000000e+04,2.000000000000000164e-05,-1.100000000000000039e-04,-4.000000000000000327e-05,-1.699999999999999851e-04,-1.000000000000000048e-04,-1.000000000000000082e-05,-2.399999999999999790e-04,1.699999999999999851e-04,6.000000000000000000e+00,2.300000000000000000e+01
5.610000000000000000e+04,2.000000000000000164e-05,-1.100000000000000039e-04,-4.000000000000000327e-05,-1.699999999999999851e-04,-1.000000000000000048e-04,-1.000000000000000082e-05,-2.399999999999999790e-04,1.699999999999999851e-04,6.000000000000000000e+00,2.300000000000000000e+01
5.610100000000000000e+04,2.000000000000000164e-05,-1.100000000000000039e-04,-4.000000000000000327e-05,-1.699999999999999851e-04,-1.000000000000000048e-04,-1.000000000000000082e-05,-2.399999999999999790e-04,1.699999999999999851e-04,6.000000000000000000e+00,2.300000000000000000e+01
5.610200000000000000e+04,2.000000000000000164e-05,-1.100000000000000039e-04,-4.000000000000000327e-05,-1.699999999999999851e-04,-1.000000000000000048e-04,-1.000000000000000082e-05,-2.399999999999999790e-04,1.699999999999999851e-04,6.000000000000000000e+00,2.300000000000000000e+01
5.610300000000000000e+04,2.000000000000000164e-05,-1.100000000000000039e-04,-4.000000000000000327e-05,-1.699999999999999851e-04,-1.000000000000000048e-04,-1.000000000000000082e-05,-2.399999999999999790e-04,1.699999999999999851e-04,6.000000000000000000e+00,2.300000000000000000e+01
5.610400000000000000e+04,2.000000000000000164e-05,-1.100000000000000039e-04,-4.000000000000000327e-05,-1.699999999999999851e-04,-1.000000000000000048e-04,-1.000000000000000082e-05,-2.399999999999999790e-04,1.699999999999999851e-04,6.000000000000000000e+00,2.300000000000000000e+01
5.610500000000000000e+04,-2.500000000000000052e-04,-8.000000000000000654e-05,2.000000000000000164e-05,1.100000000000000039e-04,6.400000000000000524e-04,8.300000000000001170e-04,6.999999999999999387e-05,-2.299999999999999799e-04,6.000000000000000000e+00,2.300000000000000000e+01
5.610600000000000000e+04,-5.000000000000000240e-05,6.999999999999999387e-05,2.999999999999999737e-05,-2.999999999999999737e-05,-1.300000000000000157e-04,-1.300000000000000157e-04,-4.000000000000000327e-05,-2.900000000000000017e-04,6.000000000000000000e+00,2.300000000000000000e+01
5.610700000000000000e+04,2.000000000000000164e-05,0.000000000000000000e+00,0.000000000000000000e+00,2.000000000000000164e-05,-4.000000000000000327e-05,-7.900000000000000121e-04,-8.000000000000000654e-05,1.199999999999999895e-04,6.000000000000000000e+00,2.300000000000000000e+01
5.610800000000000000e+04,2.000000000000000164e-05,0.000000000000000000e+00,0.000000000000000000e+00,2.000000000000000164e-05,-4.000000000000000327e-05,-7.900000000000000121e-04,-8.000000000000000654e-05,1.199999999999999895e-04,6.000000000000000000e+00,2.300000000000000000e+01
5.610900000000000000e+04,2.000000000000000164e-05,0.000000000000000000e+00,0.000000000000000000e+00,2.000000000000000164e-05,-4.000000000000000327e-05,-7.900000000000000121e-04,-8.000000000000000654e-05,1.199999999999999895e-04,6.000000000000000000e+00,2.300000000000000000e+01
5.611000000000000000e+04,2.000000000000000164e-05,0.000000000000000000e+00,0.000000000000000000e+00,2.000000000000000164e-05,-4.000000000000000327e-05,-7.900000000000000121e-04,-8.000000000000000654e-05,1.199999999999999895e-04,6.000000000000000000e+00,2.300000000000000000e+01
5.611100000000000000e+04,2.000000000000000164e-05,0.000000000000000000e+00,0.000000000000000000e+00,2.000000000000000164e-05,-4.000000000000000327e-05,-7.900000000000000121e-04,-8.000000000000000654e-05,1.199999999999999895e-04,6.000000000000000000e+00,2.300000000000000000e+01
5.611200000000000000e+04,2.000000000000000164e-05,0.000000000000000000e+00,0.000000000000000000e+00,2.000000000000000164e-05,-4.000000000000000327e-05,-7.900000000000000121e-04,-8.000000000000000654e-05,1.199999999999999895e-04,6.000000000000000000e+00,2.300000000000000000e+01
5.611300000000000000e+04,2.000000000000000164e-05,0.000000000000000000e+00,0.000000000000000000e+00,2.000000000000000164e-05,-4.000000000000000327e-05,-7.900000000000000121e-04,-8.000000000000000654e-05,1.199999999999999895e-04,6.000000000000000000e+00,2.300000000000000000e+01
5.611400000000000000e+04,2.000000000000000164e-05,0.000000000000000000e+00,0.000000000000000000e+00,2.000000000000000164e-05,-4.000000000000000327e-05,-7.900000000000000121e-04,-8.000000000000000654e-05,1.199999999999999895e-04,6.000000000000000000e+00,2.300000000000000000e+01
5.611500000000000000e+04,2.000000000000000164e-05,0.000000000000000000e+00,0.000000000000000000e+00,2.000000000000000164e-05,-4.000000000000000327e-05,-7.900000000000000121e-04,-8.000000000000000654e-05,1.199999999999999895e-04,6.000000000000000000e+00,2.300000000000000000e+01
5.611600000000000000e+04,2.000000000000000164e-05,0.000000000000000000e+00,0.000000000000000000e+00,2.000000000000000164e-05,-4.000000000000000327e-05,-7.900000000000000121e-04,-8.000000000000000654e-05,1.199999999999999895e-04,6.000000000000000000e+00,2.300000000000000000e+01
5.611700000000000000e+04,2.000000000000000164e-05,0.000000000000000000e+00,0.000000000000000000e+00,2.000000000000000164e-05,-4.000000000000000327e-05,-7.900000000000000121e-04,-8.000000000000000654e-05,1.199999999999999895e-04,6.000000000000000000e+00,2.300000000000000000e+01
5.611800000000000000e+04,2.000000000000000164e-05,0.000000000000000000e+00,0.000000000000000000e+00,2.000000000000000164e-05,-4.000000000000000327e-05,-7.900000000000000121e-04,-8.000000000000000654e-05,1.199999999999999895e-04,6.000000000000000000e+00,2.300000000000000000e+01
5.611900000000000000e+04,2.000000000000000164e-05,0.000000000000000000e+00,0.000000000000000000e+00,2.000000000000000164e-05,-4.000000000000000327e-05,-7.900000000000000121e-04,-8.000000000000000654e-05,1.199999999999999895e-04,6.000000000000000000e+00,2.300000000000000000e+01
5.612000000000000000e+04,2.000000000000000164e-05,0.000000000000000000e+00,0.000000000000000000e+00,2.000000000000000164e-05,-4.000000000000000327e-05,-7.900000000000000121e-04,-8.000000000000000654e-05,1.199999999999999895e-04,6.000000000000000000e+00,2.300000000000000000e+01
5.612100000000000000e+04,2.000000000000000164e-05,0.000000000000000000e+00,0.000000000000000000e+00,2.000000000000000164e-05,-4.000000000000000327e-05,-7.900000000000000121e-04,-8.000000000000000654e-05,1.199999999999999895e-04,6.000000000000000000e+00,2.300000000000000000e+01
5.612200000000000000e+04,2.000000000000000164e-05,0.000000000000000000e+00,0.000000000000000000e+00,2.000000000000000164e-05,-4.000000000000000327e-05,-7.900000000000000121e-04,-8.000000000000000654e-05,1.199999999999999895e-04,6.000000000000000000e+00,2.300000000000000000e+01
5.612300000000000000e+04,2.000000000000000164e-05,0.000000000000000000e+00,0.000000000000000000e+00,2.000000000000000164e-05,-4.000000000000000327e-05,-7.900000000000000121e-04,-8.000000000000000654e-05,1.199999999999999895e-04,6.000000000000000000e+00,2.300000000000000000e+01
5.612400000000000000e+04,2.000000000000000164e-05,0.000000000000000000e+00,0.000000000000000000e+00,2.000000000000000164e-05,-4.000000000000000327e-05,-7.900000000000000121e-04,-8.000000000000000654e-05,1.199999999999999895e-04,6.000000000000000000e+00,2.300000000000000000e+01
5.612500000000000000e+04,2.000000000000000164e-05,0.000000000000000000e+00,0.000000000000000000e+00,2.000000000000000164e-05,-4.000000000000000327e-05,-7.900000000000000121e-04,-8.000000000000000654e-05,1.199999999999999895e-04,6.000000000000000000e+00,2.300000000000000000e+01
5.612600000000000000e+04,2.000000000000000164e-05,0.000000000000000000e+00,0.000000000000000000e+00,2.000000000000000164e-05,-4.000000000000000327e-05,-7.900000000000000121e-04,-8.000000000000000654e-05,1.199999999999999895e-04,6.000000000000000000e+00,2.300000000000000000e+01
5.612700000000000000e+04,2.200000000000000078e-04,5.000000000000000240e-05,0.000000000000000000e+00,-1.000000000000000082e-05,1.000000000000000048e-04,8.499999999999999526e-04,2.999999999999999737e-05,3.399999999999999702e-04,6.000000000000000000e+00,2.300000000000000000e+01
5.612800000000000000e+04,6.999999999999999387e-05,-5.000000000000000240e-05,-2.999999999999999737e-05,-5.999999999999999474e-05,-2.200000000000000078e-04,-4.000000000000000192e-04,-1.600000000000000131e-04,1.699999999999999851e-04,6.000000000000000000e+00,2.300000000000000000e+01
5.612900000000000000e+04,2.600000000000000314e-04,1.000000000000000048e-04,4.000000000000000327e-05,4.000000000000000327e-05,1.600000000000000131e-04,6.300000000000000261e-04,3.299999999999999982e-04,9.799999999999999684e-04,6.000000000000000000e+00,2.300000000000000000e+01
5.613000000000000000e+04,2.600000000000000314e-04,1.000000000000000048e-04,4.000000000000000327e-05,4.000000000000000327e-05,1.600000000000000131e-04,6.300000000000000261e-04,3.299999999999999982e-04,9.799999999999999684e-04,6.000000000000000000e+00,2.300000000000000000e+01
5.613100000000000000e+04,2.600000000000000314e-04,1.000000000000000048e-04,4.000000000000000327e-05,4.000000000000000327e-05,1.600000000000000131e-04,6.300000000000000261e-04,3.299999999999999982e-04,9.799999999999999684e-04,6.000000000000000000e+00,2.300000000000000000e+01
5.613200000000000000e+04,2.600000000000000314e-04,1.000000000000000048e-04,4.000000000000000327e-05,4.000000000000000327e-05,1.600000000000000131e-04,6.300000000000000261e-04,3.299999999999999982e-04,9.799999999999999684e-04,6.000000000000000000e+00,2.300000000000000000e+01
5.613300000000000000e+04,2.600000000000000314e-04,1.000000000000000048e-04,4.000000000000000327e-05,4.000000000000000327e-05,1.600000000000000131e-04,6.300000000000000261e-04,3.299999999999999982e-04,9.799999999999999684e-04,6.000000000000000000e+00,2.300000000000000000e+01
5.613400000000000000e+04,2.600000000000000314e-04,1.000000000000000048e-04,4.000000000000000327e-05,4.000000000000000327e-05,1.600000000000000131e-04,6.300000000000000261e-04,3.299999999999999982e-04,9.799999999999999684e-04,6.000000000000000000e+00,2.300000000000000000e+01
5.613500000000000000e+04,2.600000000000000314e-04,1.000000000000000048e-04,4.000000000000000327e-05,4.000000000000000327e-05,1.600000000000000131e-04,6.300000000000000261e-04,3.299999999999999982e-04,9.799999999999999684e-04,6.000000000000000000e+00,2.300000000000000000e+01
5.613600000000000000e+04,2.600000000000000314e-04,1.000000000000000048e-04,4.000000000000000327e-05,4.000000000000000327e-05,1.600000000000000131e-04,6.300000000000000261e-04,3.299999999999999982e-04,9.799999999999999684e-04,6.000000000000000000e+00,2.300000000000000000e+01
5.613800000000000000e+04,2.600000000000000314e-04,1.000000000000000048e-04,4.000000000000000327e-05,4.000000000000000327e-05,1.600000000000000131e-04,6.300000000000000261e-04,3.299999999999999982e-04,9.799999999999999684e-04,6.000000000000000000e+00,2.300000000000000000e+01
5.613900000000000000e+04,2.600000000000000314e-04,1.000000000000000048e-04,4.000000000000000327e-05,4.000000000000000327e-05,1.600000000000000131e-04,6.300000000000000261e-04,3.299999999999999982e-04,9.799999999999999684e-04,6.000000000000000000e+00,2.300000000000000000e+01
5.614000000000000000e+04,2.600000000000000314e-04,1.000000000000000048e-04,4.000000000000000327e-05,4.000000000000000327e-05,1.600000000000000131e-04,6.300000000000000261e-04,3.299999999999999982e-04,9.799999999999999684e-04,6.000000000000000000e+00,2.300000000000000000e+01
5.614100000000000000e+04,-4.000000000000000327e-05,-2.000000000000000164e-05,-2.000000000000000164e-05,-1.100000000000000039e-04,-5.999999999999999474e-04,-8.400000000000000348e-04,-5.000000000000000240e-05,5.999999999999999474e-05,6.000000000000000000e+00,2.300000000000000000e+01
5.614200000000000000e+04,-4.000000000000000327e-05,-2.000000000000000164e-05,-2.000000000000000164e-05,-1.100000000000000039e-04,-5.999999999999999474e-04,-8.400000000000000348e-04,-5.000000000000000240e-05,5.999999999999999474e-05,6.000000000000000000e+00,2.300000000000000000e+01
5.614300000000000000e+04,-4.000000000000000327e-05,-2.000000000000000164e-05,-2.000000000000000164e-05,-1.100000000000000039e-04,-5.999999999999999474e-04,-8.400000000000000348e-04,-5.000000000000000240e-05,5.999999999999999474e-05,6.000000000000000000e+00,2.300000000000000000e+01
5.614400000000000000e+04,-4.000000000000000327e-05,-2.000000000000000164e-05,-2.000000000000000164e-05,-1.100000000000000039e-04,-5.999999999999999474e-04,-8.400000000000000348e-04,-5.000000000000000240e-05,5.999999999999999474e-05,6.000000000000000000e+00,2.300000000000000000e+01
5.614500000000000000e+04,-4.000000000000000327e-05,-2.000000000000000164e-05,-2.000000000000000164e-05,-1.100000000000000039e-04,-5.999999999999999474e-04,-8.400000000000000348e-04,-5.000000000000000240e-05,5.999999999999999474e-05,6.000000000000000000e+00,2.300000000000000000e+01
5.614600000000000000e+04,-4.000000000000000327e-05,-2.000000000000000164e-05,-2.000000000000000164e-05,-1.100000000000000039e-04,-5.999999999999999474e-04,-8.400000000000000348e-04,-5.000000000000000240e-05,5.999999999999999474e-05,6.000000000000000000e+00,2.300000000000000000e+01
5.614700000000000000e+04,-4.000000000000000327e-05,-2.000000000000000164e-05,-2.000000000000000164e-05,-1.100000000000000039e-04,-5.999999999999999474e-04,-8.400000000000000348e-04,-5.000000000000000240e-05,5.999999999999999474e-05,6.000000000000000000e+00,2.300000000000000000e+01
5.614800000000000000e+04,-4.000000000000000327e-05,-2.000000000000000164e-05,-2.000000000000000164e-05,-1.100000000000000039e-04,-5.999999999999999474e-04,-8.400000000000000348e-04,-5.000000000000000240e-05,5.999999999999999474e-05,6.000000000000000000e+00,2.300000000000000000e+01
5.614900000000000000e+04,-4.000000000000000327e-05,-2.000000000000000164e-05,-2.000000000000000164e-05,-1.100000000000000039e-04,-5.999999999999999474e-04,-8.400000000000000348e-04,-5.000000000000000240e-05,5.999999999999999474e-05,6.000000000000000000e+00,2.300000000000000000e+01
5.615000000000000000e+04,2.000000000000000164e-05,1.000000000000000082e-05,2.000000000000000164e-05,-2.999999999999999737e-05,-1.399999999999999877e-04,6.999999999999999387e-05,-2.100000000000000087e-04,-9.000000000000000567e-05,6.000000000000000000e+00,2.300000000000000000e+01
5.615100000000000000e+04,2.000000000000000164e-05,1.000000000000000082e-05,2.000000000000000164e-05,-2.999999999999999737e-05,-1.399999999999999877e-04,6.999999999999999387e-05,-2.100000000000000087e-04,-9.000000000000000567e-05,6.000000000000000000e+00,2.300000000000000000e+01
5.615200000000000000e+04,2.000000000000000164e-05,1.000000000000000082e-05,2.000000000000000164e-05,-2.999999999999999737e-05,-1.399999999999999877e-04,6.999999999999999387e-05,-2.100000000000000087e-04,-9.000000000000000567e-05,6.000000000000000000e+00,2.300000000000000000e+01
5.615300000000000000e+04,2.000000000000000164e-05,1.000000000000000082e-05,2.000000000000000164e-05,-2.999999999999999737e-05,-1.399999999999999877e-04,6.999999999999999387e-05,-2.100000000000000087e-04,-9.000000000000000567e-05,6.000000000000000000e+00,2.300000000000000000e+01
5.615400000000000000e+04,2.000000000000000164e-05,1.000000000000000082e-05,2.000000000000000164e-05,-2.999999999999999737e-05,-1.399999999999999877e-04,6.999999999999999387e-05,-2.100000000000000087e-04,-9.000000000000000567e-05,6.000000000000000000e+00,2.300000000000000000e+01
5.615500000000000000e+04,2.000000000000000164e-05,1.000000000000000082e-05,2.000000000000000164e-05,-2.999999999999999737e-05,-1.399999999999999877e-04,6.999999999999999387e-05,-2.100000000000000087e-04,-9.000000000000000567e-05,6.000000000000000000e+00,2.300000000000000000e+01
5.615600000000000000e+04,2.000000000000000164e-05,1.000000000000000082e-05,2.000000000000000164e-05,-2.999999999999999737e-05,-1.399999999999999877e-04,6.999999999999999387e-05,-2.100000000000000087e-04,-9.000000000000000567e-05,6.000000000000000000e+00,2.300000000000000000e+01
5.615700000000000000e+04,2.000000000000000164e-05,1.000000000000000082e-05,2.000000000000000164e-05,-2.999999999999999737e-05,-1.399999999999999877e-04,6.999999999999999387e-05,-2.100000000000000087e-04,-9.000000000000000567e-05,6.000000000000000000e+00,2.300000000000000000e+01
5.615800000000000000e+04,2.000000000000000164e-05,1.000000000000000082e-05,2.000000000000000164e-05,-2.999999999999999737e-05,-1.399999999999999877e-04,6.999999999999999387e-05,-2.100000000000000087e-04,-9.000000000000000567e-05,6.000000000000000000e+00,2.300000000000000000e+01
5.615900000000000000e+04,2.000000000000000164e-05,1.000000000000000082e-05,2.000000000000000164e-05,-2.999999999999999737e-05,-1.399999999999999877e-04,6.999999999999999387e-05,-2.100000000000000087e-04,-9.000000000000000567e-05,6.000000000000000000e+00,2.300000000000000000e+01
5.616000000000000000e+04,2.000000000000000164e-05,1.000000000000000082e-05,2.000000000000000164e-05,-2.999999999999999737e-05,-1.399999999999999877e-04,6.999999999999999387e-05,-2.100000000000000087e-04,-9.000000000000000567e-05,6.000000000000000000e+00,2.300000000000000000e+01
5.616100000000000000e+04,2.000000000000000164e-05,1.000000000000000082e-05,2.000000000000000164e-05,-2.999999999999999737e-05,-1.399999999999999877e-04,6.999999999999999387e-05,-2.100000000000000087e-04,-9.000000000000000567e-05,6.000000000000000000e+00,2.300000000000000000e+01
5.616200000000000000e+04,2.000000000000000164e-05,1.000000000000000082e-05,2.000000000000000164e-05,-2.999999999999999737e-05,-1.399999999999999877e-04,6.999999999999999387e-05,-2.100000000000000087e-04,-9.000000000000000567e-05,6.000000000000000000e+00,2.300000000000000000e+01
5.616300000000000000e+04,2.000000000000000164e-05,1.000000000000000082e-05,2.000000000000000164e-05,-2.999999999999999737e-05,-1.399999999999999877e-04,6.999999999999999387e-05,-2.100000000000000087e-04,-9.000000000000000567e-05,6.000000000000000000e+00,2.300000000000000000e+01
5.616400000000000000e+04,2.000000000000000164e-05,1.000000000000000082e-05,2.000000000000000164e-05,-2.999999999999999737e-05,-1.399999999999999877e-04,6.999999999999999387e-05,-2.100000000000000087e-04,-9.000000000000000567e-05,6.000000000000000000e+00,2.300000000000000000e+01
5.616500000000000000e+04,2.100000000000000087e-04,-2.000000000000000164e-05,-1.000000000000000082e-05,2.000000000000000164e-05,9.000000000000000567e-05,-2.900000000000000017e-04,-4.000000000000000327e-05,4.499999999999999877e-04,6.000000000000000000e+00,2.300000000000000000e+01
5.616600000000000000e+04,-2.999999999999999737e-05,9.000000000000000567e-05,-2.999999999999999737e-05,-5.999999999999999474e-05,-4.299999999999999894e-04,-3.399999999999999702e-04,2.999999999999999737e-05,-2.200000000000000078e-04,6.000000000000000000e+00,2.300000000000000000e+01
5.616700000000000000e+04,-2.200000000000000078e-04,-3.799999999999999667e-04,-9.000000000000000567e-05,-8.000000000000000654e-05,-1.300000000000000157e-04,-6.099999999999999737e-04,-4.000000000000000192e-04,1.499999999999999869e-04,6.000000000000000000e+00,2.300000000000000000e+01
5.616800000000000000e+04,-2.200000000000000078e-04,-3.799999999999999667e-04,-9.000000000000000567e-05,-8.000000000000000654e-05,-1.300000000000000157e-04,-6.099999999999999737e-04,-4.000000000000000192e-04,1.499999999999999869e-04,6.000000000000000000e+00,2.300000000000000000e+01
5.616900000000000000e+04,-2.200000000000000078e-04,-3.799999999999999667e-04,-9.000000000000000567e-05,-8.000000000000000654e-05,-1.300000000000000157e-04,-6.099999999999999737e-04,-4.000000000000000192e-04,1.499999999999999869e-04,6.000000000000000000e+00,2.300000000000000000e+01
5.617000000000000000e+04,-2.200000000000000078e-04,-3.799999999999999667e-04,-9.000000000000000567e-05,-8.000000000000000654e-05,-1.300000000000000157e-04,-6.099999999999999737e-04,-4.000000000000000192e-04,1.499999999999999869e-04,6.000000000000000000e+00,2.300000000000000000e+01
5.617100000000000000e+04,-2.200000000000000078e-04,-3.799999999999999667e-04,-9.000000000000000567e-05,-8.000000000000000654e-05,-1.300000000000000157e-04,-6.099999999999999737e-04,-4.000000000000000192e-04,1.499999999999999869e-04,6.000000000000000000e+00,2.300000000000000000e+01
5.617200000000000000e+04,-2.200000000000000078e-04,-3.799999999999999667e-04,-9.000000000000000567e-05,-8.000000000000000654e-05,-1.300000000000000157e-04,-6.099999999999999737e-04,-4.000000000000000192e-04,1.499999999999999869e-04,6.000000000000000000e+00,2.300000000000000000e+01
5.617300000000000000e+04,-2.200000000000000078e-04,-3.799999999999999667e-04,-9.000000000000000567e-05,-8.000000000000000654e-05,-1.300000000000000157e-04,-6.099999999999999737e-04,-4.000000000000000192e-04,1.499999999999999869e-04,6.000000000000000000e+00,2.300000000000000000e+01
5.617400000000000000e+04,-2.200000000000000078e-04,-3.799999999999999667e-04,-9.000000000000000567e-05,-8.000000000000000654e-05,-1.300000000000000157e-04,-6.099999999999999737e-04,-4.000000000000000192e-04,1.499999999999999869e-04,6.000000000000000000e+00,2.300000000000000000e+01
5.617500000000000000e+04,-2.200000000000000078e-04,-3.799999999999999667e-04,-9.000000000000000567e-05,-8.000000000000000654e-05,-1.300000000000000157e-04,-6.099999999999999737e-04,-4.000000000000000192e-04,1.499999999999999869e-04,6.000000000000000000e+00,2.300000000000000000e+01
5.617600000000000000e+04,-2.200000000000000078e-04,-3.799999999999999667e-04,-9.000000000000000567e-05,-8.000000000000000654e-05,-1.300000000000000157e-04,-6.099999999999999737e-04,-4.000000000000000192e-04,1.499999999999999869e-04,6.000000000000000000e+00,2.300000000000000000e+01
5.617700000000000000e+04,-2.200000000000000078e-04,-3.799999999999999667e-04,-9.000000000000000567e-05,-8.000000000000000654e-05,-1.300000000000000157e-04,-6.099999999999999737e-04,-4.000000000000000192e-04,1.499999999999999869e-04,6.000000000000000000e+00,2.300000000000000000e+01
5.617800000000000000e+04,-2.200000000000000078e-04,-3.799999999999999667e-04,-9.000000000000000567e-05,-8.000000000000000654e-05,-1.300000000000000157e-04,-6.099999999999999737e-04,-4.000000000000000192e-04,1.499999999999999869e-04,6.000000000000000000e+00,2.300000000000000000e+01
5.617900000000000000e+04,-2.200000000000000078e-04,-3.799999999999999667e-04,-9.000000000000000567e-05,-8.000000000000000654e-05,-1.300000000000000157e-04,-6.099999999999999737e-04,-4.000000000000000192e-04,1.499999999999999869e-04,6.000000000000000000e+00,2.300000000000000000e+01
5.618000000000000000e+04,-2.200000000000000078e-04,-3.799999999999999667e-04,-9.000000000000000567e-05,-8.000000000000000654e-05,-1.300000000000000157e-04,-6.099999999999999737e-04,-4.000000000000000192e-04,1.499999999999999869e-04,6.000000000000000000e+00,2.300000000000000000e+01
5.618100000000000000e+04,-2.200000000000000078e-04,-3.799999999999999667e-04,-9.000000000000000567e-05,-8.000000000000000654e-05,-1.300000000000000157e-04,-6.099999999999999737e-04,-4.000000000000000192e-04,1.499999999999999869e-04,6.000000000000000000e+00,2.300000000000000000e+01
5.618200000000000000e+04,-2.200000000000000078e-04,-3.799999999999999667e-04,-9.000000000000000567e-05,-8.000000000000000654e-05,-1.300000000000000157e-04,-6.099999999999999737e-04,-4.000000000000000192e-04,1.499999999999999869e-04,6.000000000000000000e+00,2.300000000000000000e+01
5.618300000000000000e+04,-2.200000000000000078e-04,-3.799999999999999667e-04,-9.000000000000000567e-05,-8.000000000000000654e-05,-1.300000000000000157e-04,-6.099999999999999737e-04,-4.000000000000000192e-04,1.499999999999999869e-04,6.000000000000000000e+00,2.300000000000000000e+01
5.618400000000000000e+04,-2.200000000000000078e-04,-3.799999999999999667e-04,-9.000000000000000567e-05,-8.000000000000000654e-05,-1.300000000000000157e-04,-6.099999999999999737e-04,-4.000000000000000192e-04,1.499999999999999869e-04,6.000000000000000000e+00,2.300000000000000000e+01
5.618500000000000000e+04,-2.200000000000000078e-04,-3.799999999999999667e-04,-9.000000000000000567e-05,-8.000000000000000654e-05,-1.300000000000000157e-04,-6.099999999999999737e-04,-4.000000000000000192e-04,1.499999999999999869e-04,6.000000000000000000e+00,2.300000000000000000e+01
5.618600000000000000e+04,-2.200000000000000078e-04,-3.799999999999999667e-04,-9.000000000000000567e-05,-8.000000000000000654e-05,-1.300000000000000157e-04,-6.099999999999999737e-04,-4.000000000000000192e-04,1.499999999999999869e-04,6.000000000000000000e+00,2.300000000000000000e+01
5.618800000000000000e+04,-1.100000000000000039e-04,5.999999999999999474e-05,5.999999999999999474e-05,1.800000000000000113e-04,1.800000000000000113e-04,1.499999999999999869e-04,1.699999999999999851e-04,-6.999999999999999387e-05,6.000000000000000000e+00,2.300000000000000000e+01
5.618900000000000000e+04,4.000000000000000327e-05,5.999999999999999474e-05,-4.000000000000000327e-05,-5.000000000000000240e-05,-2.999999999999999737e-04,-6.999999999999999387e-05,5.000000000000000240e-05,-3.399999999999999702e-04,6.000000000000000000e+00,2.300000000000000000e+01
5.619000000000000000e+04,4.000000000000000327e-05,5.999999999999999474e-05,-4.000000000000000327e-05,-5.000000000000000240e-05,-2.999999999999999737e-04,-6.999999999999999387e-05,5.000000000000000240e-05,-3.399999999999999702e-04,6.000000000000000000e+00,2.300000000000000000e+01
5.619100000000000000e+04,4.000000000000000327e-05,5.999999999999999474e-05,-4.000000000000000327e-05,-5.000000000000000240e-05,-2.999999999999999737e-04,-6.999999999999999387e-05,5.000000000000000240e-05,-3.399999999999999702e-04,6.000000000000000000e+00,2.300000000000000000e+01
5.619200000000000000e+04,4.000000000000000327e-05,5.999999999999999474e-05,-4.000000000000000327e-05,-5.000000000000000240e-05,-2.999999999999999737e-04,-6.999999999999999387e-05,5.000000000000000240e-05,-3.399999999999999702e-04,6.000000000000000000e+00,2.300000000000000000e+01
5.619300000000000000e+04,4.000000000000000327e-05,5.999999999999999474e-05,-4.000000000000000327e-05,-5.000000000000000240e-05,-2.999999999999999737e-04,-6.999999999999999387e-05,5.000000000000000240e-05,-3.399999999999999702e-04,6.000000000000000000e+00,2.300000000000000000e+01
5.619400000000000000e+04,4.000000000000000327e-05,5.999999999999999474e-05,-4.000000000000000327e-05,-5.000000000000000240e-05,-2.999999999999999737e-04,-6.999999999999999387e-05,5.000000000000000240e-05,-3.399999999999999702e-04,6.000000000000000000e+00,2.300000000000000000e+01
5.619500000000000000e+04,4.000000000000000327e-05,5.999999999999999474e-05,-4.000000000000000327e-05,-5.000000000000000240e-05,-2.999999999999999737e-04,-6.999999999999999387e-05,5.000000000000000240e-05,-3.399999999999999702e-04,6.000000000000000000e+00,2.300000000000000000e+01
5.619600000000000000e+04,4.000000000000000327e-05,5.999999999999999474e-05,-4.000000000000000327e-05,-5.000000000000000240e-05,-2.999999999999999737e-04,-6.999999999999999387e-05,5.000000000000000240e-05,-3.399999999999999702e-04,6.000000000000000000e+00,2.300000000000000000e+01
5.619700000000000000e+04,4.000000000000000327e-05,5.999999999999999474e-05,-4.000000000000000327e-05,-5.000000000000000240e-05,-2.999999999999999737e-04,-6.999999999999999387e-05,5.000000000000000240e-05,-3.399999999999999702e-04,6.000000000000000000e+00,2.300000000000000000e+01
5.619800000000000000e+04,4.000000000000000327e-05,5.999999999999999474e-05,-4.000000000000000327e-05,-5.000000000000000240e-05,-2.999999999999999737e-04,-6.999999999999999387e-05,5.000000000000000240e-05,-3.399999999999999702e-04,6.000000000000000000e+00,2.300000000000000000e+01
5.619900000000000000e+04,4.000000000000000327e-05,5.999999999999999474e-05,-4.000000000000000327e-05,-5.000000000000000240e-05,-2.999999999999999737e-04,-6.999999999999999387e-05,5.000000000000000240e-05,-3.399999999999999702e-04,6.000000000000000000e+00,2.300000000000000000e+01
5.620000000000000000e+04,4.000000000000000327e-05,5.999999999999999474e-05,-4.000000000000000327e-05,-5.000000000000000240e-05,-2.999999999999999737e-04,-6.999999999999999387e-05,5.000000000000000240e-05,-3.399999999999999702e-04,6.000000000000000000e+00,2.300000000000000000e+01
5.620100000000000000e+04,-5.000000000000000240e-05,4.000000000000000327e-05,-6.999999999999999387e-05,1.000000000000000082e-05,2.299999999999999799e-04,6.499999999999999702e-04,1.600000000000000131e-04,-5.999999999999999474e-05,6.000000000000000000e+00,2.300000000000000000e+01
5.620200000000000000e+04,-5.000000000000000240e-05,4.000000000000000327e-05,-6.999999999999999387e-05,1.000000000000000082e-05,2.299999999999999799e-04,6.499999999999999702e-04,1.600000000000000131e-04,-5.999999999999999474e-05,6.000000000000000000e+00,2.300000000000000000e+01
5.620300000000000000e+04,-5.000000000000000240e-05,4.000000000000000327e-05,-6.999999999999999387e-05,1.000000000000000082e-05,2.299999999999999799e-04,6.499999999999999702e-04,1.600000000000000131e-04,-5.999999999999999474e-05,6.000000000000000000e+00,2.300000000000000000e+01
5.620400000000000000e+04,-5.000000000000000240e-05,4.000000000000000327e-05,-6.999999999999999387e-05,1.000000000000000082e-05,2.299999999999999799e-04,6.499999999999999702e-04,1.600000000000000131e-04,-5.999999999999999474e-05,6.000000000000000000e+00,2.300000000000000000e+01
5.620500000000000000e+04,-5.000000000000000240e-05,4.000000000000000327e-05,-6.999999999999999387e-05,1.000000000000000082e-05,2.299999999999999799e-04,6.499999999999999702e-04,1.600000000000000131e-04,-5.999999999999999474e-05,6.000000000000000000e+00,2.300000000000000000e+01
5.620600000000000000e+04,-5.000000000000000240e-05,4.000000000000000327e-05,-6.999999999999999387e-05,1.000000000000000082e-05,2.299999999999999799e-04,6.499999999999999702e-04,1.600000000000000131e-04,-5.999999999999999474e-05,6.000000000000000000e+00,2.300000000000000000e+01
5.620700000000000000e+04,-5.000000000000000240e-05,4.000000000000000327e-05,-6.999999999999999387e-05,1.000000000000000082e-05,2.299999999999999799e-04,6.499999999999999702e-04,1.600000000000000131e-04,-5.999999999999999474e-05,6.000000000000000000e+00,2.300000000000000000e+01
5.620800000000000000e+04,-5.000000000000000240e-05,4.000000000000000327e-05,-6.999999999999999387e-05,1.000000000000000082e-05,2.299999999999999799e-04,6.499999999999999702e-04,1.600000000000000131e-04,-5.999999999999999474e-05,6.000000000000000000e+00,2.300000000000000000e+01
5.620900000000000000e+04,-5.000000000000000240e-05,4.000000000000000327e-05,-6.999999999999999387e-05,1.000000000000000082e-05,2.299999999999999799e-04,6.499999999999999702e-04,1.600000000000000131e-04,-5.999999999999999474e-05,6.000000000000000000e+00,2.300000000000000000e+01
5.621000000000000000e+04,-1.499999999999999869e-04,4.000000000000000327e-05,2.000000000000000164e-05,1.000000000000000082e-05,-1.000000000000000082e-05,-1.100000000000000039e-04,5.999999999999999474e-05,-9.000000000000000567e-05,6.000000000000000000e+00,2.300000000000000000e+01
5.621100000000000000e+04,-1.499999999999999869e-04,4.000000000000000327e-05,2.000000000000000164e-05,1.000000000000000082e-05,-1.000000000000000082e-05,-1.100000000000000039e-04,5.999999999999999474e-05,-9.000000000000000567e-05,6.000000000000000000e+00,2.300000000000000000e+01
5.621200000000000000e+04,-1.499999999999999869e-04,4.000000000000000327e-05,2.000000000000000164e-05,1.000000000000000082e-05,-1.000000000000000082e-05,-1.100000000000000039e-04,5.999999999999999474e-05,-9.000000000000000567e-05,6.000000000000000000e+00,2.300000000000000000e+01
5.621300000000000000e+04,-1.499999999999999869e-04,4.000000000000000327e-05,2.000000000000000164e-05,1.000000000000000082e-05,-1.000000000000000082e-05,-1.100000000000000039e-04,5.999999999999999474e-05,-9.000000000000000567e-05,6.000000000000000000e+00,2.300000000000000000e+01
5.621400000000000000e+04,-1.499999999999999869e-04,4.000000000000000327e-05,2.000000000000000164e-05,1.000000000000000082e-05,-1.000000000000000082e-05,-1.100000000000000039e-04,5.999999999999999474e-05,-9.000000000000000567e-05,6.000000000000000000e+00,2.300000000000000000e+01
5.621500000000000000e+04,-1.499999999999999869e-04,4.000000000000000327e-05,2.000000000000000164e-05,1.000000000000000082e-05,-1.000000000000000082e-05,-1.100000000000000039e-04,5.999999999999999474e-05,-9.000000000000000567e-05,6.000000000000000000e+00,2.300000000000000000e+01
5.621600000000000000e+04,-1.499999999999999869e-04,4.000000000000000327e-05,2.000000000000000164e-05,1.000000000000000082e-05,-1.000000000000000082e-05,-1.100000000000000039e-04,5.999999999999999474e-05,-9.000000000000000567e-05,6.000000000000000000e+00,2.300000000000000000e+01
5.621700000000000000e+04,-1.499999999999999869e-04,4.000000000000000327e-05,2.000000000000000164e-05,1.000000000000000082e-05,-1.000000000000000082e-05,-1.100000000000000039e-04,5.999999999999999474e-05,-9.000000000000000567e-05,6.000000000000000000e+00,2.300000000000000000e+01
5.621800000000000000e+04,-1.499999999999999869e-04,4.000000000000000327e-05,2.000000000000000164e-05,1.000000000000000082e-05,-1.000000000000000082e-05,-1.100000000000000039e-04,5.999999999999999474e-05,-9.000000000000000567e-05,6.000000000000000000e+00,2.300000000000000000e+01
5.621900000000000000e+04,-1.499999999999999869e-04,4.000000000000000327e-05,2.000000000000000164e-05,1.000000000000000082e-05,-1.000000000000000082e-05,-1.100000000000000039e-04,5.999999999999999474e-05,-9.000000000000000567e-05,6.000000000000000000e+00,2.300000000000000000e+01
5.622000000000000000e+04,-1.499999999999999869e-04,4.000000000000000327e-05,2.000000000000000164e-05,1.000000000000000082e-05,-1.000000000000000082e-05,-1.100000000000000039e-04,5.999999999999999474e-05,-9.000000000000000567e-05,6.000000000000000000e+00,2.300000000000000000e+01
5.622100000000000000e+04,-1.499999999999999869e-04,4.000000000000000327e-05,2.000000000000000164e-05,1.000000000000000082e-05,-1.000000000000000082e-05,-1.100000000000000039e-04,5.999999999999999474e-05,-9.000000000000000567e-05,6.000000000000000000e+00,2.300000000000000000e+01
5.622200000000000000e+04,-1.499999999999999869e-04,4.000000000000000327e-05,2.000000000000000164e-05,1.000000000000000082e-05,-1.000000000000000082e-05,-1.100000000000000039e-04,5.999999999999999474e-05,-9.000000000000000567e-05,6.000000000000000000e+00,2.300000000000000000e+01
5.622300000000000000e+04,-1.499999999999999869e-04,4.000000000000000327e-05,2.000000000000000164e-05,1.000000000000000082e-05,-1.000000000000000082e-05,-1.100000000000000039e-04,5.999999999999999474e-05,-9.000000000000000567e-05,6.000000000000000000e+00,2.300000000000000000e+01
5.622400000000000000e+04,-1.499999999999999869e-04,4.000000000000000327e-05,2.000000000000000164e-05,1.000000000000000082e-05,-1.000000000000000082e-05,-1.100000000000000039e-04,5.999999999999999474e-05,-9.000000000000000567e-05,6.000000000000000000e+00,2.300000000000000000e+01
5.622500000000000000e+04,-1.800000000000000113e-04,-4.000000000000000327e-05,0.000000000000000000e+00,-4.000000000000000327e-05,4.000000000000000327e-05,1.699999999999999851e-04,5.000000000000000240e-05,-2.000000000000000164e-05,6.000000000000000000e+00,2.300000000000000000e+01
5.622600000000000000e+04,2.999999999999999737e-05,-2.000000000000000164e-05,0.000000000000000000e+00,0.000000000000000000e+00,-1.699999999999999851e-04,-3.899999999999999929e-04,1.699999999999999851e-04,-3.200000000000000262e-04,6.000000000000000000e+00,2.300000000000000000e+01
5.622700000000000000e+04,1.199999999999999895e-04,-5.999999999999999474e-05,-5.000000000000000240e-05,-5.000000000000000240e-05,6.999999999999999387e-05,4.499999999999999877e-04,-1.000000000000000048e-04,-1.899999999999999834e-04,6.000000000000000000e+00,2.300000000000000000e+01
5.622800000000000000e+04,1.199999999999999895e-04,-5.999999999999999474e-05,-5.000000000000000240e-05,-5.000000000000000240e-05,6.999999999999999387e-05,4.499999999999999877e-04,-1.000000000000000048e-04,-1.899999999999999834e-04,6.000000000000000000e+00,2.300000000000000000e+01
5.622900000000000000e+04,1.199999999999999895e-04,-5.999999999999999474e-05,-5.000000000000000240e-05,-5.000000000000000240e-05,6.999999999999999387e-05,4.499999999999999877e-04,-1.000000000000000048e-04,-1.899999999999999834e-04,6.000000000000000000e+00,2.300000000000000000e+01
5.623000000000000000e+04,1.199999999999999895e-04,-5.999999999999999474e-05,-5.000000000000000240e-05,-5.000000000000000240e-05,6.999999999999999387e-05,4.499999999999999877e-04,-1.000000000000000048e-04,-1.899999999999999834e-04,6.000000000000000000e+00,2.300000000000000000e+01
5.623100000000000000e+04,1.199999999999999895e-04,-5.999999999999999474e-05,-5.000000000000000240e-05,-5.000000000000000240e-05,6.999999999999999387e-05,4.499999999999999877e-04,-1.000000000000000048e-04,-1.899999999999999834e-04,6.000000000000000000e+00,2.300000000000000000e+01
5.623200000000000000e+04,1.199999999999999895e-04,-5.999999999999999474e-05,-5.000000000000000240e-05,-5.000000000000000240e-05,6.999999999999999387e-05,4.499999999999999877e-04,-1.000000000000000048e-04,-1.899999999999999834e-04,6.000000000000000000e+00,2.300000000000000000e+01
5.623300000000000000e+04,1.199999999999999895e-04,-5.999999999999999474e-05,-5.000000000000000240e-05,-5.000000000000000240e-05,6.999999999999999387e-05,4.499999999999999877e-04,-1.000000000000000048e-04,-1.899999999999999834e-04,6.000000000000000000e+00,2.300000000000000000e+01
5.623400000000000000e+04,1.199999999999999895e-04,-5.999999999999999474e-05,-5.000000000000000240e-05,-5.000000000000000240e-05,6.999999999999999387e-05,4.499999999999999877e-04,-1.000000000000000048e-04,-1.899999999999999834e-04,6.000000000000000000e+00,2.300000000000000000e+01
5.623500000000000000e+04,1.199999999999999895e-04,-5.999999999999999474e-05,-5.000000000000000240e-05,-5.000000000000000240e-05,6.999999999999999387e-05,4.499999999999999877e-04,-1.000000000000000048e-04,-1.899999999999999834e-04,6.000000000000000000e+00,2.300000000000000000e+01
5.623600000000000000e+04,1.199999999999999895e-04,-5.999999999999999474e-05,-5.000000000000000240e-05,-5.000000000000000240e-05,6.999999999999999387e-05,4.499999999999999877e-04,-1.000000000000000048e-04,-1.899999999999999834e-04,6.000000000000000000e+00,2.300000000000000000e+01
5.623800000000000000e+04,1.199999999999999895e-04,-5.999999999999999474e-05,-5.000000000000000240e-05,-5.000000000000000240e-05,6.999999999999999387e-05,4.499999999999999877e-04,-1.000000000000000048e-04,-1.899999999999999834e-04,6.000000000000000000e+00,2.300000000000000000e+01
5.623900000000000000e+04,1.199999999999999895e-04,-5.999999999999999474e-05,-5.000000000000000240e-05,-5.000000000000000240e-05,6.999999999999999387e-05,4.499999999999999877e-04,-1.000000000000000048e-04,-1.899999999999999834e-04,6.000000000000000000e+00,2.300000000000000000e+01
5.624000000000000000e+04,1.199999999999999895e-04,-5.999999999999999474e-05,-5.000000000000000240e-05,-5.000000000000000240e-05,6.999999999999999387e-05,4.499999999999999877e-04,-1.000000000000000048e-04,-1.899999999999999834e-04,6.000000000000000000e+00,2.300000000000000000e+01
5.624100000000000000e+04,1.199999999999999895e-04,-5.999999999999999474e-05,-5.000000000000000240e-05,-5.000000000000000240e-05,6.999999999999999387e-05,4.499999999999999877e-04,-1.000000000000000048e-04,-1.899999999999999834e-04,6.000000000000000000e+00,2.300000000000000000e+01
5.624200000000000000e+04,1.199999999999999895e-04,-5.999999999999999474e-05,-5.000000000000000240e-05,-5.000000000000000240e-05,6.999999999999999387e-05,4.499999999999999877e-04,-1.000000000000000048e-04,-1.899999999999999834e-04,6.000000000000000000e+00,2.300000000000000000e+01
5.624300000000000000e+04,1.199999999999999895e-04,-5.999999999999999474e-05,-5.000000000000000240e-05,-5.000000000000000240e-05,6.999999999999999387e-05,4.499999999999999877e-04,-1.000000000000000048e-04,-1.899999999999999834e-04,6.000000000000000000e+00,2.300000000000000000e+01
5.624400000000000000e+04,1.199999999999999895e-04,-5.999999999999999474e-05,-5.000000000000000240e-05,-5.000000000000000240e-05,6.999999999999999387e-05,4.499999999999999877e-04,-1.000000000000000048e-04,-1.899999999999999834e-04,6.000000000000000000e+00,2.300000000000000000e+01
5.624500000000000000e+04,1.199999999999999895e-04,-5.999999999999999474e-05,-5.000000000000000240e-05,-5.000000000000000240e-05,6.999999999999999387e-05,4.499999999999999877e-04,-1.000000000000000048e-04,-1.899999999999999834e-04,6.000000000000000000e+00,2.300000000000000000e+01
5.624600000000000000e+04,1.199999999999999895e-04,-5.999999999999999474e-05,-5.000000000000000240e-05,-5.000000000000000240e-05,6.999999999999999387e-05,4.499999999999999877e-04,-1.000000000000000048e-04,-1.899999999999999834e-04,6.000000000000000000e+00,2.300000000000000000e+01
5.624700000000000000e+04,1.199999999999999895e-04,-5.999999999999999474e-05,-5.000000000000000240e-05,-5.000000000000000240e-05,6.999999999999999387e-05,4.499999999999999877e-04,-1.000000000000000048e-04,-1.899999999999999834e-04,6.000000000000000000e+00,2.300000000000000000e+01
5.624800000000000000e+04,-1.000000000000000082e-05,-1.000000000000000082e-05,5.000000000000000240e-05,-1.000000000000000082e-05,-2.000000000000000096e-04,5.099999999999999282e-04,1.399999999999999877e-04,-1.300000000000000157e-04,6.000000000000000000e+00,2.300000000000000000e+01
5.624900000000000000e+04,2.000000000000000164e-05,0.000000000000000000e+00,-1.000000000000000082e-05,5.999999999999999474e-05,2.399999999999999790e-04,1.699999999999999851e-04,1.000000000000000048e-04,-3.499999999999999964e-04,6.000000000000000000e+00,2.300000000000000000e+01
5.625000000000000000e+04,2.000000000000000164e-05,0.000000000000000000e+00,-1.000000000000000082e-05,5.999999999999999474e-05,2.399999999999999790e-04,1.699999999999999851e-04,1.000000000000000048e-04,-3.499999999999999964e-04,6.000000000000000000e+00,2.300000000000000000e+01
5.625100000000000000e+04,2.000000000000000164e-05,0.000000000000000000e+00,-1.000000000000000082e-05,5.999999999999999474e-05,2.399999999999999790e-04,1.699999999999999851e-04,1.000000000000000048e-04,-3.499999999999999964e-04,6.000000000000000000e+00,2.300000000000000000e+01
5.625200000000000000e+04,2.000000000000000164e-05,0.000000000000000000e+00,-1.000000000000000082e-05,5.999999999999999474e-05,2.399999999999999790e-04,1.699999999999999851e-04,1.000000000000000048e-04,-3.499999999999999964e-04,6.000000000000000000e+00,2.300000000000000000e+01
5.625300000000000000e+04,2.000000000000000164e-05,0.000000000000000000e+00,-1.000000000000000082e-05,5.999999999999999474e-05,2.399999999999999790e-04,1.699999999999999851e-04,1.000000000000000048e-04,-3.499999999999999964e-04,6.000000000000000000e+00,2.300000000000000000e+01
5.625400000000000000e+04,2.000000000000000164e-05,0.000000000000000000e+00,-1.000000000000000082e-05,5.999999999999999474e-05,2.399999999999999790e-04,1.699999999999999851e-04,1.000000000000000048e-04,-3.499999999999999964e-04,6.000000000000000000e+00,2.300000000000000000e+01
5.625500000000000000e+04,2.000000000000000164e-05,0.000000000000000000e+00,-1.000000000000000082e-05,5.999999999999999474e-05,2.399999999999999790e-04,1.699999999999999851e-04,1.000000000000000048e-04,-3.499999999999999964e-04,6.000000000000000000e+00,2.300000000000000000e+01
5.625600000000000000e+04,2.000000000000000164e-05,0.000000000000000000e+00,-1.000000000000000082e-05,5.999999999999999474e-05,2.399999999999999790e-04,1.699999999999999851e-04,1.000000000000000048e-04,-3.499999999999999964e-04,6.000000000000000000e+00,2.300000000000000000e+01
5.625700000000000000e+04,2.000000000000000164e-05,0.000000000000000000e+00,-1.000000000000000082e-05,5.999999999999999474e-05,2.399999999999999790e-04,1.699999999999999851e-04,1.000000000000000048e-04,-3.499999999999999964e-04,6.000000000000000000e+00,2.300000000000000000e+01
5.625800000000000000e+04,2.000000000000000164e-05,0.000000000000000000e+00,-1.000000000000000082e-05,5.999999999999999474e-05,2.399999999999999790e-04,1.699999999999999851e-04,1.000000000000000048e-04,-3.499999999999999964e-04,6.000000000000000000e+00,2.300000000000000000e+01
5.625900000000000000e+04,2.000000000000000164e-05,0.000000000000000000e+00,-1.000000000000000082e-05,5.999999999999999474e-05,2.399999999999999790e-04,1.699999999999999851e-04,1.000000000000000048e-04,-3.499999999999999964e-04,6.000000000000000000e+00,2.300000000000000000e+01
5.626000000000000000e+04,2.000000000000000164e-05,0.000000000000000000e+00,-1.000000000000000082e-05,5.999999999999999474e-05,2.399999999999999790e-04,1.699999999999999851e-04,1.000000000000000048e-04,-3.499999999999999964e-04,6.000000000000000000e+00,2.300000000000000000e+01
5.626100000000000000e+04,2.999999999999999737e-05,6.999999999999999387e-05,-2.000000000000000164e-05,-9.000000000000000567e-05,-2.600000000000000314e-04,-1.399999999999999877e-04,-5.999999999999999474e-05,-2.000000000000000164e-05,6.000000000000000000e+00,2.300000000000000000e+01
5.626200000000000000e+04,2.000000000000000164e-05,-2.000000000000000164e-05,-2.999999999999999737e-05,4.000000000000000327e-05,3.699999999999999947e-04,1.499999999999999869e-04,-1.000000000000000082e-05,3.099999999999999999e-04,6.000000000000000000e+00,2.300000000000000000e+01
5.626300000000000000e+04,2.000000000000000164e-05,-2.000000000000000164e-05,-2.999999999999999737e-05,4.000000000000000327e-05,3.699999999999999947e-04,1.499999999999999869e-04,-1.000000000000000082e-05,3.099999999999999999e-04,6.000000000000000000e+00,2.300000000000000000e+01
5.626400000000000000e+04,2.000000000000000164e-05,-2.000000000000000164e-05,-2.999999999999999737e-05,4.000000000000000327e-05,3.699999999999999947e-04,1.499999999999999869e-04,-1.000000000000000082e-05,3.099999999999999999e-04,6.000000000000000000e+00,2.300000000000000000e+01
5.626500000000000000e+04,2.000000000000000164e-05,-2.000000000000000164e-05,-2.999999999999999737e-05,4.000000000000000327e-05,3.699999999999999947e-04,1.499999999999999869e-04,-1.000000000000000082e-05,3.099999999999999999e-04,6.000000000000000000e+00,2.300000000000000000e+01
5.626600000000000000e+04,2.000000000000000164e-05,-2.000000000000000164e-05,-2.999999999999999737e-05,4.000000000000000327e-05,3.699999999999999947e-04,1.499999999999999869e-04,-1.000000000000000082e-05,3.099999999999999999e-04,6.000000000000000000e+00,2.300000000000000000e+01
5.626700000000000000e+04,2.000000000000000164e-05,-2.000000000000000164e-05,-2.999999999999999737e-05,4.000000000000000327e-05,3.699999999999999947e-04,1.499999999999999869e-04,-1.000000000000000082e-05,3.099999999999999999e-04,6.000000000000000000e+00,2.300000000000000000e+01
5.626800000000000000e+04,2.000000000000000164e-05,-2.000000000000000164e-05,-2.999999999999999737e-05,4.000000000000000327e-05,3.699999999999999947e-04,1.499999999999999869e-04,-1.000000000000000082e-05,3.099999999999999999e-04,6.000000000000000000e+00,2.300000000000000000e+01
5.626900000000000000e+04,2.000000000000000164e-05,-2.000000000000000164e-05,-2.999999999999999737e-05,4.000000000000000327e-05,3.699999999999999947e-04,1.499999999999999869e-04,-1.000000000000000082e-05,3.099999999999999999e-04,6.000000000000000000e+00,2.300000000000000000e+01
5.627000000000000000e+04,8.000000000000000654e-05,1.800000000000000113e-04,6.999999999999999387e-05,1.100000000000000039e-04,1.300000000000000157e-04,1.199999999999999895e-04,4.000000000000000327e-05,1.499999999999999869e-04,6.000000000000000000e+00,2.300000000000000000e+01
5.627100000000000000e+04,8.000000000000000654e-05,1.800000000000000113e-04,6.999999999999999387e-05,1.100000000000000039e-04,1.300000000000000157e-04,1.199999999999999895e-04,4.000000000000000327e-05,1.499999999999999869e-04,6.000000000000000000e+00,2.300000000000000000e+01
5.627200000000000000e+04,8.000000000000000654e-05,1.800000000000000113e-04,6.999999999999999387e-05,1.100000000000000039e-04,1.300000000000000157e-04,1.199999999999999895e-04,4.000000000000000327e-05,1.499999999999999869e-04,6.000000000000000000e+00,2.300000000000000000e+01
5.627300000000000000e+04,8.000000000000000654e-05,1.800000000000000113e-04,6.999999999999999387e-05,1.100000000000000039e-04,1.300000000000000157e-04,1.199999999999999895e-04,4.000000000000000327e-05,1.499999999999999869e-04,6.000000000000000000e+00,2.300000000000000000e+01
5.627400000000000000e+04,8.000000000000000654e-05,1.800000000000000113e-04,6.999999999999999387e-05,1.100000000000000039e-04,1.300000000000000157e-04,1.199999999999999895e-04,4.000000000000000327e-05,1.499999999999999869e-04,6.000000000000000000e+00,2.300000000000000000e+01
5.627500000000000000e+04,8.000000000000000654e-05,1.800000000000000113e-04,6.999999999999999387e-05,1.100000000000000039e-04,1.300000000000000157e-04,1.199999999999999895e-04,4.000000000000000327e-05,1.499999999999999869e-04,6.000000000000000000e+00,2.300000000000000000e+01
5.627600000000000000e+04,8.000000000000000654e-05,1.800000000000000113e-04,6.999999999999999387e-05,1.100000000000000039e-04,1.300000000000000157e-04,1.199999999999999895e-04,4.000000000000000327e-05,1.499999999999999869e-04,6.000000000000000000e+00,2.300000000000000000e+01
