9.031000000000000000e+03,-1.000000000000000048e-04,-8.400000000000000348e-04,-1.000000000000000048e-04,-2.999999999999999737e-05,2.200000000000000078e-04,-2.200000000000000078e-04,-4.000000000000000327e-05,6.099999999999999737e-04,3.000000000000000000e+00,5.000000000000000000e+00
9.032000000000000000e+03,-1.000000000000000048e-04,-8.400000000000000348e-04,-1.000000000000000048e-04,-2.999999999999999737e-05,2.200000000000000078e-04,-2.200000000000000078e-04,-4.000000000000000327e-05,6.099999999999999737e-04,3.000000000000000000e+00,5.000000000000000000e+00
9.033000000000000000e+03,-1.000000000000000048e-04,-8.400000000000000348e-04,-1.000000000000000048e-04,-2.999999999999999737e-05,2.200000000000000078e-04,-2.200000000000000078e-04,-4.000000000000000327e-05,6.099999999999999737e-04,3.000000000000000000e+00,5.000000000000000000e+00
9.034000000000000000e+03,-1.000000000000000048e-04,-8.400000000000000348e-04,-1.000000000000000048e-04,-2.999999999999999737e-05,2.200000000000000078e-04,-2.200000000000000078e-04,-4.000000000000000327e-05,6.099999999999999737e-04,3.000000000000000000e+00,5.000000000000000000e+00
9.035000000000000000e+03,-1.000000000000000048e-04,-8.400000000000000348e-04,-1.000000000000000048e-04,-2.999999999999999737e-05,2.200000000000000078e-04,-2.200000000000000078e-04,-4.000000000000000327e-05,6.099999999999999737e-04,3.000000000000000000e+00,5.000000000000000000e+00
9.036000000000000000e+03,-1.000000000000000048e-04,-8.400000000000000348e-04,-1.000000000000000048e-04,-2.999999999999999737e-05,2.200000000000000078e-04,-2.200000000000000078e-04,-4.000000000000000327e-05,6.099999999999999737e-04,3.000000000000000000e+00,5.000000000000000000e+00
9.038000000000000000e+03,-1.699999999999999851e-04,3.499999999999999964e-04,-1.800000000000000113e-04,-2.999999999999999737e-05,-1.300000000000000157e-04,1.000000000000000048e-04,1.000000000000000082e-05,9.000000000000000567e-05,3.000000000000000000e+00,5.000000000000000000e+00
9.039000000000000000e+03,-6.999999999999999387e-05,-9.199999999999999194e-04,-1.100000000000000039e-04,-5.000000000000000240e-05,-5.000000000000000240e-05,2.999999999999999737e-05,1.600000000000000131e-04,2.100000000000000087e-04,3.000000000000000000e+00,5.000000000000000000e+00
9.040000000000000000e+03,-6.999999999999999387e-05,-9.199999999999999194e-04,-1.100000000000000039e-04,-5.000000000000000240e-05,-5.000000000000000240e-05,2.999999999999999737e-05,1.600000000000000131e-04,2.100000000000000087e-04,3.000000000000000000e+00,5.000000000000000000e+00
9.041000000000000000e+03,-6.999999999999999387e-05,-9.199999999999999194e-04,-1.100000000000000039e-04,-5.000000000000000240e-05,-5.000000000000000240e-05,2.999999999999999737e-05,1.600000000000000131e-04,2.100000000000000087e-04,3.000000000000000000e+00,5.000000000000000000e+00
9.042000000000000000e+03,-6.999999999999999387e-05,-9.199999999999999194e-04,-1.100000000000000039e-04,-5.000000000000000240e-05,-5.000000000000000240e-05,2.999999999999999737e-05,1.600000000000000131e-04,2.100000000000000087e-04,3.000000000000000000e+00,5.000000000000000000e+00
9.043000000000000000e+03,-6.999999999999999387e-05,-9.199999999999999194e-04,-1.100000000000000039e-04,-5.000000000000000240e-05,-5.000000000000000240e-05,2.999999999999999737e-05,1.600000000000000131e-04,2.100000000000000087e-04,3.000000000000000000e+00,5.000000000000000000e+00
9.044000000000000000e+03,-6.999999999999999387e-05,-9.199999999999999194e-04,-1.100000000000000039e-04,-5.000000000000000240e-05,-5.000000000000000240e-05,2.999999999999999737e-05,1.600000000000000131e-04,2.100000000000000087e-04,3.000000000000000000e+00,5.000000000000000000e+00
9.045000000000000000e+03,-6.999999999999999387e-05,-9.199999999999999194e-04,-1.100000000000000039e-04,-5.000000000000000240e-05,-5.000000000000000240e-05,2.999999999999999737e-05,1.600000000000000131e-04,2.100000000000000087e-04,3.000000000000000000e+00,5.000000000000000000e+00
9.046000000000000000e+03,-6.999999999999999387e-05,-9.199999999999999194e-04,-1.100000000000000039e-04,-5.000000000000000240e-05,-5.000000000000000240e-05,2.999999999999999737e-05,1.600000000000000131e-04,2.100000000000000087e-04,3.000000000000000000e+00,5.000000000000000000e+00
9.047000000000000000e+03,-6.999999999999999387e-05,-9.199999999999999194e-04,-1.100000000000000039e-04,-5.000000000000000240e-05,-5.000000000000000240e-05,2.999999999999999737e-05,1.600000000000000131e-04,2.100000000000000087e-04,3.000000000000000000e+00,5.000000000000000000e+00
9.048000000000000000e+03,-6.999999999999999387e-05,-9.199999999999999194e-04,-1.100000000000000039e-04,-5.000000000000000240e-05,-5.000000000000000240e-05,2.999999999999999737e-05,1.600000000000000131e-04,2.100000000000000087e-04,3.000000000000000000e+00,5.000000000000000000e+00
9.049000000000000000e+03,-6.999999999999999387e-05,-9.199999999999999194e-04,-1.100000000000000039e-04,-5.000000000000000240e-05,-5.000000000000000240e-05,2.999999999999999737e-05,1.600000000000000131e-04,2.100000000000000087e-04,3.000000000000000000e+00,5.000000000000000000e+00
9.050000000000000000e+03,-6.999999999999999387e-05,-9.199999999999999194e-04,-1.100000000000000039e-04,-5.000000000000000240e-05,-5.000000000000000240e-05,2.999999999999999737e-05,1.600000000000000131e-04,2.100000000000000087e-04,3.000000000000000000e+00,5.000000000000000000e+00
9.051000000000000000e+03,-6.999999999999999387e-05,-9.199999999999999194e-04,-1.100000000000000039e-04,-5.000000000000000240e-05,-5.000000000000000240e-05,2.999999999999999737e-05,1.600000000000000131e-04,2.100000000000000087e-04,3.000000000000000000e+00,5.000000000000000000e+00
9.052000000000000000e+03,-6.999999999999999387e-05,-9.199999999999999194e-04,-1.100000000000000039e-04,-5.000000000000000240e-05,-5.000000000000000240e-05,2.999999999999999737e-05,1.600000000000000131e-04,2.100000000000000087e-04,3.000000000000000000e+00,5.000000000000000000e+00
9.053000000000000000e+03,-6.999999999999999387e-05,-9.199999999999999194e-04,-1.100000000000000039e-04,-5.000000000000000240e-05,-5.000000000000000240e-05,2.999999999999999737e-05,1.600000000000000131e-04,2.100000000000000087e-04,3.000000000000000000e+00,5.000000000000000000e+00
9.054000000000000000e+03,-6.999999999999999387e-05,-9.199999999999999194e-04,-1.100000000000000039e-04,-5.000000000000000240e-05,-5.000000000000000240e-05,2.999999999999999737e-05,1.600000000000000131e-04,2.100000000000000087e-04,3.000000000000000000e+00,5.000000000000000000e+00
9.055000000000000000e+03,-6.999999999999999387e-05,-9.199999999999999194e-04,-1.100000000000000039e-04,-5.000000000000000240e-05,-5.000000000000000240e-05,2.999999999999999737e-05,1.600000000000000131e-04,2.100000000000000087e-04,3.000000000000000000e+00,5.000000000000000000e+00
9.056000000000000000e+03,-6.999999999999999387e-05,-9.199999999999999194e-04,-1.100000000000000039e-04,-5.000000000000000240e-05,-5.000000000000000240e-05,2.999999999999999737e-05,1.600000000000000131e-04,2.100000000000000087e-04,3.000000000000000000e+00,5.000000000000000000e+00
9.057000000000000000e+03,-6.999999999999999387e-05,-9.199999999999999194e-04,-1.100000000000000039e-04,-5.000000000000000240e-05,-5.000000000000000240e-05,2.999999999999999737e-05,1.600000000000000131e-04,2.100000000000000087e-04,3.000000000000000000e+00,5.000000000000000000e+00
9.058000000000000000e+03,-6.999999999999999387e-05,-9.199999999999999194e-04,-1.100000000000000039e-04,-5.000000000000000240e-05,-5.000000000000000240e-05,2.999999999999999737e-05,1.600000000000000131e-04,2.100000000000000087e-04,3.000000000000000000e+00,5.000000000000000000e+00
9.059000000000000000e+03,-6.999999999999999387e-05,-9.199999999999999194e-04,-1.100000000000000039e-04,-5.000000000000000240e-05,-5.000000000000000240e-05,2.999999999999999737e-05,1.600000000000000131e-04,2.100000000000000087e-04,3.000000000000000000e+00,5.000000000000000000e+00
9.060000000000000000e+03,-6.999999999999999387e-05,-9.199999999999999194e-04,-1.100000000000000039e-04,-5.000000000000000240e-05,-5.000000000000000240e-05,2.999999999999999737e-05,1.600000000000000131e-04,2.100000000000000087e-04,3.000000000000000000e+00,5.000000000000000000e+00
9.061000000000000000e+03,-2.600000000000000314e-04,2.200000000000000078e-04,-5.999999999999999474e-05,-2.999999999999999737e-05,-8.000000000000000654e-05,2.500000000000000052e-04,1.000000000000000082e-05,-2.700000000000000035e-04,3.000000000000000000e+00,5.000000000000000000e+00
9.062000000000000000e+03,-1.899999999999999834e-04,1.199999999999999895e-04,2.000000000000000164e-05,0.000000000000000000e+00,-3.200000000000000262e-04,1.300000000000000157e-04,-6.999999999999999387e-05,-2.299999999999999799e-04,3.000000000000000000e+00,5.000000000000000000e+00
9.063000000000000000e+03,-1.899999999999999834e-04,1.199999999999999895e-04,2.000000000000000164e-05,0.000000000000000000e+00,-3.200000000000000262e-04,1.300000000000000157e-04,-6.999999999999999387e-05,-2.299999999999999799e-04,3.000000000000000000e+00,5.000000000000000000e+00
9.064000000000000000e+03,-1.899999999999999834e-04,1.199999999999999895e-04,2.000000000000000164e-05,0.000000000000000000e+00,-3.200000000000000262e-04,1.300000000000000157e-04,-6.999999999999999387e-05,-2.299999999999999799e-04,3.000000000000000000e+00,5.000000000000000000e+00
9.065000000000000000e+03,-1.899999999999999834e-04,1.199999999999999895e-04,2.000000000000000164e-05,0.000000000000000000e+00,-3.200000000000000262e-04,1.300000000000000157e-04,-6.999999999999999387e-05,-2.299999999999999799e-04,3.000000000000000000e+00,5.000000000000000000e+00
9.066000000000000000e+03,-1.899999999999999834e-04,1.199999999999999895e-04,2.000000000000000164e-05,0.000000000000000000e+00,-3.200000000000000262e-04,1.300000000000000157e-04,-6.999999999999999387e-05,-2.299999999999999799e-04,3.000000000000000000e+00,5.000000000000000000e+00
9.067000000000000000e+03,-1.899999999999999834e-04,1.199999999999999895e-04,2.000000000000000164e-05,0.000000000000000000e+00,-3.200000000000000262e-04,1.300000000000000157e-04,-6.999999999999999387e-05,-2.299999999999999799e-04,3.000000000000000000e+00,5.000000000000000000e+00
9.068000000000000000e+03,-1.899999999999999834e-04,1.199999999999999895e-04,2.000000000000000164e-05,0.000000000000000000e+00,-3.200000000000000262e-04,1.300000000000000157e-04,-6.999999999999999387e-05,-2.299999999999999799e-04,3.000000000000000000e+00,5.000000000000000000e+00
9.069000000000000000e+03,-1.899999999999999834e-04,1.199999999999999895e-04,2.000000000000000164e-05,0.000000000000000000e+00,-3.200000000000000262e-04,1.300000000000000157e-04,-6.999999999999999387e-05,-2.299999999999999799e-04,3.000000000000000000e+00,5.000000000000000000e+00
9.070000000000000000e+03,-1.899999999999999834e-04,1.199999999999999895e-04,2.000000000000000164e-05,0.000000000000000000e+00,-3.200000000000000262e-04,1.300000000000000157e-04,-6.999999999999999387e-05,-2.299999999999999799e-04,3.000000000000000000e+00,5.000000000000000000e+00
9.071000000000000000e+03,-1.899999999999999834e-04,1.199999999999999895e-04,2.000000000000000164e-05,0.000000000000000000e+00,-3.200000000000000262e-04,1.300000000000000157e-04,-6.999999999999999387e-05,-2.299999999999999799e-04,3.000000000000000000e+00,5.000000000000000000e+00
9.072000000000000000e+03,-1.899999999999999834e-04,1.199999999999999895e-04,2.000000000000000164e-05,0.000000000000000000e+00,-3.200000000000000262e-04,1.300000000000000157e-04,-6.999999999999999387e-05,-2.299999999999999799e-04,3.000000000000000000e+00,5.000000000000000000e+00
9.073000000000000000e+03,-1.899999999999999834e-04,1.199999999999999895e-04,2.000000000000000164e-05,0.000000000000000000e+00,-3.200000000000000262e-04,1.300000000000000157e-04,-6.999999999999999387e-05,-2.299999999999999799e-04,3.000000000000000000e+00,5.000000000000000000e+00
9.074000000000000000e+03,-1.899999999999999834e-04,1.199999999999999895e-04,2.000000000000000164e-05,0.000000000000000000e+00,-3.200000000000000262e-04,1.300000000000000157e-04,-6.999999999999999387e-05,-2.299999999999999799e-04,3.000000000000000000e+00,5.000000000000000000e+00
9.075000000000000000e+03,-1.899999999999999834e-04,1.199999999999999895e-04,2.000000000000000164e-05,0.000000000000000000e+00,-3.200000000000000262e-04,1.300000000000000157e-04,-6.999999999999999387e-05,-2.299999999999999799e-04,3.000000000000000000e+00,5.000000000000000000e+00
9.076000000000000000e+03,-1.899999999999999834e-04,1.199999999999999895e-04,2.000000000000000164e-05,0.000000000000000000e+00,-3.200000000000000262e-04,1.300000000000000157e-04,-6.999999999999999387e-05,-2.299999999999999799e-04,3.000000000000000000e+00,5.000000000000000000e+00
9.077000000000000000e+03,-1.899999999999999834e-04,1.199999999999999895e-04,2.000000000000000164e-05,0.000000000000000000e+00,-3.200000000000000262e-04,1.300000000000000157e-04,-6.999999999999999387e-05,-2.299999999999999799e-04,3.000000000000000000e+00,5.000000000000000000e+00
9.078000000000000000e+03,-1.899999999999999834e-04,1.199999999999999895e-04,2.000000000000000164e-05,0.000000000000000000e+00,-3.200000000000000262e-04,1.300000000000000157e-04,-6.999999999999999387e-05,-2.299999999999999799e-04,3.000000000000000000e+00,5.000000000000000000e+00
9.079000000000000000e+03,-1.899999999999999834e-04,1.199999999999999895e-04,2.000000000000000164e-05,0.000000000000000000e+00,-3.200000000000000262e-04,1.300000000000000157e-04,-6.999999999999999387e-05,-2.299999999999999799e-04,3.000000000000000000e+00,5.000000000000000000e+00
9.080000000000000000e+03,-1.899999999999999834e-04,1.199999999999999895e-04,2.000000000000000164e-05,0.000000000000000000e+00,-3.200000000000000262e-04,1.300000000000000157e-04,-6.999999999999999387e-05,-2.299999999999999799e-04,3.000000000000000000e+00,5.000000000000000000e+00
9.081000000000000000e+03,-1.899999999999999834e-04,1.199999999999999895e-04,2.000000000000000164e-05,0.000000000000000000e+00,-3.200000000000000262e-04,1.300000000000000157e-04,-6.999999999999999387e-05,-2.299999999999999799e-04,3.000000000000000000e+00,5.000000000000000000e+00
9.082000000000000000e+03,-1.899999999999999834e-04,1.199999999999999895e-04,2.000000000000000164e-05,0.000000000000000000e+00,-3.200000000000000262e-04,1.300000000000000157e-04,-6.999999999999999387e-05,-2.299999999999999799e-04,3.000000000000000000e+00,5.000000000000000000e+00
9.083000000000000000e+03,3.099999999999999999e-04,-8.000000000000000654e-05,1.699999999999999851e-04,2.999999999999999737e-05,1.199999999999999895e-04,-2.100000000000000087e-04,4.000000000000000327e-05,8.000000000000000654e-05,3.000000000000000000e+00,5.000000000000000000e+00
9.084000000000000000e+03,-1.899999999999999834e-04,5.999999999999999474e-04,-2.999999999999999737e-05,-2.000000000000000164e-05,4.000000000000000327e-05,-1.199999999999999895e-04,-8.000000000000000654e-05,-2.999999999999999737e-05,3.000000000000000000e+00,5.000000000000000000e+00
9.085000000000000000e+03,-1.899999999999999834e-04,5.999999999999999474e-04,-2.999999999999999737e-05,-2.000000000000000164e-05,4.000000000000000327e-05,-1.199999999999999895e-04,-8.000000000000000654e-05,-2.999999999999999737e-05,3.000000000000000000e+00,5.000000000000000000e+00
9.086000000000000000e+03,-1.899999999999999834e-04,5.999999999999999474e-04,-2.999999999999999737e-05,-2.000000000000000164e-05,4.000000000000000327e-05,-1.199999999999999895e-04,-8.000000000000000654e-05,-2.999999999999999737e-05,3.000000000000000000e+00,5.000000000000000000e+00
9.088000000000000000e+03,-1.899999999999999834e-04,5.999999999999999474e-04,-2.999999999999999737e-05,-2.000000000000000164e-05,4.000000000000000327e-05,-1.199999999999999895e-04,-8.000000000000000654e-05,-2.999999999999999737e-05,3.000000000000000000e+00,5.000000000000000000e+00
9.089000000000000000e+03,-1.899999999999999834e-04,5.999999999999999474e-04,-2.999999999999999737e-05,-2.000000000000000164e-05,4.000000000000000327e-05,-1.199999999999999895e-04,-8.000000000000000654e-05,-2.999999999999999737e-05,3.000000000000000000e+00,5.000000000000000000e+00
9.090000000000000000e+03,-1.899999999999999834e-04,5.999999999999999474e-04,-2.999999999999999737e-05,-2.000000000000000164e-05,4.000000000000000327e-05,-1.199999999999999895e-04,-8.000000000000000654e-05,-2.999999999999999737e-05,3.000000000000000000e+00,5.000000000000000000e+00
9.091000000000000000e+03,-1.899999999999999834e-04,5.999999999999999474e-04,-2.999999999999999737e-05,-2.000000000000000164e-05,4.000000000000000327e-05,-1.199999999999999895e-04,-8.000000000000000654e-05,-2.999999999999999737e-05,3.000000000000000000e+00,5.000000000000000000e+00
9.092000000000000000e+03,-1.899999999999999834e-04,5.999999999999999474e-04,-2.999999999999999737e-05,-2.000000000000000164e-05,4.000000000000000327e-05,-1.199999999999999895e-04,-8.000000000000000654e-05,-2.999999999999999737e-05,3.000000000000000000e+00,5.000000000000000000e+00
9.093000000000000000e+03,-1.899999999999999834e-04,5.999999999999999474e-04,-2.999999999999999737e-05,-2.000000000000000164e-05,4.000000000000000327e-05,-1.199999999999999895e-04,-8.000000000000000654e-05,-2.999999999999999737e-05,3.000000000000000000e+00,5.000000000000000000e+00
9.094000000000000000e+03,-1.899999999999999834e-04,5.999999999999999474e-04,-2.999999999999999737e-05,-2.000000000000000164e-05,4.000000000000000327e-05,-1.199999999999999895e-04,-8.000000000000000654e-05,-2.999999999999999737e-05,3.000000000000000000e+00,5.000000000000000000e+00
9.095000000000000000e+03,-1.899999999999999834e-04,5.999999999999999474e-04,-2.999999999999999737e-05,-2.000000000000000164e-05,4.000000000000000327e-05,-1.199999999999999895e-04,-8.000000000000000654e-05,-2.999999999999999737e-05,3.000000000000000000e+00,5.000000000000000000e+00
9.096000000000000000e+03,-1.899999999999999834e-04,5.999999999999999474e-04,-2.999999999999999737e-05,-2.000000000000000164e-05,4.000000000000000327e-05,-1.199999999999999895e-04,-8.000000000000000654e-05,-2.999999999999999737e-05,3.000000000000000000e+00,5.000000000000000000e+00
9.097000000000000000e+03,-1.899999999999999834e-04,5.999999999999999474e-04,-2.999999999999999737e-05,-2.000000000000000164e-05,4.000000000000000327e-05,-1.199999999999999895e-04,-8.000000000000000654e-05,-2.999999999999999737e-05,3.000000000000000000e+00,5.000000000000000000e+00
9.098000000000000000e+03,6.799999999999999404e-04,-1.080000000000000014e-03,7.900000000000000121e-04,2.200000000000000078e-04,3.200000000000000262e-04,5.000000000000000240e-05,2.999999999999999737e-05,-2.600000000000000314e-04,3.000000000000000000e+00,5.000000000000000000e+00
9.099000000000000000e+03,-8.000000000000000654e-05,-5.900000000000000296e-04,4.299999999999999894e-04,5.999999999999999474e-05,-5.999999999999999474e-05,-1.399999999999999877e-04,6.999999999999999387e-05,-4.599999999999999597e-04,3.000000000000000000e+00,5.000000000000000000e+00
9.100000000000000000e+03,-8.000000000000000654e-05,-5.900000000000000296e-04,4.299999999999999894e-04,5.999999999999999474e-05,-5.999999999999999474e-05,-1.399999999999999877e-04,6.999999999999999387e-05,-4.599999999999999597e-04,3.000000000000000000e+00,5.000000000000000000e+00
9.101000000000000000e+03,-8.000000000000000654e-05,-5.900000000000000296e-04,4.299999999999999894e-04,5.999999999999999474e-05,-5.999999999999999474e-05,-1.399999999999999877e-04,6.999999999999999387e-05,-4.599999999999999597e-04,3.000000000000000000e+00,5.000000000000000000e+00
9.102000000000000000e+03,-8.000000000000000654e-05,-5.900000000000000296e-04,4.299999999999999894e-04,5.999999999999999474e-05,-5.999999999999999474e-05,-1.399999999999999877e-04,6.999999999999999387e-05,-4.599999999999999597e-04,3.000000000000000000e+00,5.000000000000000000e+00
9.103000000000000000e+03,-8.000000000000000654e-05,-5.900000000000000296e-04,4.299999999999999894e-04,5.999999999999999474e-05,-5.999999999999999474e-05,-1.399999999999999877e-04,6.999999999999999387e-05,-4.599999999999999597e-04,3.000000000000000000e+00,5.000000000000000000e+00
9.104000000000000000e+03,-8.000000000000000654e-05,-5.900000000000000296e-04,4.299999999999999894e-04,5.999999999999999474e-05,-5.999999999999999474e-05,-1.399999999999999877e-04,6.999999999999999387e-05,-4.599999999999999597e-04,3.000000000000000000e+00,5.000000000000000000e+00
9.105000000000000000e+03,-8.000000000000000654e-05,-5.900000000000000296e-04,4.299999999999999894e-04,5.999999999999999474e-05,-5.999999999999999474e-05,-1.399999999999999877e-04,6.999999999999999387e-05,-4.599999999999999597e-04,3.000000000000000000e+00,5.000000000000000000e+00
9.106000000000000000e+03,-8.000000000000000654e-05,-5.900000000000000296e-04,4.299999999999999894e-04,5.999999999999999474e-05,-5.999999999999999474e-05,-1.399999999999999877e-04,6.999999999999999387e-05,-4.599999999999999597e-04,3.000000000000000000e+00,5.000000000000000000e+00
9.107000000000000000e+03,-8.000000000000000654e-05,-5.900000000000000296e-04,4.299999999999999894e-04,5.999999999999999474e-05,-5.999999999999999474e-05,-1.399999999999999877e-04,6.999999999999999387e-05,-4.599999999999999597e-04,3.000000000000000000e+00,5.000000000000000000e+00
9.108000000000000000e+03,-8.000000000000000654e-05,-5.900000000000000296e-04,4.299999999999999894e-04,5.999999999999999474e-05,-5.999999999999999474e-05,-1.399999999999999877e-04,6.999999999999999387e-05,-4.599999999999999597e-04,3.000000000000000000e+00,5.000000000000000000e+00
9.109000000000000000e+03,-8.000000000000000654e-05,-5.900000000000000296e-04,4.299999999999999894e-04,5.999999999999999474e-05,-5.999999999999999474e-05,-1.399999999999999877e-04,6.999999999999999387e-05,-4.599999999999999597e-04,3.000000000000000000e+00,5.000000000000000000e+00
9.110000000000000000e+03,-8.000000000000000654e-05,-5.900000000000000296e-04,4.299999999999999894e-04,5.999999999999999474e-05,-5.999999999999999474e-05,-1.399999999999999877e-04,6.999999999999999387e-05,-4.599999999999999597e-04,3.000000000000000000e+00,5.000000000000000000e+00
9.111000000000000000e+03,-8.000000000000000654e-05,-5.900000000000000296e-04,4.299999999999999894e-04,5.999999999999999474e-05,-5.999999999999999474e-05,-1.399999999999999877e-04,6.999999999999999387e-05,-4.599999999999999597e-04,3.000000000000000000e+00,5.000000000000000000e+00
9.112000000000000000e+03,-8.000000000000000654e-05,-5.900000000000000296e-04,4.299999999999999894e-04,5.999999999999999474e-05,-5.999999999999999474e-05,-1.399999999999999877e-04,6.999999999999999387e-05,-4.599999999999999597e-04,3.000000000000000000e+00,5.000000000000000000e+00
9.113000000000000000e+03,-8.000000000000000654e-05,-5.900000000000000296e-04,4.299999999999999894e-04,5.999999999999999474e-05,-5.999999999999999474e-05,-1.399999999999999877e-04,6.999999999999999387e-05,-4.599999999999999597e-04,3.000000000000000000e+00,5.000000000000000000e+00
9.114000000000000000e+03,-8.000000000000000654e-05,-5.900000000000000296e-04,4.299999999999999894e-04,5.999999999999999474e-05,-5.999999999999999474e-05,-1.399999999999999877e-04,6.999999999999999387e-05,-4.599999999999999597e-04,3.000000000000000000e+00,5.000000000000000000e+00
9.115000000000000000e+03,-8.000000000000000654e-05,-5.900000000000000296e-04,4.299999999999999894e-04,5.999999999999999474e-05,-5.999999999999999474e-05,-1.399999999999999877e-04,6.999999999999999387e-05,-4.599999999999999597e-04,3.000000000000000000e+00,5.000000000000000000e+00
9.116000000000000000e+03,-8.000000000000000654e-05,-5.900000000000000296e-04,4.299999999999999894e-04,5.999999999999999474e-05,-5.999999999999999474e-05,-1.399999999999999877e-04,6.999999999999999387e-05,-4.599999999999999597e-04,3.000000000000000000e+00,5.000000000000000000e+00
9.117000000000000000e+03,-8.000000000000000654e-05,-5.900000000000000296e-04,4.299999999999999894e-04,5.999999999999999474e-05,-5.999999999999999474e-05,-1.399999999999999877e-04,6.999999999999999387e-05,-4.599999999999999597e-04,3.000000000000000000e+00,5.000000000000000000e+00
9.118000000000000000e+03,-8.000000000000000654e-05,-5.900000000000000296e-04,4.299999999999999894e-04,5.999999999999999474e-05,-5.999999999999999474e-05,-1.399999999999999877e-04,6.999999999999999387e-05,-4.599999999999999597e-04,3.000000000000000000e+00,5.000000000000000000e+00
9.119000000000000000e+03,-8.000000000000000654e-05,-5.900000000000000296e-04,4.299999999999999894e-04,5.999999999999999474e-05,-5.999999999999999474e-05,-1.399999999999999877e-04,6.999999999999999387e-05,-4.599999999999999597e-04,3.000000000000000000e+00,5.000000000000000000e+00
9.120000000000000000e+03,-2.000000000000000164e-05,5.200000000000000629e-04,3.699999999999999947e-04,2.000000000000000164e-05,2.600000000000000314e-04,5.200000000000000629e-04,1.199999999999999895e-04,-2.999999999999999737e-05,3.000000000000000000e+00,5.000000000000000000e+00
9.121000000000000000e+03,-5.999999999999999474e-05,-8.400000000000000348e-04,-3.600000000000000227e-04,-5.999999999999999474e-05,-9.000000000000000567e-05,-2.299999999999999799e-04,-5.999999999999999474e-05,4.299999999999999894e-04,3.000000000000000000e+00,5.000000000000000000e+00
9.122000000000000000e+03,-5.999999999999999474e-05,-8.400000000000000348e-04,-3.600000000000000227e-04,-5.999999999999999474e-05,-9.000000000000000567e-05,-2.299999999999999799e-04,-5.999999999999999474e-05,4.299999999999999894e-04,3.000000000000000000e+00,5.000000000000000000e+00
9.123000000000000000e+03,-5.999999999999999474e-05,-8.400000000000000348e-04,-3.600000000000000227e-04,-5.999999999999999474e-05,-9.000000000000000567e-05,-2.299999999999999799e-04,-5.999999999999999474e-05,4.299999999999999894e-04,3.000000000000000000e+00,5.000000000000000000e+00
9.124000000000000000e+03,-5.999999999999999474e-05,-8.400000000000000348e-04,-3.600000000000000227e-04,-5.999999999999999474e-05,-9.000000000000000567e-05,-2.299999999999999799e-04,-5.999999999999999474e-05,4.299999999999999894e-04,3.000000000000000000e+00,5.000000000000000000e+00
9.125000000000000000e+03,-5.999999999999999474e-05,-8.400000000000000348e-04,-3.600000000000000227e-04,-5.999999999999999474e-05,-9.000000000000000567e-05,-2.299999999999999799e-04,-5.999999999999999474e-05,4.299999999999999894e-04,3.000000000000000000e+00,5.000000000000000000e+00
9.126000000000000000e+03,-5.999999999999999474e-05,-8.400000000000000348e-04,-3.600000000000000227e-04,-5.999999999999999474e-05,-9.000000000000000567e-05,-2.299999999999999799e-04,-5.999999999999999474e-05,4.299999999999999894e-04,3.000000000000000000e+00,5.000000000000000000e+00
9.127000000000000000e+03,-5.999999999999999474e-05,-8.400000000000000348e-04,-3.600000000000000227e-04,-5.999999999999999474e-05,-9.000000000000000567e-05,-2.299999999999999799e-04,-5.999999999999999474e-05,4.299999999999999894e-04,3.000000000000000000e+00,5.000000000000000000e+00
9.128000000000000000e+03,-5.999999999999999474e-05,-8.400000000000000348e-04,-3.600000000000000227e-04,-5.999999999999999474e-05,-9.000000000000000567e-05,-2.299999999999999799e-04,-5.999999999999999474e-05,4.299999999999999894e-04,3.000000000000000000e+00,5.000000000000000000e+00
9.129000000000000000e+03,-5.999999999999999474e-05,-8.400000000000000348e-04,-3.600000000000000227e-04,-5.999999999999999474e-05,-9.000000000000000567e-05,-2.299999999999999799e-04,-5.999999999999999474e-05,4.299999999999999894e-04,3.000000000000000000e+00,5.000000000000000000e+00
9.130000000000000000e+03,-5.999999999999999474e-05,-8.400000000000000348e-04,-3.600000000000000227e-04,-5.999999999999999474e-05,-9.000000000000000567e-05,-2.299999999999999799e-04,-5.999999999999999474e-05,4.299999999999999894e-04,3.000000000000000000e+00,5.000000000000000000e+00
9.131000000000000000e+03,-5.999999999999999474e-05,-8.400000000000000348e-04,-3.600000000000000227e-04,-5.999999999999999474e-05,-9.000000000000000567e-05,-2.299999999999999799e-04,-5.999999999999999474e-05,4.299999999999999894e-04,3.000000000000000000e+00,5.000000000000000000e+00
9.132000000000000000e+03,-5.999999999999999474e-05,-8.400000000000000348e-04,-3.600000000000000227e-04,-5.999999999999999474e-05,-9.000000000000000567e-05,-2.299999999999999799e-04,-5.999999999999999474e-05,4.299999999999999894e-04,3.000000000000000000e+00,5.000000000000000000e+00
9.133000000000000000e+03,-5.999999999999999474e-05,-8.400000000000000348e-04,-3.600000000000000227e-04,-5.999999999999999474e-05,-9.000000000000000567e-05,-2.299999999999999799e-04,-5.999999999999999474e-05,4.299999999999999894e-04,3.000000000000000000e+00,5.000000000000000000e+00
9.134000000000000000e+03,-5.999999999999999474e-05,-8.400000000000000348e-04,-3.600000000000000227e-04,-5.999999999999999474e-05,-9.000000000000000567e-05,-2.299999999999999799e-04,-5.999999999999999474e-05,4.299999999999999894e-04,3.000000000000000000e+00,5.000000000000000000e+00
9.135000000000000000e+03,-5.999999999999999474e-05,-8.400000000000000348e-04,-3.600000000000000227e-04,-5.999999999999999474e-05,-9.000000000000000567e-05,-2.299999999999999799e-04,-5.999999999999999474e-05,4.299999999999999894e-04,3.000000000000000000e+00,5.000000000000000000e+00
9.136000000000000000e+03,-5.999999999999999474e-05,-8.400000000000000348e-04,-3.600000000000000227e-04,-5.999999999999999474e-05,-9.000000000000000567e-05,-2.299999999999999799e-04,-5.999999999999999474e-05,4.299999999999999894e-04,3.000000000000000000e+00,5.000000000000000000e+00
9.138000000000000000e+03,-5.999999999999999474e-05,-8.400000000000000348e-04,-3.600000000000000227e-04,-5.999999999999999474e-05,-9.000000000000000567e-05,-2.299999999999999799e-04,-5.999999999999999474e-05,4.299999999999999894e-04,3.000000000000000000e+00,5.000000000000000000e+00
9.139000000000000000e+03,-5.999999999999999474e-05,-8.400000000000000348e-04,-3.600000000000000227e-04,-5.999999999999999474e-05,-9.000000000000000567e-05,-2.299999999999999799e-04,-5.999999999999999474e-05,4.299999999999999894e-04,3.000000000000000000e+00,5.000000000000000000e+00
9.140000000000000000e+03,-5.999999999999999474e-05,-8.400000000000000348e-04,-3.600000000000000227e-04,-5.999999999999999474e-05,-9.000000000000000567e-05,-2.299999999999999799e-04,-5.999999999999999474e-05,4.299999999999999894e-04,3.000000000000000000e+00,5.000000000000000000e+00
9.141000000000000000e+03,-5.999999999999999474e-05,-8.400000000000000348e-04,-3.600000000000000227e-04,-5.999999999999999474e-05,-9.000000000000000567e-05,-2.299999999999999799e-04,-5.999999999999999474e-05,4.299999999999999894e-04,3.000000000000000000e+00,5.000000000000000000e+00
9.142000000000000000e+03,-5.999999999999999474e-05,-8.400000000000000348e-04,-3.600000000000000227e-04,-5.999999999999999474e-05,-9.000000000000000567e-05,-2.299999999999999799e-04,-5.999999999999999474e-05,4.299999999999999894e-04,3.000000000000000000e+00,5.000000000000000000e+00
9.143000000000000000e+03,-5.999999999999999474e-05,-8.400000000000000348e-04,-3.600000000000000227e-04,-5.999999999999999474e-05,-9.000000000000000567e-05,-2.299999999999999799e-04,-5.999999999999999474e-05,4.299999999999999894e-04,3.000000000000000000e+00,5.000000000000000000e+00
9.144000000000000000e+03,5.999999999999999474e-05,-2.000000000000000164e-05,8.000000000000000654e-05,5.999999999999999474e-05,6.199999999999999999e-04,3.200000000000000262e-04,6.999999999999999387e-05,2.600000000000000314e-04,3.000000000000000000e+00,5.000000000000000000e+00
9.145000000000000000e+03,1.199999999999999895e-04,8.400000000000000348e-04,-1.000000000000000082e-05,-8.000000000000000654e-05,-1.800000000000000113e-04,-2.100000000000000087e-04,0.000000000000000000e+00,2.999999999999999737e-05,3.000000000000000000e+00,5.000000000000000000e+00
9.146000000000000000e+03,1.199999999999999895e-04,8.400000000000000348e-04,-1.000000000000000082e-05,-8.000000000000000654e-05,-1.800000000000000113e-04,-2.100000000000000087e-04,0.000000000000000000e+00,2.999999999999999737e-05,3.000000000000000000e+00,5.000000000000000000e+00
9.147000000000000000e+03,1.199999999999999895e-04,8.400000000000000348e-04,-1.000000000000000082e-05,-8.000000000000000654e-05,-1.800000000000000113e-04,-2.100000000000000087e-04,0.000000000000000000e+00,2.999999999999999737e-05,3.000000000000000000e+00,5.000000000000000000e+00
9.148000000000000000e+03,1.199999999999999895e-04,8.400000000000000348e-04,-1.000000000000000082e-05,-8.000000000000000654e-05,-1.800000000000000113e-04,-2.100000000000000087e-04,0.000000000000000000e+00,2.999999999999999737e-05,3.000000000000000000e+00,5.000000000000000000e+00
9.149000000000000000e+03,1.199999999999999895e-04,8.400000000000000348e-04,-1.000000000000000082e-05,-8.000000000000000654e-05,-1.800000000000000113e-04,-2.100000000000000087e-04,0.000000000000000000e+00,2.999999999999999737e-05,3.000000000000000000e+00,5.000000000000000000e+00
9.150000000000000000e+03,1.199999999999999895e-04,8.400000000000000348e-04,-1.000000000000000082e-05,-8.000000000000000654e-05,-1.800000000000000113e-04,-2.100000000000000087e-04,0.000000000000000000e+00,2.999999999999999737e-05,3.000000000000000000e+00,5.000000000000000000e+00
9.151000000000000000e+03,1.199999999999999895e-04,8.400000000000000348e-04,-1.000000000000000082e-05,-8.000000000000000654e-05,-1.800000000000000113e-04,-2.100000000000000087e-04,0.000000000000000000e+00,2.999999999999999737e-05,3.000000000000000000e+00,5.000000000000000000e+00
9.152000000000000000e+03,1.199999999999999895e-04,8.400000000000000348e-04,-1.000000000000000082e-05,-8.000000000000000654e-05,-1.800000000000000113e-04,-2.100000000000000087e-04,0.000000000000000000e+00,2.999999999999999737e-05,3.000000000000000000e+00,5.000000000000000000e+00
9.153000000000000000e+03,1.199999999999999895e-04,8.400000000000000348e-04,-1.000000000000000082e-05,-8.000000000000000654e-05,-1.800000000000000113e-04,-2.100000000000000087e-04,0.000000000000000000e+00,2.999999999999999737e-05,3.000000000000000000e+00,5.000000000000000000e+00
9.154000000000000000e+03,1.199999999999999895e-04,8.400000000000000348e-04,-1.000000000000000082e-05,-8.000000000000000654e-05,-1.800000000000000113e-04,-2.100000000000000087e-04,0.000000000000000000e+00,2.999999999999999737e-05,3.000000000000000000e+00,5.000000000000000000e+00
9.155000000000000000e+03,1.199999999999999895e-04,8.400000000000000348e-04,-1.000000000000000082e-05,-8.000000000000000654e-05,-1.800000000000000113e-04,-2.100000000000000087e-04,0.000000000000000000e+00,2.999999999999999737e-05,3.000000000000000000e+00,5.000000000000000000e+00
9.156000000000000000e+03,1.199999999999999895e-04,8.400000000000000348e-04,-1.000000000000000082e-05,-8.000000000000000654e-05,-1.800000000000000113e-04,-2.100000000000000087e-04,0.000000000000000000e+00,2.999999999999999737e-05,3.000000000000000000e+00,5.000000000000000000e+00
9.157000000000000000e+03,1.199999999999999895e-04,8.400000000000000348e-04,-1.000000000000000082e-05,-8.000000000000000654e-05,-1.800000000000000113e-04,-2.100000000000000087e-04,0.000000000000000000e+00,2.999999999999999737e-05,3.000000000000000000e+00,5.000000000000000000e+00
9.158000000000000000e+03,-1.100000000000000039e-04,-4.799999999999999580e-04,-3.200000000000000262e-04,-9.000000000000000567e-05,-1.899999999999999834e-04,3.600000000000000227e-04,5.000000000000000240e-05,4.000000000000000327e-05,3.000000000000000000e+00,5.000000000000000000e+00
9.159000000000000000e+03,-3.099999999999999999e-04,-3.899999999999999929e-04,-2.200000000000000078e-04,-4.000000000000000327e-05,1.399999999999999877e-04,-1.000000000000000082e-05,-1.499999999999999869e-04,-3.099999999999999999e-04,3.000000000000000000e+00,5.000000000000000000e+00
9.160000000000000000e+03,-3.099999999999999999e-04,-3.899999999999999929e-04,-2.200000000000000078e-04,-4.000000000000000327e-05,1.399999999999999877e-04,-1.000000000000000082e-05,-1.499999999999999869e-04,-3.099999999999999999e-04,3.000000000000000000e+00,5.000000000000000000e+00
9.161000000000000000e+03,-3.099999999999999999e-04,-3.899999999999999929e-04,-2.200000000000000078e-04,-4.000000000000000327e-05,1.399999999999999877e-04,-1.000000000000000082e-05,-1.499999999999999869e-04,-3.099999999999999999e-04,3.000000000000000000e+00,5.000000000000000000e+00
9.162000000000000000e+03,-3.099999999999999999e-04,-3.899999999999999929e-04,-2.200000000000000078e-04,-4.000000000000000327e-05,1.399999999999999877e-04,-1.000000000000000082e-05,-1.499999999999999869e-04,-3.099999999999999999e-04,3.000000000000000000e+00,5.000000000000000000e+00
9.163000000000000000e+03,-3.099999999999999999e-04,-3.899999999999999929e-04,-2.200000000000000078e-04,-4.000000000000000327e-05,1.399999999999999877e-04,-1.000000000000000082e-05,-1.499999999999999869e-04,-3.099999999999999999e-04,3.000000000000000000e+00,5.000000000000000000e+00
9.164000000000000000e+03,-3.099999999999999999e-04,-3.899999999999999929e-04,-2.200000000000000078e-04,-4.000000000000000327e-05,1.399999999999999877e-04,-1.000000000000000082e-05,-1.499999999999999869e-04,-3.099999999999999999e-04,3.000000000000000000e+00,5.000000000000000000e+00
9.165000000000000000e+03,-3.099999999999999999e-04,-3.899999999999999929e-04,-2.200000000000000078e-04,-4.000000000000000327e-05,1.399999999999999877e-04,-1.000000000000000082e-05,-1.499999999999999869e-04,-3.099999999999999999e-04,3.000000000000000000e+00,5.000000000000000000e+00
9.166000000000000000e+03,-3.099999999999999999e-04,-3.899999999999999929e-04,-2.200000000000000078e-04,-4.000000000000000327e-05,1.399999999999999877e-04,-1.000000000000000082e-05,-1.499999999999999869e-04,-3.099999999999999999e-04,3.000000000000000000e+00,5.000000000000000000e+00
9.167000000000000000e+03,-3.099999999999999999e-04,-3.899999999999999929e-04,-2.200000000000000078e-04,-4.000000000000000327e-05,1.399999999999999877e-04,-1.000000000000000082e-05,-1.499999999999999869e-04,-3.099999999999999999e-04,3.000000000000000000e+00,5.000000000000000000e+00
9.168000000000000000e+03,-3.099999999999999999e-04,-3.899999999999999929e-04,-2.200000000000000078e-04,-4.000000000000000327e-05,1.399999999999999877e-04,-1.000000000000000082e-05,-1.499999999999999869e-04,-3.099999999999999999e-04,3.000000000000000000e+00,5.000000000000000000e+00
9.169000000000000000e+03,-3.099999999999999999e-04,-3.899999999999999929e-04,-2.200000000000000078e-04,-4.000000000000000327e-05,1.399999999999999877e-04,-1.000000000000000082e-05,-1.499999999999999869e-04,-3.099999999999999999e-04,3.000000000000000000e+00,5.000000000000000000e+00
9.170000000000000000e+03,-3.099999999999999999e-04,-3.899999999999999929e-04,-2.200000000000000078e-04,-4.000000000000000327e-05,1.399999999999999877e-04,-1.000000000000000082e-05,-1.499999999999999869e-04,-3.099999999999999999e-04,3.000000000000000000e+00,5.000000000000000000e+00
9.171000000000000000e+03,-3.099999999999999999e-04,-3.899999999999999929e-04,-2.200000000000000078e-04,-4.000000000000000327e-05,1.399999999999999877e-04,-1.000000000000000082e-05,-1.499999999999999869e-04,-3.099999999999999999e-04,3.000000000000000000e+00,5.000000000000000000e+00
9.172000000000000000e+03,-3.099999999999999999e-04,-3.899999999999999929e-04,-2.200000000000000078e-04,-4.000000000000000327e-05,1.399999999999999877e-04,-1.000000000000000082e-05,-1.499999999999999869e-04,-3.099999999999999999e-04,3.000000000000000000e+00,5.000000000000000000e+00
9.173000000000000000e+03,-3.099999999999999999e-04,-3.899999999999999929e-04,-2.200000000000000078e-04,-4.000000000000000327e-05,1.399999999999999877e-04,-1.000000000000000082e-05,-1.499999999999999869e-04,-3.099999999999999999e-04,3.000000000000000000e+00,5.000000000000000000e+00
9.174000000000000000e+03,-3.099999999999999999e-04,-3.899999999999999929e-04,-2.200000000000000078e-04,-4.000000000000000327e-05,1.399999999999999877e-04,-1.000000000000000082e-05,-1.499999999999999869e-04,-3.099999999999999999e-04,3.000000000000000000e+00,5.000000000000000000e+00
9.175000000000000000e+03,-3.099999999999999999e-04,-3.899999999999999929e-04,-2.200000000000000078e-04,-4.000000000000000327e-05,1.399999999999999877e-04,-1.000000000000000082e-05,-1.499999999999999869e-04,-3.099999999999999999e-04,3.000000000000000000e+00,5.000000000000000000e+00
9.176000000000000000e+03,-3.099999999999999999e-04,-3.899999999999999929e-04,-2.200000000000000078e-04,-4.000000000000000327e-05,1.399999999999999877e-04,-1.000000000000000082e-05,-1.499999999999999869e-04,-3.099999999999999999e-04,3.000000000000000000e+00,5.000000000000000000e+00
9.177000000000000000e+03,-3.099999999999999999e-04,-3.899999999999999929e-04,-2.200000000000000078e-04,-4.000000000000000327e-05,1.399999999999999877e-04,-1.000000000000000082e-05,-1.499999999999999869e-04,-3.099999999999999999e-04,3.000000000000000000e+00,5.000000000000000000e+00
9.178000000000000000e+03,-3.099999999999999999e-04,-3.899999999999999929e-04,-2.200000000000000078e-04,-4.000000000000000327e-05,1.399999999999999877e-04,-1.000000000000000082e-05,-1.499999999999999869e-04,-3.099999999999999999e-04,3.000000000000000000e+00,5.000000000000000000e+00
9.179000000000000000e+03,-3.099999999999999999e-04,-3.899999999999999929e-04,-2.200000000000000078e-04,-4.000000000000000327e-05,1.399999999999999877e-04,-1.000000000000000082e-05,-1.499999999999999869e-04,-3.099999999999999999e-04,3.000000000000000000e+00,5.000000000000000000e+00
9.180000000000000000e+03,6.999999999999999387e-05,8.000000000000000383e-04,1.600000000000000131e-04,5.999999999999999474e-05,-1.600000000000000131e-04,-5.699999999999999772e-04,0.000000000000000000e+00,7.599999999999999334e-04,3.000000000000000000e+00,5.000000000000000000e+00
9.181000000000000000e+03,1.300000000000000157e-04,5.200000000000000629e-04,1.499999999999999869e-04,4.000000000000000327e-05,3.099999999999999999e-04,4.299999999999999894e-04,1.800000000000000113e-04,9.000000000000000567e-05,3.000000000000000000e+00,5.000000000000000000e+00
9.182000000000000000e+03,1.300000000000000157e-04,5.200000000000000629e-04,1.499999999999999869e-04,4.000000000000000327e-05,3.099999999999999999e-04,4.299999999999999894e-04,1.800000000000000113e-04,9.000000000000000567e-05,3.000000000000000000e+00,5.000000000000000000e+00
9.183000000000000000e+03,1.300000000000000157e-04,5.200000000000000629e-04,1.499999999999999869e-04,4.000000000000000327e-05,3.099999999999999999e-04,4.299999999999999894e-04,1.800000000000000113e-04,9.000000000000000567e-05,3.000000000000000000e+00,5.000000000000000000e+00
9.184000000000000000e+03,1.300000000000000157e-04,5.200000000000000629e-04,1.499999999999999869e-04,4.000000000000000327e-05,3.099999999999999999e-04,4.299999999999999894e-04,1.800000000000000113e-04,9.000000000000000567e-05,3.000000000000000000e+00,5.000000000000000000e+00
9.185000000000000000e+03,1.300000000000000157e-04,5.200000000000000629e-04,1.499999999999999869e-04,4.000000000000000327e-05,3.099999999999999999e-04,4.299999999999999894e-04,1.800000000000000113e-04,9.000000000000000567e-05,3.000000000000000000e+00,5.000000000000000000e+00
9.186000000000000000e+03,1.300000000000000157e-04,5.200000000000000629e-04,1.499999999999999869e-04,4.000000000000000327e-05,3.099999999999999999e-04,4.299999999999999894e-04,1.800000000000000113e-04,9.000000000000000567e-05,3.000000000000000000e+00,5.000000000000000000e+00
9.188000000000000000e+03,1.300000000000000157e-04,5.200000000000000629e-04,1.499999999999999869e-04,4.000000000000000327e-05,3.099999999999999999e-04,4.299999999999999894e-04,1.800000000000000113e-04,9.000000000000000567e-05,3.000000000000000000e+00,5.000000000000000000e+00
9.189000000000000000e+03,1.300000000000000157e-04,5.200000000000000629e-04,1.499999999999999869e-04,4.000000000000000327e-05,3.099999999999999999e-04,4.299999999999999894e-04,1.800000000000000113e-04,9.000000000000000567e-05,3.000000000000000000e+00,5.000000000000000000e+00
9.190000000000000000e+03,1.300000000000000157e-04,5.200000000000000629e-04,1.499999999999999869e-04,4.000000000000000327e-05,3.099999999999999999e-04,4.299999999999999894e-04,1.800000000000000113e-04,9.000000000000000567e-05,3.000000000000000000e+00,5.000000000000000000e+00
9.191000000000000000e+03,1.300000000000000157e-04,5.200000000000000629e-04,1.499999999999999869e-04,4.000000000000000327e-05,3.099999999999999999e-04,4.299999999999999894e-04,1.800000000000000113e-04,9.000000000000000567e-05,3.000000000000000000e+00,5.000000000000000000e+00
9.192000000000000000e+03,1.300000000000000157e-04,5.200000000000000629e-04,1.499999999999999869e-04,4.000000000000000327e-05,3.099999999999999999e-04,4.299999999999999894e-04,1.800000000000000113e-04,9.000000000000000567e-05,3.000000000000000000e+00,5.000000000000000000e+00
9.193000000000000000e+03,1.300000000000000157e-04,5.200000000000000629e-04,1.499999999999999869e-04,4.000000000000000327e-05,3.099999999999999999e-04,4.299999999999999894e-04,1.800000000000000113e-04,9.000000000000000567e-05,3.000000000000000000e+00,5.000000000000000000e+00
9.194000000000000000e+03,1.300000000000000157e-04,5.200000000000000629e-04,1.499999999999999869e-04,4.000000000000000327e-05,3.099999999999999999e-04,4.299999999999999894e-04,1.800000000000000113e-04,9.000000000000000567e-05,3.000000000000000000e+00,5.000000000000000000e+00
9.195000000000000000e+03,1.300000000000000157e-04,5.200000000000000629e-04,1.499999999999999869e-04,4.000000000000000327e-05,3.099999999999999999e-04,4.299999999999999894e-04,1.800000000000000113e-04,9.000000000000000567e-05,3.000000000000000000e+00,5.000000000000000000e+00
9.196000000000000000e+03,1.300000000000000157e-04,5.200000000000000629e-04,1.499999999999999869e-04,4.000000000000000327e-05,3.099999999999999999e-04,4.299999999999999894e-04,1.800000000000000113e-04,9.000000000000000567e-05,3.000000000000000000e+00,5.000000000000000000e+00
9.197000000000000000e+03,1.300000000000000157e-04,5.200000000000000629e-04,1.499999999999999869e-04,4.000000000000000327e-05,3.099999999999999999e-04,4.299999999999999894e-04,1.800000000000000113e-04,9.000000000000000567e-05,3.000000000000000000e+00,5.000000000000000000e+00
9.198000000000000000e+03,1.300000000000000157e-04,5.200000000000000629e-04,1.499999999999999869e-04,4.000000000000000327e-05,3.099999999999999999e-04,4.299999999999999894e-04,1.800000000000000113e-04,9.000000000000000567e-05,3.000000000000000000e+00,5.000000000000000000e+00
9.199000000000000000e+03,1.300000000000000157e-04,5.200000000000000629e-04,1.499999999999999869e-04,4.000000000000000327e-05,3.099999999999999999e-04,4.299999999999999894e-04,1.800000000000000113e-04,9.000000000000000567e-05,3.000000000000000000e+00,5.000000000000000000e+00
9.200000000000000000e+03,1.300000000000000157e-04,5.200000000000000629e-04,1.499999999999999869e-04,4.000000000000000327e-05,3.099999999999999999e-04,4.299999999999999894e-04,1.800000000000000113e-04,9.000000000000000567e-05,3.000000000000000000e+00,5.000000000000000000e+00
9.201000000000000000e+03,1.300000000000000157e-04,5.200000000000000629e-04,1.499999999999999869e-04,4.000000000000000327e-05,3.099999999999999999e-04,4.299999999999999894e-04,1.800000000000000113e-04,9.000000000000000567e-05,3.000000000000000000e+00,5.000000000000000000e+00
9.202000000000000000e+03,1.300000000000000157e-04,5.200000000000000629e-04,1.499999999999999869e-04,4.000000000000000327e-05,3.099999999999999999e-04,4.299999999999999894e-04,1.800000000000000113e-04,9.000000000000000567e-05,3.000000000000000000e+00,5.000000000000000000e+00
9.203000000000000000e+03,-5.999999999999999474e-05,-2.500000000000000052e-04,-2.299999999999999799e-04,-1.199999999999999895e-04,-1.300000000000000157e-04,-2.999999999999999737e-04,-1.199999999999999895e-04,-5.999999999999999474e-05,3.000000000000000000e+00,5.000000000000000000e+00
9.204000000000000000e+03,2.200000000000000078e-04,5.299999999999999807e-04,-1.300000000000000157e-04,-5.000000000000000240e-05,-2.500000000000000052e-04,-2.399999999999999790e-04,0.000000000000000000e+00,3.399999999999999702e-04,3.000000000000000000e+00,5.000000000000000000e+00
9.205000000000000000e+03,2.200000000000000078e-04,5.299999999999999807e-04,-1.300000000000000157e-04,-5.000000000000000240e-05,-2.500000000000000052e-04,-2.399999999999999790e-04,0.000000000000000000e+00,3.399999999999999702e-04,3.000000000000000000e+00,5.000000000000000000e+00
9.206000000000000000e+03,2.200000000000000078e-04,5.299999999999999807e-04,-1.300000000000000157e-04,-5.000000000000000240e-05,-2.500000000000000052e-04,-2.399999999999999790e-04,0.000000000000000000e+00,3.399999999999999702e-04,3.000000000000000000e+00,5.000000000000000000e+00
9.207000000000000000e+03,2.200000000000000078e-04,5.299999999999999807e-04,-1.300000000000000157e-04,-5.000000000000000240e-05,-2.500000000000000052e-04,-2.399999999999999790e-04,0.000000000000000000e+00,3.399999999999999702e-04,3.000000000000000000e+00,5.000000000000000000e+00
9.208000000000000000e+03,2.200000000000000078e-04,5.299999999999999807e-04,-1.300000000000000157e-04,-5.000000000000000240e-05,-2.500000000000000052e-04,-2.399999999999999790e-04,0.000000000000000000e+00,3.399999999999999702e-04,3.000000000000000000e+00,5.000000000000000000e+00
9.209000000000000000e+03,2.200000000000000078e-04,5.299999999999999807e-04,-1.300000000000000157e-04,-5.000000000000000240e-05,-2.500000000000000052e-04,-2.399999999999999790e-04,0.000000000000000000e+00,3.399999999999999702e-04,3.000000000000000000e+00,5.000000000000000000e+00
9.210000000000000000e+03,2.200000000000000078e-04,5.299999999999999807e-04,-1.300000000000000157e-04,-5.000000000000000240e-05,-2.500000000000000052e-04,-2.399999999999999790e-04,0.000000000000000000e+00,3.399999999999999702e-04,3.000000000000000000e+00,5.000000000000000000e+00
9.211000000000000000e+03,2.200000000000000078e-04,5.299999999999999807e-04,-1.300000000000000157e-04,-5.000000000000000240e-05,-2.500000000000000052e-04,-2.399999999999999790e-04,0.000000000000000000e+00,3.399999999999999702e-04,3.000000000000000000e+00,5.000000000000000000e+00
9.212000000000000000e+03,2.200000000000000078e-04,5.299999999999999807e-04,-1.300000000000000157e-04,-5.000000000000000240e-05,-2.500000000000000052e-04,-2.399999999999999790e-04,0.000000000000000000e+00,3.399999999999999702e-04,3.000000000000000000e+00,5.000000000000000000e+00
9.213000000000000000e+03,2.200000000000000078e-04,5.299999999999999807e-04,-1.300000000000000157e-04,-5.000000000000000240e-05,-2.500000000000000052e-04,-2.399999999999999790e-04,0.000000000000000000e+00,3.399999999999999702e-04,3.000000000000000000e+00,5.000000000000000000e+00
9.214000000000000000e+03,2.200000000000000078e-04,5.299999999999999807e-04,-1.300000000000000157e-04,-5.000000000000000240e-05,-2.500000000000000052e-04,-2.399999999999999790e-04,0.000000000000000000e+00,3.399999999999999702e-04,3.000000000000000000e+00,5.000000000000000000e+00
9.215000000000000000e+03,2.200000000000000078e-04,5.299999999999999807e-04,-1.300000000000000157e-04,-5.000000000000000240e-05,-2.500000000000000052e-04,-2.399999999999999790e-04,0.000000000000000000e+00,3.399999999999999702e-04,3.000000000000000000e+00,5.000000000000000000e+00
9.216000000000000000e+03,2.200000000000000078e-04,5.299999999999999807e-04,-1.300000000000000157e-04,-5.000000000000000240e-05,-2.500000000000000052e-04,-2.399999999999999790e-04,0.000000000000000000e+00,3.399999999999999702e-04,3.000000000000000000e+00,5.000000000000000000e+00
9.217000000000000000e+03,2.200000000000000078e-04,5.299999999999999807e-04,-1.300000000000000157e-04,-5.000000000000000240e-05,-2.500000000000000052e-04,-2.399999999999999790e-04,0.000000000000000000e+00,3.399999999999999702e-04,3.000000000000000000e+00,5.000000000000000000e+00
9.218000000000000000e+03,1.499999999999999869e-04,7.500000000000000156e-04,1.499999999999999869e-04,4.000000000000000327e-05,1.000000000000000048e-04,4.200000000000000174e-04,1.199999999999999895e-04,-2.000000000000000164e-05,3.000000000000000000e+00,5.000000000000000000e+00
9.219000000000000000e+03,5.999999999999999474e-05,8.000000000000000383e-04,1.899999999999999834e-04,1.000000000000000082e-05,-2.999999999999999737e-05,1.000000000000000082e-05,-2.999999999999999737e-05,3.099999999999999999e-04,3.000000000000000000e+00,5.000000000000000000e+00
9.220000000000000000e+03,5.999999999999999474e-05,8.000000000000000383e-04,1.899999999999999834e-04,1.000000000000000082e-05,-2.999999999999999737e-05,1.000000000000000082e-05,-2.999999999999999737e-05,3.099999999999999999e-04,3.000000000000000000e+00,5.000000000000000000e+00
9.221000000000000000e+03,5.999999999999999474e-05,8.000000000000000383e-04,1.899999999999999834e-04,1.000000000000000082e-05,-2.999999999999999737e-05,1.000000000000000082e-05,-2.999999999999999737e-05,3.099999999999999999e-04,3.000000000000000000e+00,5.000000000000000000e+00
9.222000000000000000e+03,5.999999999999999474e-05,8.000000000000000383e-04,1.899999999999999834e-04,1.000000000000000082e-05,-2.999999999999999737e-05,1.000000000000000082e-05,-2.999999999999999737e-05,3.099999999999999999e-04,3.000000000000000000e+00,5.000000000000000000e+00
9.223000000000000000e+03,5.999999999999999474e-05,8.000000000000000383e-04,1.899999999999999834e-04,1.000000000000000082e-05,-2.999999999999999737e-05,1.000000000000000082e-05,-2.999999999999999737e-05,3.099999999999999999e-04,3.000000000000000000e+00,5.000000000000000000e+00
9.224000000000000000e+03,5.999999999999999474e-05,8.000000000000000383e-04,1.899999999999999834e-04,1.000000000000000082e-05,-2.999999999999999737e-05,1.000000000000000082e-05,-2.999999999999999737e-05,3.099999999999999999e-04,3.000000000000000000e+00,5.000000000000000000e+00
9.225000000000000000e+03,5.999999999999999474e-05,8.000000000000000383e-04,1.899999999999999834e-04,1.000000000000000082e-05,-2.999999999999999737e-05,1.000000000000000082e-05,-2.999999999999999737e-05,3.099999999999999999e-04,3.000000000000000000e+00,5.000000000000000000e+00
9.226000000000000000e+03,5.999999999999999474e-05,8.000000000000000383e-04,1.899999999999999834e-04,1.000000000000000082e-05,-2.999999999999999737e-05,1.000000000000000082e-05,-2.999999999999999737e-05,3.099999999999999999e-04,3.000000000000000000e+00,5.000000000000000000e+00
9.227000000000000000e+03,5.999999999999999474e-05,8.000000000000000383e-04,1.899999999999999834e-04,1.000000000000000082e-05,-2.999999999999999737e-05,1.000000000000000082e-05,-2.999999999999999737e-05,3.099999999999999999e-04,3.000000000000000000e+00,5.000000000000000000e+00
9.228000000000000000e+03,5.999999999999999474e-05,8.000000000000000383e-04,1.899999999999999834e-04,1.000000000000000082e-05,-2.999999999999999737e-05,1.000000000000000082e-05,-2.999999999999999737e-05,3.099999999999999999e-04,3.000000000000000000e+00,5.000000000000000000e+00
9.229000000000000000e+03,5.999999999999999474e-05,8.000000000000000383e-04,1.899999999999999834e-04,1.000000000000000082e-05,-2.999999999999999737e-05,1.000000000000000082e-05,-2.999999999999999737e-05,3.099999999999999999e-04,3.000000000000000000e+00,5.000000000000000000e+00
9.230000000000000000e+03,5.999999999999999474e-05,8.000000000000000383e-04,1.899999999999999834e-04,1.000000000000000082e-05,-2.999999999999999737e-05,1.000000000000000082e-05,-2.999999999999999737e-05,3.099999999999999999e-04,3.000000000000000000e+00,5.000000000000000000e+00
9.231000000000000000e+03,5.999999999999999474e-05,8.000000000000000383e-04,1.899999999999999834e-04,1.000000000000000082e-05,-2.999999999999999737e-05,1.000000000000000082e-05,-2.999999999999999737e-05,3.099999999999999999e-04,3.000000000000000000e+00,5.000000000000000000e+00
9.232000000000000000e+03,5.999999999999999474e-05,8.000000000000000383e-04,1.899999999999999834e-04,1.000000000000000082e-05,-2.999999999999999737e-05,1.000000000000000082e-05,-2.999999999999999737e-05,3.099999999999999999e-04,3.000000000000000000e+00,5.000000000000000000e+00
9.233000000000000000e+03,5.999999999999999474e-05,8.000000000000000383e-04,1.899999999999999834e-04,1.000000000000000082e-05,-2.999999999999999737e-05,1.000000000000000082e-05,-2.999999999999999737e-05,3.099999999999999999e-04,3.000000000000000000e+00,5.000000000000000000e+00
9.234000000000000000e+03,5.999999999999999474e-05,8.000000000000000383e-04,1.899999999999999834e-04,1.000000000000000082e-05,-2.999999999999999737e-05,1.000000000000000082e-05,-2.999999999999999737e-05,3.099999999999999999e-04,3.000000000000000000e+00,5.000000000000000000e+00
9.235000000000000000e+03,5.999999999999999474e-05,8.000000000000000383e-04,1.899999999999999834e-04,1.000000000000000082e-05,-2.999999999999999737e-05,1.000000000000000082e-05,-2.999999999999999737e-05,3.099999999999999999e-04,3.000000000000000000e+00,5.000000000000000000e+00
9.236000000000000000e+03,5.999999999999999474e-05,8.000000000000000383e-04,1.899999999999999834e-04,1.000000000000000082e-05,-2.999999999999999737e-05,1.000000000000000082e-05,-2.999999999999999737e-05,3.099999999999999999e-04,3.000000000000000000e+00,5.000000000000000000e+00
9.238000000000000000e+03,5.999999999999999474e-05,8.000000000000000383e-04,1.899999999999999834e-04,1.000000000000000082e-05,-2.999999999999999737e-05,1.000000000000000082e-05,-2.999999999999999737e-05,3.099999999999999999e-04,3.000000000000000000e+00,5.000000000000000000e+00
9.239000000000000000e+03,5.999999999999999474e-05,8.000000000000000383e-04,1.899999999999999834e-04,1.000000000000000082e-05,-2.999999999999999737e-05,1.000000000000000082e-05,-2.999999999999999737e-05,3.099999999999999999e-04,3.000000000000000000e+00,5.000000000000000000e+00
9.240000000000000000e+03,9.000000000000000567e-05,5.400000000000000069e-04,2.100000000000000087e-04,6.999999999999999387e-05,-4.000000000000000327e-05,1.199999999999999895e-04,9.000000000000000567e-05,2.799999999999999755e-04,3.000000000000000000e+00,5.000000000000000000e+00
9.241000000000000000e+03,-1.899999999999999834e-04,-9.599999999999999159e-04,-5.599999999999999509e-04,-1.100000000000000039e-04,6.999999999999999387e-05,4.700000000000000401e-04,-2.999999999999999737e-05,-1.100000000000000039e-04,3.000000000000000000e+00,5.000000000000000000e+00
9.242000000000000000e+03,-1.899999999999999834e-04,-9.599999999999999159e-04,-5.599999999999999509e-04,-1.100000000000000039e-04,6.999999999999999387e-05,4.700000000000000401e-04,-2.999999999999999737e-05,-1.100000000000000039e-04,3.000000000000000000e+00,5.000000000000000000e+00
9.243000000000000000e+03,-1.899999999999999834e-04,-9.599999999999999159e-04,-5.599999999999999509e-04,-1.100000000000000039e-04,6.999999999999999387e-05,4.700000000000000401e-04,-2.999999999999999737e-05,-1.100000000000000039e-04,3.000000000000000000e+00,5.000000000000000000e+00
9.244000000000000000e+03,-1.899999999999999834e-04,-9.599999999999999159e-04,-5.599999999999999509e-04,-1.100000000000000039e-04,6.999999999999999387e-05,4.700000000000000401e-04,-2.999999999999999737e-05,-1.100000000000000039e-04,3.000000000000000000e+00,5.000000000000000000e+00
9.245000000000000000e+03,-1.899999999999999834e-04,-9.599999999999999159e-04,-5.599999999999999509e-04,-1.100000000000000039e-04,6.999999999999999387e-05,4.700000000000000401e-04,-2.999999999999999737e-05,-1.100000000000000039e-04,3.000000000000000000e+00,5.000000000000000000e+00
9.246000000000000000e+03,-1.899999999999999834e-04,-9.599999999999999159e-04,-5.599999999999999509e-04,-1.100000000000000039e-04,6.999999999999999387e-05,4.700000000000000401e-04,-2.999999999999999737e-05,-1.100000000000000039e-04,3.000000000000000000e+00,5.000000000000000000e+00
9.247000000000000000e+03,-1.899999999999999834e-04,-9.599999999999999159e-04,-5.599999999999999509e-04,-1.100000000000000039e-04,6.999999999999999387e-05,4.700000000000000401e-04,-2.999999999999999737e-05,-1.100000000000000039e-04,3.000000000000000000e+00,5.000000000000000000e+00
9.248000000000000000e+03,-1.899999999999999834e-04,-9.599999999999999159e-04,-5.599999999999999509e-04,-1.100000000000000039e-04,6.999999999999999387e-05,4.700000000000000401e-04,-2.999999999999999737e-05,-1.100000000000000039e-04,3.000000000000000000e+00,5.000000000000000000e+00
9.249000000000000000e+03,-1.899999999999999834e-04,-9.599999999999999159e-04,-5.599999999999999509e-04,-1.100000000000000039e-04,6.999999999999999387e-05,4.700000000000000401e-04,-2.999999999999999737e-05,-1.100000000000000039e-04,3.000000000000000000e+00,5.000000000000000000e+00
9.250000000000000000e+03,-1.899999999999999834e-04,-9.599999999999999159e-04,-5.599999999999999509e-04,-1.100000000000000039e-04,6.999999999999999387e-05,4.700000000000000401e-04,-2.999999999999999737e-05,-1.100000000000000039e-04,3.000000000000000000e+00,5.000000000000000000e+00
9.251000000000000000e+03,-1.899999999999999834e-04,-9.599999999999999159e-04,-5.599999999999999509e-04,-1.100000000000000039e-04,6.999999999999999387e-05,4.700000000000000401e-04,-2.999999999999999737e-05,-1.100000000000000039e-04,3.000000000000000000e+00,5.000000000000000000e+00
9.252000000000000000e+03,-1.899999999999999834e-04,-9.599999999999999159e-04,-5.599999999999999509e-04,-1.100000000000000039e-04,6.999999999999999387e-05,4.700000000000000401e-04,-2.999999999999999737e-05,-1.100000000000000039e-04,3.000000000000000000e+00,5.000000000000000000e+00
9.253000000000000000e+03,-1.899999999999999834e-04,-9.599999999999999159e-04,-5.599999999999999509e-04,-1.100000000000000039e-04,6.999999999999999387e-05,4.700000000000000401e-04,-2.999999999999999737e-05,-1.100000000000000039e-04,3.000000000000000000e+00,5.000000000000000000e+00
9.254000000000000000e+03,-1.899999999999999834e-04,-9.599999999999999159e-04,-5.599999999999999509e-04,-1.100000000000000039e-04,6.999999999999999387e-05,4.700000000000000401e-04,-2.999999999999999737e-05,-1.100000000000000039e-04,3.000000000000000000e+00,5.000000000000000000e+00
9.255000000000000000e+03,-1.899999999999999834e-04,-9.599999999999999159e-04,-5.599999999999999509e-04,-1.100000000000000039e-04,6.999999999999999387e-05,4.700000000000000401e-04,-2.999999999999999737e-05,-1.100000000000000039e-04,3.000000000000000000e+00,5.000000000000000000e+00
9.256000000000000000e+03,-1.899999999999999834e-04,-9.599999999999999159e-04,-5.599999999999999509e-04,-1.100000000000000039e-04,6.999999999999999387e-05,4.700000000000000401e-04,-2.999999999999999737e-05,-1.100000000000000039e-04,3.000000000000000000e+00,5.000000000000000000e+00
9.257000000000000000e+03,-1.899999999999999834e-04,-9.599999999999999159e-04,-5.599999999999999509e-04,-1.100000000000000039e-04,6.999999999999999387e-05,4.700000000000000401e-04,-2.999999999999999737e-05,-1.100000000000000039e-04,3.000000000000000000e+00,5.000000000000000000e+00
9.258000000000000000e+03,-1.899999999999999834e-04,-9.599999999999999159e-04,-5.599999999999999509e-04,-1.100000000000000039e-04,6.999999999999999387e-05,4.700000000000000401e-04,-2.999999999999999737e-05,-1.100000000000000039e-04,3.000000000000000000e+00,5.000000000000000000e+00
9.259000000000000000e+03,-1.899999999999999834e-04,-9.599999999999999159e-04,-5.599999999999999509e-04,-1.100000000000000039e-04,6.999999999999999387e-05,4.700000000000000401e-04,-2.999999999999999737e-05,-1.100000000000000039e-04,3.000000000000000000e+00,5.000000000000000000e+00
9.260000000000000000e+03,-1.899999999999999834e-04,-9.599999999999999159e-04,-5.599999999999999509e-04,-1.100000000000000039e-04,6.999999999999999387e-05,4.700000000000000401e-04,-2.999999999999999737e-05,-1.100000000000000039e-04,3.000000000000000000e+00,5.000000000000000000e+00
9.261000000000000000e+03,-1.899999999999999834e-04,-9.599999999999999159e-04,-5.599999999999999509e-04,-1.100000000000000039e-04,6.999999999999999387e-05,4.700000000000000401e-04,-2.999999999999999737e-05,-1.100000000000000039e-04,3.000000000000000000e+00,5.000000000000000000e+00
9.262000000000000000e+03,-1.899999999999999834e-04,-9.599999999999999159e-04,-5.599999999999999509e-04,-1.100000000000000039e-04,6.999999999999999387e-05,4.700000000000000401e-04,-2.999999999999999737e-05,-1.100000000000000039e-04,3.000000000000000000e+00,5.000000000000000000e+00
9.263000000000000000e+03,-1.899999999999999834e-04,-9.599999999999999159e-04,-5.599999999999999509e-04,-1.100000000000000039e-04,6.999999999999999387e-05,4.700000000000000401e-04,-2.999999999999999737e-05,-1.100000000000000039e-04,3.000000000000000000e+00,5.000000000000000000e+00
9.264000000000000000e+03,4.000000000000000327e-05,4.000000000000000192e-04,0.000000000000000000e+00,5.000000000000000240e-05,1.499999999999999869e-04,2.000000000000000096e-04,-5.999999999999999474e-05,-4.000000000000000327e-05,3.000000000000000000e+00,5.000000000000000000e+00
9.265000000000000000e+03,4.000000000000000327e-05,4.000000000000000192e-04,0.000000000000000000e+00,5.000000000000000240e-05,1.499999999999999869e-04,2.000000000000000096e-04,-5.999999999999999474e-05,-4.000000000000000327e-05,3.000000000000000000e+00,5.000000000000000000e+00
9.266000000000000000e+03,4.000000000000000327e-05,4.000000000000000192e-04,0.000000000000000000e+00,5.000000000000000240e-05,1.499999999999999869e-04,2.000000000000000096e-04,-5.999999999999999474e-05,-4.000000000000000327e-05,3.000000000000000000e+00,5.000000000000000000e+00
9.267000000000000000e+03,4.000000000000000327e-05,4.000000000000000192e-04,0.000000000000000000e+00,5.000000000000000240e-05,1.499999999999999869e-04,2.000000000000000096e-04,-5.999999999999999474e-05,-4.000000000000000327e-05,3.000000000000000000e+00,5.000000000000000000e+00
9.268000000000000000e+03,4.000000000000000327e-05,4.000000000000000192e-04,0.000000000000000000e+00,5.000000000000000240e-05,1.499999999999999869e-04,2.000000000000000096e-04,-5.999999999999999474e-05,-4.000000000000000327e-05,3.000000000000000000e+00,5.000000000000000000e+00
9.269000000000000000e+03,4.000000000000000327e-05,4.000000000000000192e-04,0.000000000000000000e+00,5.000000000000000240e-05,1.499999999999999869e-04,2.000000000000000096e-04,-5.999999999999999474e-05,-4.000000000000000327e-05,3.000000000000000000e+00,5.000000000000000000e+00
9.270000000000000000e+03,4.000000000000000327e-05,4.000000000000000192e-04,0.000000000000000000e+00,5.000000000000000240e-05,1.499999999999999869e-04,2.000000000000000096e-04,-5.999999999999999474e-05,-4.000000000000000327e-05,3.000000000000000000e+00,5.000000000000000000e+00
9.271000000000000000e+03,4.000000000000000327e-05,4.000000000000000192e-04,0.000000000000000000e+00,5.000000000000000240e-05,1.499999999999999869e-04,2.000000000000000096e-04,-5.999999999999999474e-05,-4.000000000000000327e-05,3.000000000000000000e+00,5.000000000000000000e+00
9.272000000000000000e+03,4.000000000000000327e-05,4.000000000000000192e-04,0.000000000000000000e+00,5.000000000000000240e-05,1.499999999999999869e-04,2.000000000000000096e-04,-5.999999999999999474e-05,-4.000000000000000327e-05,3.000000000000000000e+00,5.000000000000000000e+00
9.273000000000000000e+03,4.000000000000000327e-05,4.000000000000000192e-04,0.000000000000000000e+00,5.000000000000000240e-05,1.499999999999999869e-04,2.000000000000000096e-04,-5.999999999999999474e-05,-4.000000000000000327e-05,3.000000000000000000e+00,5.000000000000000000e+00
9.274000000000000000e+03,4.000000000000000327e-05,4.000000000000000192e-04,0.000000000000000000e+00,5.000000000000000240e-05,1.499999999999999869e-04,2.000000000000000096e-04,-5.999999999999999474e-05,-4.000000000000000327e-05,3.000000000000000000e+00,5.000000000000000000e+00
9.275000000000000000e+03,4.000000000000000327e-05,4.000000000000000192e-04,0.000000000000000000e+00,5.000000000000000240e-05,1.499999999999999869e-04,2.000000000000000096e-04,-5.999999999999999474e-05,-4.000000000000000327e-05,3.000000000000000000e+00,5.000000000000000000e+00
9.276000000000000000e+03,4.000000000000000327e-05,4.000000000000000192e-04,0.000000000000000000e+00,5.000000000000000240e-05,1.499999999999999869e-04,2.000000000000000096e-04,-5.999999999999999474e-05,-4.000000000000000327e-05,3.000000000000000000e+00,5.000000000000000000e+00
9.277000000000000000e+03,8.000000000000000654e-05,-5.500000000000000331e-04,-1.499999999999999869e-04,-2.000000000000000164e-05,-2.000000000000000164e-05,-1.000000000000000082e-05,-1.000000000000000082e-05,-1.399999999999999877e-04,3.000000000000000000e+00,5.000000000000000000e+00
9.278000000000000000e+03,8.000000000000000654e-05,-5.500000000000000331e-04,-1.499999999999999869e-04,-2.000000000000000164e-05,-2.000000000000000164e-05,-1.000000000000000082e-05,-1.000000000000000082e-05,-1.399999999999999877e-04,3.000000000000000000e+00,5.000000000000000000e+00
9.279000000000000000e+03,8.000000000000000654e-05,-5.500000000000000331e-04,-1.499999999999999869e-04,-2.000000000000000164e-05,-2.000000000000000164e-05,-1.000000000000000082e-05,-1.000000000000000082e-05,-1.399999999999999877e-04,3.000000000000000000e+00,5.000000000000000000e+00
9.280000000000000000e+03,8.000000000000000654e-05,-5.500000000000000331e-04,-1.499999999999999869e-04,-2.000000000000000164e-05,-2.000000000000000164e-05,-1.000000000000000082e-05,-1.000000000000000082e-05,-1.399999999999999877e-04,3.000000000000000000e+00,5.000000000000000000e+00
9.281000000000000000e+03,8.000000000000000654e-05,-5.500000000000000331e-04,-1.499999999999999869e-04,-2.000000000000000164e-05,-2.000000000000000164e-05,-1.000000000000000082e-05,-1.000000000000000082e-05,-1.399999999999999877e-04,3.000000000000000000e+00,5.000000000000000000e+00
9.282000000000000000e+03,8.000000000000000654e-05,-5.500000000000000331e-04,-1.499999999999999869e-04,-2.000000000000000164e-05,-2.000000000000000164e-05,-1.000000000000000082e-05,-1.000000000000000082e-05,-1.399999999999999877e-04,3.000000000000000000e+00,5.000000000000000000e+00
9.283000000000000000e+03,8.000000000000000654e-05,-5.500000000000000331e-04,-1.499999999999999869e-04,-2.000000000000000164e-05,-2.000000000000000164e-05,-1.000000000000000082e-05,-1.000000000000000082e-05,-1.399999999999999877e-04,3.000000000000000000e+00,5.000000000000000000e+00
9.284000000000000000e+03,8.000000000000000654e-05,-5.500000000000000331e-04,-1.499999999999999869e-04,-2.000000000000000164e-05,-2.000000000000000164e-05,-1.000000000000000082e-05,-1.000000000000000082e-05,-1.399999999999999877e-04,3.000000000000000000e+00,5.000000000000000000e+00
9.285000000000000000e+03,-5.999999999999999474e-05,4.499999999999999877e-04,-2.999999999999999737e-05,-2.999999999999999737e-05,9.000000000000000567e-05,-2.399999999999999790e-04,-2.999999999999999737e-05,2.999999999999999737e-04,3.000000000000000000e+00,5.000000000000000000e+00
9.286000000000000000e+03,-5.999999999999999474e-05,4.499999999999999877e-04,-2.999999999999999737e-05,-2.999999999999999737e-05,9.000000000000000567e-05,-2.399999999999999790e-04,-2.999999999999999737e-05,2.999999999999999737e-04,3.000000000000000000e+00,5.000000000000000000e+00
9.288000000000000000e+03,-5.999999999999999474e-05,4.499999999999999877e-04,-2.999999999999999737e-05,-2.999999999999999737e-05,9.000000000000000567e-05,-2.399999999999999790e-04,-2.999999999999999737e-05,2.999999999999999737e-04,3.000000000000000000e+00,5.000000000000000000e+00
9.289000000000000000e+03,-5.999999999999999474e-05,4.499999999999999877e-04,-2.999999999999999737e-05,-2.999999999999999737e-05,9.000000000000000567e-05,-2.399999999999999790e-04,-2.999999999999999737e-05,2.999999999999999737e-04,3.000000000000000000e+00,5.000000000000000000e+00
9.290000000000000000e+03,-5.999999999999999474e-05,4.499999999999999877e-04,-2.999999999999999737e-05,-2.999999999999999737e-05,9.000000000000000567e-05,-2.399999999999999790e-04,-2.999999999999999737e-05,2.999999999999999737e-04,3.000000000000000000e+00,5.000000000000000000e+00
9.291000000000000000e+03,-5.999999999999999474e-05,4.499999999999999877e-04,-2.999999999999999737e-05,-2.999999999999999737e-05,9.000000000000000567e-05,-2.399999999999999790e-04,-2.999999999999999737e-05,2.999999999999999737e-04,3.000000000000000000e+00,5.000000000000000000e+00
9.292000000000000000e+03,-5.999999999999999474e-05,4.499999999999999877e-04,-2.999999999999999737e-05,-2.999999999999999737e-05,9.000000000000000567e-05,-2.399999999999999790e-04,-2.999999999999999737e-05,2.999999999999999737e-04,3.000000000000000000e+00,5.000000000000000000e+00
9.293000000000000000e+03,-5.999999999999999474e-05,4.499999999999999877e-04,-2.999999999999999737e-05,-2.999999999999999737e-05,9.000000000000000567e-05,-2.399999999999999790e-04,-2.999999999999999737e-05,2.999999999999999737e-04,3.000000000000000000e+00,5.000000000000000000e+00
9.294000000000000000e+03,-5.999999999999999474e-05,4.499999999999999877e-04,-2.999999999999999737e-05,-2.999999999999999737e-05,9.000000000000000567e-05,-2.399999999999999790e-04,-2.999999999999999737e-05,2.999999999999999737e-04,3.000000000000000000e+00,5.000000000000000000e+00
9.295000000000000000e+03,-5.999999999999999474e-05,4.499999999999999877e-04,-2.999999999999999737e-05,-2.999999999999999737e-05,9.000000000000000567e-05,-2.399999999999999790e-04,-2.999999999999999737e-05,2.999999999999999737e-04,3.000000000000000000e+00,5.000000000000000000e+00
9.296000000000000000e+03,-5.999999999999999474e-05,4.499999999999999877e-04,-2.999999999999999737e-05,-2.999999999999999737e-05,9.000000000000000567e-05,-2.399999999999999790e-04,-2.999999999999999737e-05,2.999999999999999737e-04,3.000000000000000000e+00,5.000000000000000000e+00
9.297000000000000000e+03,-5.999999999999999474e-05,4.499999999999999877e-04,-2.999999999999999737e-05,-2.999999999999999737e-05,9.000000000000000567e-05,-2.399999999999999790e-04,-2.999999999999999737e-05,2.999999999999999737e-04,3.000000000000000000e+00,5.000000000000000000e+00
9.298000000000000000e+03,-5.999999999999999474e-05,4.499999999999999877e-04,-2.999999999999999737e-05,-2.999999999999999737e-05,9.000000000000000567e-05,-2.399999999999999790e-04,-2.999999999999999737e-05,2.999999999999999737e-04,3.000000000000000000e+00,5.000000000000000000e+00
9.299000000000000000e+03,-5.999999999999999474e-05,4.499999999999999877e-04,-2.999999999999999737e-05,-2.999999999999999737e-05,9.000000000000000567e-05,-2.399999999999999790e-04,-2.999999999999999737e-05,2.999999999999999737e-04,3.000000000000000000e+00,5.000000000000000000e+00
9.300000000000000000e+03,-1.000000000000000048e-04,-7.200000000000000453e-04,-8.000000000000000654e-05,-2.999999999999999737e-05,5.999999999999999474e-05,-1.199999999999999895e-04,5.999999999999999474e-05,-1.000000000000000082e-05,3.000000000000000000e+00,5.000000000000000000e+00
9.301000000000000000e+03,-1.699999999999999851e-04,-6.700000000000000226e-04,-1.100000000000000039e-04,-5.999999999999999474e-05,-1.399999999999999877e-04,-8.000000000000000654e-05,1.399999999999999877e-04,1.100000000000000039e-04,3.000000000000000000e+00,5.000000000000000000e+00
9.302000000000000000e+03,-1.699999999999999851e-04,-6.700000000000000226e-04,-1.100000000000000039e-04,-5.999999999999999474e-05,-1.399999999999999877e-04,-8.000000000000000654e-05,1.399999999999999877e-04,1.100000000000000039e-04,3.000000000000000000e+00,5.000000000000000000e+00
9.303000000000000000e+03,-1.699999999999999851e-04,-6.700000000000000226e-04,-1.100000000000000039e-04,-5.999999999999999474e-05,-1.399999999999999877e-04,-8.000000000000000654e-05,1.399999999999999877e-04,1.100000000000000039e-04,3.000000000000000000e+00,5.000000000000000000e+00
9.304000000000000000e+03,-1.699999999999999851e-04,-6.700000000000000226e-04,-1.100000000000000039e-04,-5.999999999999999474e-05,-1.399999999999999877e-04,-8.000000000000000654e-05,1.399999999999999877e-04,1.100000000000000039e-04,3.000000000000000000e+00,5.000000000000000000e+00
9.305000000000000000e+03,-1.699999999999999851e-04,-6.700000000000000226e-04,-1.100000000000000039e-04,-5.999999999999999474e-05,-1.399999999999999877e-04,-8.000000000000000654e-05,1.399999999999999877e-04,1.100000000000000039e-04,3.000000000000000000e+00,5.000000000000000000e+00
9.306000000000000000e+03,-1.699999999999999851e-04,-6.700000000000000226e-04,-1.100000000000000039e-04,-5.999999999999999474e-05,-1.399999999999999877e-04,-8.000000000000000654e-05,1.399999999999999877e-04,1.100000000000000039e-04,3.000000000000000000e+00,5.000000000000000000e+00
9.307000000000000000e+03,-1.699999999999999851e-04,-6.700000000000000226e-04,-1.100000000000000039e-04,-5.999999999999999474e-05,-1.399999999999999877e-04,-8.000000000000000654e-05,1.399999999999999877e-04,1.100000000000000039e-04,3.000000000000000000e+00,5.000000000000000000e+00
9.308000000000000000e+03,-1.699999999999999851e-04,-6.700000000000000226e-04,-1.100000000000000039e-04,-5.999999999999999474e-05,-1.399999999999999877e-04,-8.000000000000000654e-05,1.399999999999999877e-04,1.100000000000000039e-04,3.000000000000000000e+00,5.000000000000000000e+00
9.309000000000000000e+03,-1.699999999999999851e-04,-6.700000000000000226e-04,-1.100000000000000039e-04,-5.999999999999999474e-05,-1.399999999999999877e-04,-8.000000000000000654e-05,1.399999999999999877e-04,1.100000000000000039e-04,3.000000000000000000e+00,5.000000000000000000e+00
9.310000000000000000e+03,-1.699999999999999851e-04,-6.700000000000000226e-04,-1.100000000000000039e-04,-5.999999999999999474e-05,-1.399999999999999877e-04,-8.000000000000000654e-05,1.399999999999999877e-04,1.100000000000000039e-04,3.000000000000000000e+00,5.000000000000000000e+00
9.311000000000000000e+03,-1.699999999999999851e-04,-6.700000000000000226e-04,-1.100000000000000039e-04,-5.999999999999999474e-05,-1.399999999999999877e-04,-8.000000000000000654e-05,1.399999999999999877e-04,1.100000000000000039e-04,3.000000000000000000e+00,5.000000000000000000e+00
9.312000000000000000e+03,-1.699999999999999851e-04,-6.700000000000000226e-04,-1.100000000000000039e-04,-5.999999999999999474e-05,-1.399999999999999877e-04,-8.000000000000000654e-05,1.399999999999999877e-04,1.100000000000000039e-04,3.000000000000000000e+00,5.000000000000000000e+00
9.313000000000000000e+03,-1.699999999999999851e-04,-6.700000000000000226e-04,-1.100000000000000039e-04,-5.999999999999999474e-05,-1.399999999999999877e-04,-8.000000000000000654e-05,1.399999999999999877e-04,1.100000000000000039e-04,3.000000000000000000e+00,5.000000000000000000e+00
9.314000000000000000e+03,-1.699999999999999851e-04,-6.700000000000000226e-04,-1.100000000000000039e-04,-5.999999999999999474e-05,-1.399999999999999877e-04,-8.000000000000000654e-05,1.399999999999999877e-04,1.100000000000000039e-04,3.000000000000000000e+00,5.000000000000000000e+00
9.315000000000000000e+03,-1.699999999999999851e-04,-6.700000000000000226e-04,-1.100000000000000039e-04,-5.999999999999999474e-05,-1.399999999999999877e-04,-8.000000000000000654e-05,1.399999999999999877e-04,1.100000000000000039e-04,3.000000000000000000e+00,5.000000000000000000e+00
9.316000000000000000e+03,-1.699999999999999851e-04,-6.700000000000000226e-04,-1.100000000000000039e-04,-5.999999999999999474e-05,-1.399999999999999877e-04,-8.000000000000000654e-05,1.399999999999999877e-04,1.100000000000000039e-04,3.000000000000000000e+00,5.000000000000000000e+00
9.317000000000000000e+03,-1.699999999999999851e-04,-6.700000000000000226e-04,-1.100000000000000039e-04,-5.999999999999999474e-05,-1.399999999999999877e-04,-8.000000000000000654e-05,1.399999999999999877e-04,1.100000000000000039e-04,3.000000000000000000e+00,5.000000000000000000e+00
9.318000000000000000e+03,-1.699999999999999851e-04,-6.700000000000000226e-04,-1.100000000000000039e-04,-5.999999999999999474e-05,-1.399999999999999877e-04,-8.000000000000000654e-05,1.399999999999999877e-04,1.100000000000000039e-04,3.000000000000000000e+00,5.000000000000000000e+00
9.319000000000000000e+03,-1.699999999999999851e-04,-6.700000000000000226e-04,-1.100000000000000039e-04,-5.999999999999999474e-05,-1.399999999999999877e-04,-8.000000000000000654e-05,1.399999999999999877e-04,1.100000000000000039e-04,3.000000000000000000e+00,5.000000000000000000e+00
9.320000000000000000e+03,-1.699999999999999851e-04,-6.700000000000000226e-04,-1.100000000000000039e-04,-5.999999999999999474e-05,-1.399999999999999877e-04,-8.000000000000000654e-05,1.399999999999999877e-04,1.100000000000000039e-04,3.000000000000000000e+00,5.000000000000000000e+00
9.321000000000000000e+03,-1.699999999999999851e-04,-6.700000000000000226e-04,-1.100000000000000039e-04,-5.999999999999999474e-05,-1.399999999999999877e-04,-8.000000000000000654e-05,1.399999999999999877e-04,1.100000000000000039e-04,3.000000000000000000e+00,5.000000000000000000e+00
9.322000000000000000e+03,-1.699999999999999851e-04,-6.700000000000000226e-04,-1.100000000000000039e-04,-5.999999999999999474e-05,-1.399999999999999877e-04,-8.000000000000000654e-05,1.399999999999999877e-04,1.100000000000000039e-04,3.000000000000000000e+00,5.000000000000000000e+00
9.323000000000000000e+03,1.399999999999999877e-04,1.130000000000000145e-03,-6.999999999999999387e-05,1.000000000000000082e-05,0.000000000000000000e+00,-1.000000000000000048e-04,5.999999999999999474e-05,3.200000000000000262e-04,3.000000000000000000e+00,5.000000000000000000e+00
9.324000000000000000e+03,-1.000000000000000082e-05,-3.799999999999999667e-04,-1.199999999999999895e-04,-1.000000000000000082e-05,-1.000000000000000048e-04,-1.699999999999999851e-04,-2.999999999999999737e-05,-1.499999999999999869e-04,3.000000000000000000e+00,5.000000000000000000e+00
9.325000000000000000e+03,-1.000000000000000082e-05,-3.799999999999999667e-04,-1.199999999999999895e-04,-1.000000000000000082e-05,-1.000000000000000048e-04,-1.699999999999999851e-04,-2.999999999999999737e-05,-1.499999999999999869e-04,3.000000000000000000e+00,5.000000000000000000e+00
9.326000000000000000e+03,-1.000000000000000082e-05,-3.799999999999999667e-04,-1.199999999999999895e-04,-1.000000000000000082e-05,-1.000000000000000048e-04,-1.699999999999999851e-04,-2.999999999999999737e-05,-1.499999999999999869e-04,3.000000000000000000e+00,5.000000000000000000e+00
9.327000000000000000e+03,-1.000000000000000082e-05,-3.799999999999999667e-04,-1.199999999999999895e-04,-1.000000000000000082e-05,-1.000000000000000048e-04,-1.699999999999999851e-04,-2.999999999999999737e-05,-1.499999999999999869e-04,3.000000000000000000e+00,5.000000000000000000e+00
9.328000000000000000e+03,-1.000000000000000082e-05,-3.799999999999999667e-04,-1.199999999999999895e-04,-1.000000000000000082e-05,-1.000000000000000048e-04,-1.699999999999999851e-04,-2.999999999999999737e-05,-1.499999999999999869e-04,3.000000000000000000e+00,5.000000000000000000e+00
9.329000000000000000e+03,-1.000000000000000082e-05,-3.799999999999999667e-04,-1.199999999999999895e-04,-1.000000000000000082e-05,-1.000000000000000048e-04,-1.699999999999999851e-04,-2.999999999999999737e-05,-1.499999999999999869e-04,3.000000000000000000e+00,5.000000000000000000e+00
9.330000000000000000e+03,-1.000000000000000082e-05,-3.799999999999999667e-04,-1.199999999999999895e-04,-1.000000000000000082e-05,-1.000000000000000048e-04,-1.699999999999999851e-04,-2.999999999999999737e-05,-1.499999999999999869e-04,3.000000000000000000e+00,5.000000000000000000e+00
9.331000000000000000e+03,-1.000000000000000082e-05,-3.799999999999999667e-04,-1.199999999999999895e-04,-1.000000000000000082e-05,-1.000000000000000048e-04,-1.699999999999999851e-04,-2.999999999999999737e-05,-1.499999999999999869e-04,3.000000000000000000e+00,5.000000000000000000e+00
9.332000000000000000e+03,-1.000000000000000082e-05,-3.799999999999999667e-04,-1.199999999999999895e-04,-1.000000000000000082e-05,-1.000000000000000048e-04,-1.699999999999999851e-04,-2.999999999999999737e-05,-1.499999999999999869e-04,3.000000000000000000e+00,5.000000000000000000e+00
9.333000000000000000e+03,-1.000000000000000082e-05,-3.799999999999999667e-04,-1.199999999999999895e-04,-1.000000000000000082e-05,-1.000000000000000048e-04,-1.699999999999999851e-04,-2.999999999999999737e-05,-1.499999999999999869e-04,3.000000000000000000e+00,5.000000000000000000e+00
9.334000000000000000e+03,-1.000000000000000082e-05,-3.799999999999999667e-04,-1.199999999999999895e-04,-1.000000000000000082e-05,-1.000000000000000048e-04,-1.699999999999999851e-04,-2.999999999999999737e-05,-1.499999999999999869e-04,3.000000000000000000e+00,5.000000000000000000e+00
9.335000000000000000e+03,-1.000000000000000082e-05,-3.799999999999999667e-04,-1.199999999999999895e-04,-1.000000000000000082e-05,-1.000000000000000048e-04,-1.699999999999999851e-04,-2.999999999999999737e-05,-1.499999999999999869e-04,3.000000000000000000e+00,5.000000000000000000e+00
9.336000000000000000e+03,-1.000000000000000082e-05,-3.799999999999999667e-04,-1.199999999999999895e-04,-1.000000000000000082e-05,-1.000000000000000048e-04,-1.699999999999999851e-04,-2.999999999999999737e-05,-1.499999999999999869e-04,3.000000000000000000e+00,5.000000000000000000e+00
9.338000000000000000e+03,-1.699999999999999851e-04,-1.149999999999999981e-03,-2.000000000000000164e-05,-2.000000000000000164e-05,-1.600000000000000131e-04,-2.100000000000000087e-04,-1.800000000000000113e-04,1.000000000000000082e-05,3.000000000000000000e+00,5.000000000000000000e+00
9.339000000000000000e+03,-1.699999999999999851e-04,-1.149999999999999981e-03,-2.000000000000000164e-05,-2.000000000000000164e-05,-1.600000000000000131e-04,-2.100000000000000087e-04,-1.800000000000000113e-04,1.000000000000000082e-05,3.000000000000000000e+00,5.000000000000000000e+00
9.340000000000000000e+03,-1.699999999999999851e-04,-1.149999999999999981e-03,-2.000000000000000164e-05,-2.000000000000000164e-05,-1.600000000000000131e-04,-2.100000000000000087e-04,-1.800000000000000113e-04,1.000000000000000082e-05,3.000000000000000000e+00,5.000000000000000000e+00
9.341000000000000000e+03,-1.699999999999999851e-04,-1.149999999999999981e-03,-2.000000000000000164e-05,-2.000000000000000164e-05,-1.600000000000000131e-04,-2.100000000000000087e-04,-1.800000000000000113e-04,1.000000000000000082e-05,3.000000000000000000e+00,5.000000000000000000e+00
9.342000000000000000e+03,-1.699999999999999851e-04,-1.149999999999999981e-03,-2.000000000000000164e-05,-2.000000000000000164e-05,-1.600000000000000131e-04,-2.100000000000000087e-04,-1.800000000000000113e-04,1.000000000000000082e-05,3.000000000000000000e+00,5.000000000000000000e+00
9.343000000000000000e+03,-1.699999999999999851e-04,-1.149999999999999981e-03,-2.000000000000000164e-05,-2.000000000000000164e-05,-1.600000000000000131e-04,-2.100000000000000087e-04,-1.800000000000000113e-04,1.000000000000000082e-05,3.000000000000000000e+00,5.000000000000000000e+00
9.344000000000000000e+03,-1.699999999999999851e-04,-1.149999999999999981e-03,-2.000000000000000164e-05,-2.000000000000000164e-05,-1.600000000000000131e-04,-2.100000000000000087e-04,-1.800000000000000113e-04,1.000000000000000082e-05,3.000000000000000000e+00,5.000000000000000000e+00
9.345000000000000000e+03,5.999999999999999474e-05,7.299999999999999632e-04,2.399999999999999790e-04,2.000000000000000164e-05,-4.099999999999999912e-04,-8.000000000000000654e-05,-1.699999999999999851e-04,-1.800000000000000113e-04,3.000000000000000000e+00,5.000000000000000000e+00
9.346000000000000000e+03,5.999999999999999474e-05,7.299999999999999632e-04,2.399999999999999790e-04,2.000000000000000164e-05,-4.099999999999999912e-04,-8.000000000000000654e-05,-1.699999999999999851e-04,-1.800000000000000113e-04,3.000000000000000000e+00,5.000000000000000000e+00
9.347000000000000000e+03,5.999999999999999474e-05,7.299999999999999632e-04,2.399999999999999790e-04,2.000000000000000164e-05,-4.099999999999999912e-04,-8.000000000000000654e-05,-1.699999999999999851e-04,-1.800000000000000113e-04,3.000000000000000000e+00,5.000000000000000000e+00
9.348000000000000000e+03,5.999999999999999474e-05,7.299999999999999632e-04,2.399999999999999790e-04,2.000000000000000164e-05,-4.099999999999999912e-04,-8.000000000000000654e-05,-1.699999999999999851e-04,-1.800000000000000113e-04,3.000000000000000000e+00,5.000000000000000000e+00
9.349000000000000000e+03,5.999999999999999474e-05,7.299999999999999632e-04,2.399999999999999790e-04,2.000000000000000164e-05,-4.099999999999999912e-04,-8.000000000000000654e-05,-1.699999999999999851e-04,-1.800000000000000113e-04,3.000000000000000000e+00,5.000000000000000000e+00
9.350000000000000000e+03,5.999999999999999474e-05,7.299999999999999632e-04,2.399999999999999790e-04,2.000000000000000164e-05,-4.099999999999999912e-04,-8.000000000000000654e-05,-1.699999999999999851e-04,-1.800000000000000113e-04,3.000000000000000000e+00,5.000000000000000000e+00
9.351000000000000000e+03,5.999999999999999474e-05,7.299999999999999632e-04,2.399999999999999790e-04,2.000000000000000164e-05,-4.099999999999999912e-04,-8.000000000000000654e-05,-1.699999999999999851e-04,-1.800000000000000113e-04,3.000000000000000000e+00,5.000000000000000000e+00
9.352000000000000000e+03,5.999999999999999474e-05,7.299999999999999632e-04,2.399999999999999790e-04,2.000000000000000164e-05,-4.099999999999999912e-04,-8.000000000000000654e-05,-1.699999999999999851e-04,-1.800000000000000113e-04,3.000000000000000000e+00,5.000000000000000000e+00
9.353000000000000000e+03,5.999999999999999474e-05,7.299999999999999632e-04,2.399999999999999790e-04,2.000000000000000164e-05,-4.099999999999999912e-04,-8.000000000000000654e-05,-1.699999999999999851e-04,-1.800000000000000113e-04,3.000000000000000000e+00,5.000000000000000000e+00
9.354000000000000000e+03,5.999999999999999474e-05,7.299999999999999632e-04,2.399999999999999790e-04,2.000000000000000164e-05,-4.099999999999999912e-04,-8.000000000000000654e-05,-1.699999999999999851e-04,-1.800000000000000113e-04,3.000000000000000000e+00,5.000000000000000000e+00
9.355000000000000000e+03,5.999999999999999474e-05,7.299999999999999632e-04,2.399999999999999790e-04,2.000000000000000164e-05,-4.099999999999999912e-04,-8.000000000000000654e-05,-1.699999999999999851e-04,-1.800000000000000113e-04,3.000000000000000000e+00,5.000000000000000000e+00
9.356000000000000000e+03,5.999999999999999474e-05,7.299999999999999632e-04,2.399999999999999790e-04,2.000000000000000164e-05,-4.099999999999999912e-04,-8.000000000000000654e-05,-1.699999999999999851e-04,-1.800000000000000113e-04,3.000000000000000000e+00,5.000000000000000000e+00
9.357000000000000000e+03,5.999999999999999474e-05,7.299999999999999632e-04,2.399999999999999790e-04,2.000000000000000164e-05,-4.099999999999999912e-04,-8.000000000000000654e-05,-1.699999999999999851e-04,-1.800000000000000113e-04,3.000000000000000000e+00,5.000000000000000000e+00
9.358000000000000000e+03,5.999999999999999474e-05,7.299999999999999632e-04,2.399999999999999790e-04,2.000000000000000164e-05,-4.099999999999999912e-04,-8.000000000000000654e-05,-1.699999999999999851e-04,-1.800000000000000113e-04,3.000000000000000000e+00,5.000000000000000000e+00
9.359000000000000000e+03,5.999999999999999474e-05,7.299999999999999632e-04,2.399999999999999790e-04,2.000000000000000164e-05,-4.099999999999999912e-04,-8.000000000000000654e-05,-1.699999999999999851e-04,-1.800000000000000113e-04,3.000000000000000000e+00,5.000000000000000000e+00
9.360000000000000000e+03,2.299999999999999799e-04,2.999999999999999737e-04,1.600000000000000131e-04,5.999999999999999474e-05,1.499999999999999869e-04,4.000000000000000327e-05,-5.999999999999999474e-05,-2.999999999999999737e-05,3.000000000000000000e+00,5.000000000000000000e+00
9.361000000000000000e+03,6.999999999999999387e-05,-7.099999999999999107e-04,2.600000000000000314e-04,4.000000000000000327e-05,1.399999999999999877e-04,-1.800000000000000113e-04,-4.000000000000000327e-05,-2.000000000000000164e-05,3.000000000000000000e+00,5.000000000000000000e+00
9.362000000000000000e+03,6.999999999999999387e-05,-7.099999999999999107e-04,2.600000000000000314e-04,4.000000000000000327e-05,1.399999999999999877e-04,-1.800000000000000113e-04,-4.000000000000000327e-05,-2.000000000000000164e-05,3.000000000000000000e+00,5.000000000000000000e+00
9.363000000000000000e+03,6.999999999999999387e-05,-7.099999999999999107e-04,2.600000000000000314e-04,4.000000000000000327e-05,1.399999999999999877e-04,-1.800000000000000113e-04,-4.000000000000000327e-05,-2.000000000000000164e-05,3.000000000000000000e+00,5.000000000000000000e+00
9.364000000000000000e+03,6.999999999999999387e-05,-7.099999999999999107e-04,2.600000000000000314e-04,4.000000000000000327e-05,1.399999999999999877e-04,-1.800000000000000113e-04,-4.000000000000000327e-05,-2.000000000000000164e-05,3.000000000000000000e+00,5.000000000000000000e+00
9.365000000000000000e+03,6.999999999999999387e-05,-7.099999999999999107e-04,2.600000000000000314e-04,4.000000000000000327e-05,1.399999999999999877e-04,-1.800000000000000113e-04,-4.000000000000000327e-05,-2.000000000000000164e-05,3.000000000000000000e+00,5.000000000000000000e+00
9.366000000000000000e+03,6.999999999999999387e-05,-7.099999999999999107e-04,2.600000000000000314e-04,4.000000000000000327e-05,1.399999999999999877e-04,-1.800000000000000113e-04,-4.000000000000000327e-05,-2.000000000000000164e-05,3.000000000000000000e+00,5.000000000000000000e+00
9.367000000000000000e+03,6.999999999999999387e-05,-7.099999999999999107e-04,2.600000000000000314e-04,4.000000000000000327e-05,1.399999999999999877e-04,-1.800000000000000113e-04,-4.000000000000000327e-05,-2.000000000000000164e-05,3.000000000000000000e+00,5.000000000000000000e+00
9.368000000000000000e+03,6.999999999999999387e-05,-7.099999999999999107e-04,2.600000000000000314e-04,4.000000000000000327e-05,1.399999999999999877e-04,-1.800000000000000113e-04,-4.000000000000000327e-05,-2.000000000000000164e-05,3.000000000000000000e+00,5.000000000000000000e+00
9.369000000000000000e+03,6.999999999999999387e-05,-7.099999999999999107e-04,2.600000000000000314e-04,4.000000000000000327e-05,1.399999999999999877e-04,-1.800000000000000113e-04,-4.000000000000000327e-05,-2.000000000000000164e-05,3.000000000000000000e+00,5.000000000000000000e+00
9.370000000000000000e+03,6.999999999999999387e-05,-7.099999999999999107e-04,2.600000000000000314e-04,4.000000000000000327e-05,1.399999999999999877e-04,-1.800000000000000113e-04,-4.000000000000000327e-05,-2.000000000000000164e-05,3.000000000000000000e+00,5.000000000000000000e+00
9.371000000000000000e+03,6.999999999999999387e-05,-7.099999999999999107e-04,2.600000000000000314e-04,4.000000000000000327e-05,1.399999999999999877e-04,-1.800000000000000113e-04,-4.000000000000000327e-05,-2.000000000000000164e-05,3.000000000000000000e+00,5.000000000000000000e+00
9.372000000000000000e+03,6.999999999999999387e-05,-7.099999999999999107e-04,2.600000000000000314e-04,4.000000000000000327e-05,1.399999999999999877e-04,-1.800000000000000113e-04,-4.000000000000000327e-05,-2.000000000000000164e-05,3.000000000000000000e+00,5.000000000000000000e+00
9.373000000000000000e+03,6.999999999999999387e-05,-7.099999999999999107e-04,2.600000000000000314e-04,4.000000000000000327e-05,1.399999999999999877e-04,-1.800000000000000113e-04,-4.000000000000000327e-05,-2.000000000000000164e-05,3.000000000000000000e+00,5.000000000000000000e+00
9.374000000000000000e+03,6.999999999999999387e-05,-7.099999999999999107e-04,2.600000000000000314e-04,4.000000000000000327e-05,1.399999999999999877e-04,-1.800000000000000113e-04,-4.000000000000000327e-05,-2.000000000000000164e-05,3.000000000000000000e+00,5.000000000000000000e+00
9.375000000000000000e+03,6.999999999999999387e-05,-7.099999999999999107e-04,2.600000000000000314e-04,4.000000000000000327e-05,1.399999999999999877e-04,-1.800000000000000113e-04,-4.000000000000000327e-05,-2.000000000000000164e-05,3.000000000000000000e+00,5.000000000000000000e+00
9.376000000000000000e+03,6.999999999999999387e-05,-7.099999999999999107e-04,2.600000000000000314e-04,4.000000000000000327e-05,1.399999999999999877e-04,-1.800000000000000113e-04,-4.000000000000000327e-05,-2.000000000000000164e-05,3.000000000000000000e+00,5.000000000000000000e+00
9.377000000000000000e+03,6.999999999999999387e-05,-7.099999999999999107e-04,2.600000000000000314e-04,4.000000000000000327e-05,1.399999999999999877e-04,-1.800000000000000113e-04,-4.000000000000000327e-05,-2.000000000000000164e-05,3.000000000000000000e+00,5.000000000000000000e+00
9.378000000000000000e+03,6.999999999999999387e-05,-7.099999999999999107e-04,2.600000000000000314e-04,4.000000000000000327e-05,1.399999999999999877e-04,-1.800000000000000113e-04,-4.000000000000000327e-05,-2.000000000000000164e-05,3.000000000000000000e+00,5.000000000000000000e+00
9.379000000000000000e+03,6.999999999999999387e-05,-7.099999999999999107e-04,2.600000000000000314e-04,4.000000000000000327e-05,1.399999999999999877e-04,-1.800000000000000113e-04,-4.000000000000000327e-05,-2.000000000000000164e-05,3.000000000000000000e+00,5.000000000000000000e+00
9.380000000000000000e+03,6.999999999999999387e-05,-7.099999999999999107e-04,2.600000000000000314e-04,4.000000000000000327e-05,1.399999999999999877e-04,-1.800000000000000113e-04,-4.000000000000000327e-05,-2.000000000000000164e-05,3.000000000000000000e+00,5.000000000000000000e+00
9.381000000000000000e+03,6.999999999999999387e-05,-7.099999999999999107e-04,2.600000000000000314e-04,4.000000000000000327e-05,1.399999999999999877e-04,-1.800000000000000113e-04,-4.000000000000000327e-05,-2.000000000000000164e-05,3.000000000000000000e+00,5.000000000000000000e+00
9.382000000000000000e+03,6.999999999999999387e-05,-7.099999999999999107e-04,2.600000000000000314e-04,4.000000000000000327e-05,1.399999999999999877e-04,-1.800000000000000113e-04,-4.000000000000000327e-05,-2.000000000000000164e-05,3.000000000000000000e+00,5.000000000000000000e+00
9.383000000000000000e+03,0.000000000000000000e+00,5.599999999999999509e-04,5.999999999999999474e-05,-5.999999999999999474e-05,-5.000000000000000104e-04,-4.599999999999999597e-04,-1.399999999999999877e-04,-2.600000000000000314e-04,3.000000000000000000e+00,5.000000000000000000e+00
9.384000000000000000e+03,6.999999999999999387e-05,-5.200000000000000629e-04,-2.999999999999999737e-05,-2.999999999999999737e-05,1.000000000000000048e-04,1.399999999999999877e-04,-1.000000000000000048e-04,4.000000000000000327e-05,3.000000000000000000e+00,5.000000000000000000e+00
9.385000000000000000e+03,6.999999999999999387e-05,-5.200000000000000629e-04,-2.999999999999999737e-05,-2.999999999999999737e-05,1.000000000000000048e-04,1.399999999999999877e-04,-1.000000000000000048e-04,4.000000000000000327e-05,3.000000000000000000e+00,5.000000000000000000e+00
9.386000000000000000e+03,6.999999999999999387e-05,-5.200000000000000629e-04,-2.999999999999999737e-05,-2.999999999999999737e-05,1.000000000000000048e-04,1.399999999999999877e-04,-1.000000000000000048e-04,4.000000000000000327e-05,3.000000000000000000e+00,5.000000000000000000e+00
9.388000000000000000e+03,6.999999999999999387e-05,-5.200000000000000629e-04,-2.999999999999999737e-05,-2.999999999999999737e-05,1.000000000000000048e-04,1.399999999999999877e-04,-1.000000000000000048e-04,4.000000000000000327e-05,3.000000000000000000e+00,5.000000000000000000e+00
9.389000000000000000e+03,6.999999999999999387e-05,-5.200000000000000629e-04,-2.999999999999999737e-05,-2.999999999999999737e-05,1.000000000000000048e-04,1.399999999999999877e-04,-1.000000000000000048e-04,4.000000000000000327e-05,3.000000000000000000e+00,5.000000000000000000e+00
9.390000000000000000e+03,6.999999999999999387e-05,-5.200000000000000629e-04,-2.999999999999999737e-05,-2.999999999999999737e-05,1.000000000000000048e-04,1.399999999999999877e-04,-1.000000000000000048e-04,4.000000000000000327e-05,3.000000000000000000e+00,5.000000000000000000e+00
9.391000000000000000e+03,6.999999999999999387e-05,-5.200000000000000629e-04,-2.999999999999999737e-05,-2.999999999999999737e-05,1.000000000000000048e-04,1.399999999999999877e-04,-1.000000000000000048e-04,4.000000000000000327e-05,3.000000000000000000e+00,5.000000000000000000e+00
9.392000000000000000e+03,6.999999999999999387e-05,-5.200000000000000629e-04,-2.999999999999999737e-05,-2.999999999999999737e-05,1.000000000000000048e-04,1.399999999999999877e-04,-1.000000000000000048e-04,4.000000000000000327e-05,3.000000000000000000e+00,5.000000000000000000e+00
9.393000000000000000e+03,6.999999999999999387e-05,-5.200000000000000629e-04,-2.999999999999999737e-05,-2.999999999999999737e-05,1.000000000000000048e-04,1.399999999999999877e-04,-1.000000000000000048e-04,4.000000000000000327e-05,3.000000000000000000e+00,5.000000000000000000e+00
9.394000000000000000e+03,6.999999999999999387e-05,-5.200000000000000629e-04,-2.999999999999999737e-05,-2.999999999999999737e-05,1.000000000000000048e-04,1.399999999999999877e-04,-1.000000000000000048e-04,4.000000000000000327e-05,3.000000000000000000e+00,5.000000000000000000e+00
9.395000000000000000e+03,6.999999999999999387e-05,-5.200000000000000629e-04,-2.999999999999999737e-05,-2.999999999999999737e-05,1.000000000000000048e-04,1.399999999999999877e-04,-1.000000000000000048e-04,4.000000000000000327e-05,3.000000000000000000e+00,5.000000000000000000e+00
9.396000000000000000e+03,6.999999999999999387e-05,-5.200000000000000629e-04,-2.999999999999999737e-05,-2.999999999999999737e-05,1.000000000000000048e-04,1.399999999999999877e-04,-1.000000000000000048e-04,4.000000000000000327e-05,3.000000000000000000e+00,5.000000000000000000e+00
9.397000000000000000e+03,5.999999999999999474e-05,-6.199999999999999999e-04,-2.399999999999999790e-04,-2.000000000000000164e-05,3.699999999999999947e-04,1.399999999999999877e-04,8.000000000000000654e-05,1.000000000000000048e-04,3.000000000000000000e+00,5.000000000000000000e+00
9.398000000000000000e+03,5.999999999999999474e-05,-6.199999999999999999e-04,-2.399999999999999790e-04,-2.000000000000000164e-05,3.699999999999999947e-04,1.399999999999999877e-04,8.000000000000000654e-05,1.000000000000000048e-04,3.000000000000000000e+00,5.000000000000000000e+00
9.399000000000000000e+03,5.999999999999999474e-05,-6.199999999999999999e-04,-2.399999999999999790e-04,-2.000000000000000164e-05,3.699999999999999947e-04,1.399999999999999877e-04,8.000000000000000654e-05,1.000000000000000048e-04,3.000000000000000000e+00,5.000000000000000000e+00
9.400000000000000000e+03,5.999999999999999474e-05,-6.199999999999999999e-04,-2.399999999999999790e-04,-2.000000000000000164e-05,3.699999999999999947e-04,1.399999999999999877e-04,8.000000000000000654e-05,1.000000000000000048e-04,3.000000000000000000e+00,5.000000000000000000e+00
9.401000000000000000e+03,5.999999999999999474e-05,-6.199999999999999999e-04,-2.399999999999999790e-04,-2.000000000000000164e-05,3.699999999999999947e-04,1.399999999999999877e-04,8.000000000000000654e-05,1.000000000000000048e-04,3.000000000000000000e+00,5.000000000000000000e+00
9.402000000000000000e+03,5.999999999999999474e-05,-6.199999999999999999e-04,-2.399999999999999790e-04,-2.000000000000000164e-05,3.699999999999999947e-04,1.399999999999999877e-04,8.000000000000000654e-05,1.000000000000000048e-04,3.000000000000000000e+00,5.000000000000000000e+00
9.403000000000000000e+03,5.999999999999999474e-05,-6.199999999999999999e-04,-2.399999999999999790e-04,-2.000000000000000164e-05,3.699999999999999947e-04,1.399999999999999877e-04,8.000000000000000654e-05,1.000000000000000048e-04,3.000000000000000000e+00,5.000000000000000000e+00
9.404000000000000000e+03,5.999999999999999474e-05,-6.199999999999999999e-04,-2.399999999999999790e-04,-2.000000000000000164e-05,3.699999999999999947e-04,1.399999999999999877e-04,8.000000000000000654e-05,1.000000000000000048e-04,3.000000000000000000e+00,5.000000000000000000e+00
9.405000000000000000e+03,-1.600000000000000131e-04,-2.200000000000000078e-04,-1.000000000000000082e-05,-1.000000000000000082e-05,-2.500000000000000052e-04,-5.900000000000000296e-04,-1.499999999999999869e-04,5.000000000000000240e-05,3.000000000000000000e+00,5.000000000000000000e+00
9.406000000000000000e+03,-1.600000000000000131e-04,-2.200000000000000078e-04,-1.000000000000000082e-05,-1.000000000000000082e-05,-2.500000000000000052e-04,-5.900000000000000296e-04,-1.499999999999999869e-04,5.000000000000000240e-05,3.000000000000000000e+00,5.000000000000000000e+00
9.407000000000000000e+03,-1.600000000000000131e-04,-2.200000000000000078e-04,-1.000000000000000082e-05,-1.000000000000000082e-05,-2.500000000000000052e-04,-5.900000000000000296e-04,-1.499999999999999869e-04,5.000000000000000240e-05,3.000000000000000000e+00,5.000000000000000000e+00
9.408000000000000000e+03,-1.600000000000000131e-04,-2.200000000000000078e-04,-1.000000000000000082e-05,-1.000000000000000082e-05,-2.500000000000000052e-04,-5.900000000000000296e-04,-1.499999999999999869e-04,5.000000000000000240e-05,3.000000000000000000e+00,5.000000000000000000e+00
9.409000000000000000e+03,-1.600000000000000131e-04,-2.200000000000000078e-04,-1.000000000000000082e-05,-1.000000000000000082e-05,-2.500000000000000052e-04,-5.900000000000000296e-04,-1.499999999999999869e-04,5.000000000000000240e-05,3.000000000000000000e+00,5.000000000000000000e+00
9.410000000000000000e+03,-1.600000000000000131e-04,-2.200000000000000078e-04,-1.000000000000000082e-05,-1.000000000000000082e-05,-2.500000000000000052e-04,-5.900000000000000296e-04,-1.499999999999999869e-04,5.000000000000000240e-05,3.000000000000000000e+00,5.000000000000000000e+00
9.411000000000000000e+03,-1.600000000000000131e-04,-2.200000000000000078e-04,-1.000000000000000082e-05,-1.000000000000000082e-05,-2.500000000000000052e-04,-5.900000000000000296e-04,-1.499999999999999869e-04,5.000000000000000240e-05,3.000000000000000000e+00,5.000000000000000000e+00
9.412000000000000000e+03,-1.600000000000000131e-04,-2.200000000000000078e-04,-1.000000000000000082e-05,-1.000000000000000082e-05,-2.500000000000000052e-04,-5.900000000000000296e-04,-1.499999999999999869e-04,5.000000000000000240e-05,3.000000000000000000e+00,5.000000000000000000e+00
9.413000000000000000e+03,-1.600000000000000131e-04,-2.200000000000000078e-04,-1.000000000000000082e-05,-1.000000000000000082e-05,-2.500000000000000052e-04,-5.900000000000000296e-04,-1.499999999999999869e-04,5.000000000000000240e-05,3.000000000000000000e+00,5.000000000000000000e+00
9.414000000000000000e+03,-1.600000000000000131e-04,-2.200000000000000078e-04,-1.000000000000000082e-05,-1.000000000000000082e-05,-2.500000000000000052e-04,-5.900000000000000296e-04,-1.499999999999999869e-04,5.000000000000000240e-05,3.000000000000000000e+00,5.000000000000000000e+00
9.415000000000000000e+03,-1.600000000000000131e-04,-2.200000000000000078e-04,-1.000000000000000082e-05,-1.000000000000000082e-05,-2.500000000000000052e-04,-5.900000000000000296e-04,-1.499999999999999869e-04,5.000000000000000240e-05,3.000000000000000000e+00,5.000000000000000000e+00
9.416000000000000000e+03,-1.600000000000000131e-04,-2.200000000000000078e-04,-1.000000000000000082e-05,-1.000000000000000082e-05,-2.500000000000000052e-04,-5.900000000000000296e-04,-1.499999999999999869e-04,5.000000000000000240e-05,3.000000000000000000e+00,5.000000000000000000e+00
9.417000000000000000e+03,-1.600000000000000131e-04,-2.200000000000000078e-04,-1.000000000000000082e-05,-1.000000000000000082e-05,-2.500000000000000052e-04,-5.900000000000000296e-04,-1.499999999999999869e-04,5.000000000000000240e-05,3.000000000000000000e+00,5.000000000000000000e+00
9.418000000000000000e+03,-1.600000000000000131e-04,-2.200000000000000078e-04,-1.000000000000000082e-05,-1.000000000000000082e-05,-2.500000000000000052e-04,-5.900000000000000296e-04,-1.499999999999999869e-04,5.000000000000000240e-05,3.000000000000000000e+00,5.000000000000000000e+00
9.419000000000000000e+03,-1.600000000000000131e-04,-2.200000000000000078e-04,-1.000000000000000082e-05,-1.000000000000000082e-05,-2.500000000000000052e-04,-5.900000000000000296e-04,-1.499999999999999869e-04,5.000000000000000240e-05,3.000000000000000000e+00,5.000000000000000000e+00
9.420000000000000000e+03,1.300000000000000157e-04,6.799999999999999404e-04,4.000000000000000327e-05,-2.999999999999999737e-05,-6.999999999999999387e-05,-1.899999999999999834e-04,-2.200000000000000078e-04,-6.999999999999999387e-05,3.000000000000000000e+00,5.000000000000000000e+00
9.421000000000000000e+03,1.100000000000000039e-04,2.999999999999999737e-04,2.100000000000000087e-04,1.000000000000000082e-05,-2.100000000000000087e-04,-4.400000000000000157e-04,1.699999999999999851e-04,2.000000000000000164e-05,3.000000000000000000e+00,5.000000000000000000e+00
9.422000000000000000e+03,1.100000000000000039e-04,2.999999999999999737e-04,2.100000000000000087e-04,1.000000000000000082e-05,-2.100000000000000087e-04,-4.400000000000000157e-04,1.699999999999999851e-04,2.000000000000000164e-05,3.000000000000000000e+00,5.000000000000000000e+00
9.423000000000000000e+03,1.100000000000000039e-04,2.999999999999999737e-04,2.100000000000000087e-04,1.000000000000000082e-05,-2.100000000000000087e-04,-4.400000000000000157e-04,1.699999999999999851e-04,2.000000000000000164e-05,3.000000000000000000e+00,5.000000000000000000e+00
9.424000000000000000e+03,1.100000000000000039e-04,2.999999999999999737e-04,2.100000000000000087e-04,1.000000000000000082e-05,-2.100000000000000087e-04,-4.400000000000000157e-04,1.699999999999999851e-04,2.000000000000000164e-05,3.000000000000000000e+00,5.000000000000000000e+00
9.425000000000000000e+03,1.100000000000000039e-04,2.999999999999999737e-04,2.100000000000000087e-04,1.000000000000000082e-05,-2.100000000000000087e-04,-4.400000000000000157e-04,1.699999999999999851e-04,2.000000000000000164e-05,3.000000000000000000e+00,5.000000000000000000e+00
9.426000000000000000e+03,1.100000000000000039e-04,2.999999999999999737e-04,2.100000000000000087e-04,1.000000000000000082e-05,-2.100000000000000087e-04,-4.400000000000000157e-04,1.699999999999999851e-04,2.000000000000000164e-05,3.000000000000000000e+00,5.000000000000000000e+00
9.427000000000000000e+03,1.100000000000000039e-04,2.999999999999999737e-04,2.100000000000000087e-04,1.000000000000000082e-05,-2.100000000000000087e-04,-4.400000000000000157e-04,1.699999999999999851e-04,2.000000000000000164e-05,3.000000000000000000e+00,5.000000000000000000e+00
9.428000000000000000e+03,1.100000000000000039e-04,2.999999999999999737e-04,2.100000000000000087e-04,1.000000000000000082e-05,-2.100000000000000087e-04,-4.400000000000000157e-04,1.699999999999999851e-04,2.000000000000000164e-05,3.000000000000000000e+00,5.000000000000000000e+00
9.429000000000000000e+03,1.100000000000000039e-04,2.999999999999999737e-04,2.100000000000000087e-04,1.000000000000000082e-05,-2.100000000000000087e-04,-4.400000000000000157e-04,1.699999999999999851e-04,2.000000000000000164e-05,3.000000000000000000e+00,5.000000000000000000e+00
9.430000000000000000e+03,1.100000000000000039e-04,2.999999999999999737e-04,2.100000000000000087e-04,1.000000000000000082e-05,-2.100000000000000087e-04,-4.400000000000000157e-04,1.699999999999999851e-04,2.000000000000000164e-05,3.000000000000000000e+00,5.000000000000000000e+00
9.431000000000000000e+03,1.100000000000000039e-04,2.999999999999999737e-04,2.100000000000000087e-04,1.000000000000000082e-05,-2.100000000000000087e-04,-4.400000000000000157e-04,1.699999999999999851e-04,2.000000000000000164e-05,3.000000000000000000e+00,5.000000000000000000e+00
9.432000000000000000e+03,1.100000000000000039e-04,2.999999999999999737e-04,2.100000000000000087e-04,1.000000000000000082e-05,-2.100000000000000087e-04,-4.400000000000000157e-04,1.699999999999999851e-04,2.000000000000000164e-05,3.000000000000000000e+00,5.000000000000000000e+00
9.433000000000000000e+03,1.100000000000000039e-04,2.999999999999999737e-04,2.100000000000000087e-04,1.000000000000000082e-05,-2.100000000000000087e-04,-4.400000000000000157e-04,1.699999999999999851e-04,2.000000000000000164e-05,3.000000000000000000e+00,5.000000000000000000e+00
9.434000000000000000e+03,1.100000000000000039e-04,2.999999999999999737e-04,2.100000000000000087e-04,1.000000000000000082e-05,-2.100000000000000087e-04,-4.400000000000000157e-04,1.699999999999999851e-04,2.000000000000000164e-05,3.000000000000000000e+00,5.000000000000000000e+00
9.435000000000000000e+03,1.100000000000000039e-04,2.999999999999999737e-04,2.100000000000000087e-04,1.000000000000000082e-05,-2.100000000000000087e-04,-4.400000000000000157e-04,1.699999999999999851e-04,2.000000000000000164e-05,3.000000000000000000e+00,5.000000000000000000e+00
9.436000000000000000e+03,1.100000000000000039e-04,2.999999999999999737e-04,2.100000000000000087e-04,1.000000000000000082e-05,-2.100000000000000087e-04,-4.400000000000000157e-04,1.699999999999999851e-04,2.000000000000000164e-05,3.000000000000000000e+00,5.000000000000000000e+00
9.438000000000000000e+03,1.100000000000000039e-04,2.999999999999999737e-04,2.100000000000000087e-04,1.000000000000000082e-05,-2.100000000000000087e-04,-4.400000000000000157e-04,1.699999999999999851e-04,2.000000000000000164e-05,3.000000000000000000e+00,5.000000000000000000e+00
9.439000000000000000e+03,1.100000000000000039e-04,2.999999999999999737e-04,2.100000000000000087e-04,1.000000000000000082e-05,-2.100000000000000087e-04,-4.400000000000000157e-04,1.699999999999999851e-04,2.000000000000000164e-05,3.000000000000000000e+00,5.000000000000000000e+00
9.440000000000000000e+03,1.100000000000000039e-04,2.999999999999999737e-04,2.100000000000000087e-04,1.000000000000000082e-05,-2.100000000000000087e-04,-4.400000000000000157e-04,1.699999999999999851e-04,2.000000000000000164e-05,3.000000000000000000e+00,5.000000000000000000e+00
9.441000000000000000e+03,1.100000000000000039e-04,2.999999999999999737e-04,2.100000000000000087e-04,1.000000000000000082e-05,-2.100000000000000087e-04,-4.400000000000000157e-04,1.699999999999999851e-04,2.000000000000000164e-05,3.000000000000000000e+00,5.000000000000000000e+00
9.442000000000000000e+03,1.100000000000000039e-04,2.999999999999999737e-04,2.100000000000000087e-04,1.000000000000000082e-05,-2.100000000000000087e-04,-4.400000000000000157e-04,1.699999999999999851e-04,2.000000000000000164e-05,3.000000000000000000e+00,5.000000000000000000e+00
9.443000000000000000e+03,1.100000000000000039e-04,2.999999999999999737e-04,2.100000000000000087e-04,1.000000000000000082e-05,-2.100000000000000087e-04,-4.400000000000000157e-04,1.699999999999999851e-04,2.000000000000000164e-05,3.000000000000000000e+00,5.000000000000000000e+00
9.444000000000000000e+03,1.100000000000000039e-04,2.999999999999999737e-04,2.100000000000000087e-04,1.000000000000000082e-05,-2.100000000000000087e-04,-4.400000000000000157e-04,1.699999999999999851e-04,2.000000000000000164e-05,3.000000000000000000e+00,5.000000000000000000e+00
9.445000000000000000e+03,1.100000000000000039e-04,2.999999999999999737e-04,2.100000000000000087e-04,1.000000000000000082e-05,-2.100000000000000087e-04,-4.400000000000000157e-04,1.699999999999999851e-04,2.000000000000000164e-05,3.000000000000000000e+00,5.000000000000000000e+00
9.446000000000000000e+03,1.100000000000000039e-04,2.999999999999999737e-04,2.100000000000000087e-04,1.000000000000000082e-05,-2.100000000000000087e-04,-4.400000000000000157e-04,1.699999999999999851e-04,2.000000000000000164e-05,3.000000000000000000e+00,5.000000000000000000e+00
9.447000000000000000e+03,1.100000000000000039e-04,2.999999999999999737e-04,2.100000000000000087e-04,1.000000000000000082e-05,-2.100000000000000087e-04,-4.400000000000000157e-04,1.699999999999999851e-04,2.000000000000000164e-05,3.000000000000000000e+00,5.000000000000000000e+00
9.448000000000000000e+03,1.100000000000000039e-04,2.999999999999999737e-04,2.100000000000000087e-04,1.000000000000000082e-05,-2.100000000000000087e-04,-4.400000000000000157e-04,1.699999999999999851e-04,2.000000000000000164e-05,3.000000000000000000e+00,5.000000000000000000e+00
9.449000000000000000e+03,1.100000000000000039e-04,2.999999999999999737e-04,2.100000000000000087e-04,1.000000000000000082e-05,-2.100000000000000087e-04,-4.400000000000000157e-04,1.699999999999999851e-04,2.000000000000000164e-05,3.000000000000000000e+00,5.000000000000000000e+00
9.450000000000000000e+03,1.100000000000000039e-04,2.999999999999999737e-04,2.100000000000000087e-04,1.000000000000000082e-05,-2.100000000000000087e-04,-4.400000000000000157e-04,1.699999999999999851e-04,2.000000000000000164e-05,3.000000000000000000e+00,5.000000000000000000e+00
9.451000000000000000e+03,1.600000000000000131e-04,1.300000000000000157e-04,9.000000000000000567e-05,2.999999999999999737e-05,-1.499999999999999869e-04,-3.799999999999999667e-04,-9.000000000000000567e-05,4.000000000000000327e-05,3.000000000000000000e+00,5.000000000000000000e+00
9.452000000000000000e+03,4.000000000000000327e-05,5.999999999999999474e-04,2.999999999999999737e-04,5.999999999999999474e-05,1.399999999999999877e-04,0.000000000000000000e+00,1.000000000000000048e-04,-5.900000000000000296e-04,3.000000000000000000e+00,5.000000000000000000e+00
9.453000000000000000e+03,4.000000000000000327e-05,5.999999999999999474e-04,2.999999999999999737e-04,5.999999999999999474e-05,1.399999999999999877e-04,0.000000000000000000e+00,1.000000000000000048e-04,-5.900000000000000296e-04,3.000000000000000000e+00,5.000000000000000000e+00
9.454000000000000000e+03,4.000000000000000327e-05,5.999999999999999474e-04,2.999999999999999737e-04,5.999999999999999474e-05,1.399999999999999877e-04,0.000000000000000000e+00,1.000000000000000048e-04,-5.900000000000000296e-04,3.000000000000000000e+00,5.000000000000000000e+00
9.455000000000000000e+03,4.000000000000000327e-05,5.999999999999999474e-04,2.999999999999999737e-04,5.999999999999999474e-05,1.399999999999999877e-04,0.000000000000000000e+00,1.000000000000000048e-04,-5.900000000000000296e-04,3.000000000000000000e+00,5.000000000000000000e+00
9.456000000000000000e+03,4.000000000000000327e-05,5.999999999999999474e-04,2.999999999999999737e-04,5.999999999999999474e-05,1.399999999999999877e-04,0.000000000000000000e+00,1.000000000000000048e-04,-5.900000000000000296e-04,3.000000000000000000e+00,5.000000000000000000e+00
9.457000000000000000e+03,-8.000000000000000654e-05,1.899999999999999834e-04,2.000000000000000164e-05,-1.000000000000000082e-05,6.999999999999999387e-05,2.999999999999999737e-05,4.000000000000000327e-05,-1.100000000000000039e-04,3.000000000000000000e+00,5.000000000000000000e+00
9.458000000000000000e+03,-8.000000000000000654e-05,1.899999999999999834e-04,2.000000000000000164e-05,-1.000000000000000082e-05,6.999999999999999387e-05,2.999999999999999737e-05,4.000000000000000327e-05,-1.100000000000000039e-04,3.000000000000000000e+00,5.000000000000000000e+00
9.459000000000000000e+03,-8.000000000000000654e-05,1.899999999999999834e-04,2.000000000000000164e-05,-1.000000000000000082e-05,6.999999999999999387e-05,2.999999999999999737e-05,4.000000000000000327e-05,-1.100000000000000039e-04,3.000000000000000000e+00,5.000000000000000000e+00
9.460000000000000000e+03,-8.000000000000000654e-05,1.899999999999999834e-04,2.000000000000000164e-05,-1.000000000000000082e-05,6.999999999999999387e-05,2.999999999999999737e-05,4.000000000000000327e-05,-1.100000000000000039e-04,3.000000000000000000e+00,5.000000000000000000e+00
9.461000000000000000e+03,-8.000000000000000654e-05,1.899999999999999834e-04,2.000000000000000164e-05,-1.000000000000000082e-05,6.999999999999999387e-05,2.999999999999999737e-05,4.000000000000000327e-05,-1.100000000000000039e-04,3.000000000000000000e+00,5.000000000000000000e+00
9.462000000000000000e+03,-8.000000000000000654e-05,1.899999999999999834e-04,2.000000000000000164e-05,-1.000000000000000082e-05,6.999999999999999387e-05,2.999999999999999737e-05,4.000000000000000327e-05,-1.100000000000000039e-04,3.000000000000000000e+00,5.000000000000000000e+00
9.463000000000000000e+03,-8.000000000000000654e-05,1.899999999999999834e-04,2.000000000000000164e-05,-1.000000000000000082e-05,6.999999999999999387e-05,2.999999999999999737e-05,4.000000000000000327e-05,-1.100000000000000039e-04,3.000000000000000000e+00,5.000000000000000000e+00
9.464000000000000000e+03,-8.000000000000000654e-05,1.899999999999999834e-04,2.000000000000000164e-05,-1.000000000000000082e-05,6.999999999999999387e-05,2.999999999999999737e-05,4.000000000000000327e-05,-1.100000000000000039e-04,3.000000000000000000e+00,5.000000000000000000e+00
9.465000000000000000e+03,8.000000000000000654e-05,5.000000000000000240e-05,2.999999999999999737e-05,-1.000000000000000082e-05,-4.000000000000000327e-05,6.999999999999999387e-05,5.999999999999999474e-05,2.000000000000000164e-05,3.000000000000000000e+00,5.000000000000000000e+00
9.466000000000000000e+03,8.000000000000000654e-05,5.000000000000000240e-05,2.999999999999999737e-05,-1.000000000000000082e-05,-4.000000000000000327e-05,6.999999999999999387e-05,5.999999999999999474e-05,2.000000000000000164e-05,3.000000000000000000e+00,5.000000000000000000e+00
9.467000000000000000e+03,8.000000000000000654e-05,5.000000000000000240e-05,2.999999999999999737e-05,-1.000000000000000082e-05,-4.000000000000000327e-05,6.999999999999999387e-05,5.999999999999999474e-05,2.000000000000000164e-05,3.000000000000000000e+00,5.000000000000000000e+00
9.468000000000000000e+03,8.000000000000000654e-05,5.000000000000000240e-05,2.999999999999999737e-05,-1.000000000000000082e-05,-4.000000000000000327e-05,6.999999999999999387e-05,5.999999999999999474e-05,2.000000000000000164e-05,3.000000000000000000e+00,5.000000000000000000e+00
