1.738300000000000000e+04,-1.699999999999999851e-04,-1.600000000000000131e-04,-1.899999999999999834e-04,-6.300000000000000261e-04,-9.100000000000000016e-04,-6.799999999999999404e-04,-2.999999999999999737e-04,-1.600000000000000131e-04,4.000000000000000000e+00,7.000000000000000000e+00
1.738400000000000000e+04,-1.699999999999999851e-04,-1.600000000000000131e-04,-1.899999999999999834e-04,-6.300000000000000261e-04,-9.100000000000000016e-04,-6.799999999999999404e-04,-2.999999999999999737e-04,-1.600000000000000131e-04,4.000000000000000000e+00,7.000000000000000000e+00
1.738500000000000000e+04,-1.699999999999999851e-04,-1.600000000000000131e-04,-1.899999999999999834e-04,-6.300000000000000261e-04,-9.100000000000000016e-04,-6.799999999999999404e-04,-2.999999999999999737e-04,-1.600000000000000131e-04,4.000000000000000000e+00,7.000000000000000000e+00
1.738600000000000000e+04,1.399999999999999877e-04,6.999999999999999387e-05,2.100000000000000087e-04,9.599999999999999159e-04,-7.299999999999999632e-04,-5.099999999999999282e-04,-1.499999999999999869e-04,-1.000000000000000082e-05,4.000000000000000000e+00,7.000000000000000000e+00
1.738800000000000000e+04,2.000000000000000164e-05,1.000000000000000082e-05,-1.199999999999999895e-04,-2.799999999999999755e-04,6.700000000000000226e-04,-3.399999999999999702e-04,0.000000000000000000e+00,1.000000000000000082e-05,4.000000000000000000e+00,7.000000000000000000e+00
1.738900000000000000e+04,2.000000000000000164e-05,1.000000000000000082e-05,-1.199999999999999895e-04,-2.799999999999999755e-04,6.700000000000000226e-04,-3.399999999999999702e-04,0.000000000000000000e+00,1.000000000000000082e-05,4.000000000000000000e+00,7.000000000000000000e+00
1.739000000000000000e+04,2.000000000000000164e-05,1.000000000000000082e-05,-1.199999999999999895e-04,-2.799999999999999755e-04,6.700000000000000226e-04,-3.399999999999999702e-04,0.000000000000000000e+00,1.000000000000000082e-05,4.000000000000000000e+00,7.000000000000000000e+00
1.739100000000000000e+04,2.000000000000000164e-05,1.000000000000000082e-05,-1.199999999999999895e-04,-2.799999999999999755e-04,6.700000000000000226e-04,-3.399999999999999702e-04,0.000000000000000000e+00,1.000000000000000082e-05,4.000000000000000000e+00,7.000000000000000000e+00
1.739200000000000000e+04,2.000000000000000164e-05,1.000000000000000082e-05,-1.199999999999999895e-04,-2.799999999999999755e-04,6.700000000000000226e-04,-3.399999999999999702e-04,0.000000000000000000e+00,1.000000000000000082e-05,4.000000000000000000e+00,7.000000000000000000e+00
1.739300000000000000e+04,2.000000000000000164e-05,1.000000000000000082e-05,-1.199999999999999895e-04,-2.799999999999999755e-04,6.700000000000000226e-04,-3.399999999999999702e-04,0.000000000000000000e+00,1.000000000000000082e-05,4.000000000000000000e+00,7.000000000000000000e+00
1.739400000000000000e+04,2.000000000000000164e-05,1.000000000000000082e-05,-1.199999999999999895e-04,-2.799999999999999755e-04,6.700000000000000226e-04,-3.399999999999999702e-04,0.000000000000000000e+00,1.000000000000000082e-05,4.000000000000000000e+00,7.000000000000000000e+00
1.739500000000000000e+04,2.000000000000000164e-05,1.000000000000000082e-05,-1.199999999999999895e-04,-2.799999999999999755e-04,6.700000000000000226e-04,-3.399999999999999702e-04,0.000000000000000000e+00,1.000000000000000082e-05,4.000000000000000000e+00,7.000000000000000000e+00
1.739600000000000000e+04,2.000000000000000164e-05,1.000000000000000082e-05,-1.199999999999999895e-04,-2.799999999999999755e-04,6.700000000000000226e-04,-3.399999999999999702e-04,0.000000000000000000e+00,1.000000000000000082e-05,4.000000000000000000e+00,7.000000000000000000e+00
1.739700000000000000e+04,2.000000000000000164e-05,1.000000000000000082e-05,-1.199999999999999895e-04,-2.799999999999999755e-04,6.700000000000000226e-04,-3.399999999999999702e-04,0.000000000000000000e+00,1.000000000000000082e-05,4.000000000000000000e+00,7.000000000000000000e+00
1.739800000000000000e+04,2.000000000000000164e-05,1.000000000000000082e-05,-1.199999999999999895e-04,-2.799999999999999755e-04,6.700000000000000226e-04,-3.399999999999999702e-04,0.000000000000000000e+00,1.000000000000000082e-05,4.000000000000000000e+00,7.000000000000000000e+00
1.739900000000000000e+04,-1.300000000000000157e-04,-1.600000000000000131e-04,-2.799999999999999755e-04,-5.900000000000000296e-04,1.269999999999999862e-03,2.100000000000000087e-04,-8.000000000000000654e-05,-1.000000000000000048e-04,4.000000000000000000e+00,7.000000000000000000e+00
1.740000000000000000e+04,-1.300000000000000157e-04,-1.600000000000000131e-04,-2.799999999999999755e-04,-5.900000000000000296e-04,1.269999999999999862e-03,2.100000000000000087e-04,-8.000000000000000654e-05,-1.000000000000000048e-04,4.000000000000000000e+00,7.000000000000000000e+00
1.740100000000000000e+04,-1.300000000000000157e-04,-1.600000000000000131e-04,-2.799999999999999755e-04,-5.900000000000000296e-04,1.269999999999999862e-03,2.100000000000000087e-04,-8.000000000000000654e-05,-1.000000000000000048e-04,4.000000000000000000e+00,7.000000000000000000e+00
1.740200000000000000e+04,-1.300000000000000157e-04,-1.600000000000000131e-04,-2.799999999999999755e-04,-5.900000000000000296e-04,1.269999999999999862e-03,2.100000000000000087e-04,-8.000000000000000654e-05,-1.000000000000000048e-04,4.000000000000000000e+00,7.000000000000000000e+00
1.740300000000000000e+04,-1.300000000000000157e-04,-1.600000000000000131e-04,-2.799999999999999755e-04,-5.900000000000000296e-04,1.269999999999999862e-03,2.100000000000000087e-04,-8.000000000000000654e-05,-1.000000000000000048e-04,4.000000000000000000e+00,7.000000000000000000e+00
1.740400000000000000e+04,-1.300000000000000157e-04,-1.600000000000000131e-04,-2.799999999999999755e-04,-5.900000000000000296e-04,1.269999999999999862e-03,2.100000000000000087e-04,-8.000000000000000654e-05,-1.000000000000000048e-04,4.000000000000000000e+00,7.000000000000000000e+00
1.740500000000000000e+04,-1.300000000000000157e-04,-1.600000000000000131e-04,-2.799999999999999755e-04,-5.900000000000000296e-04,1.269999999999999862e-03,2.100000000000000087e-04,-8.000000000000000654e-05,-1.000000000000000048e-04,4.000000000000000000e+00,7.000000000000000000e+00
1.740600000000000000e+04,-1.300000000000000157e-04,-1.600000000000000131e-04,-2.799999999999999755e-04,-5.900000000000000296e-04,1.269999999999999862e-03,2.100000000000000087e-04,-8.000000000000000654e-05,-1.000000000000000048e-04,4.000000000000000000e+00,7.000000000000000000e+00
1.740700000000000000e+04,-1.300000000000000157e-04,-1.600000000000000131e-04,-2.799999999999999755e-04,-5.900000000000000296e-04,1.269999999999999862e-03,2.100000000000000087e-04,-8.000000000000000654e-05,-1.000000000000000048e-04,4.000000000000000000e+00,7.000000000000000000e+00
1.740800000000000000e+04,2.999999999999999737e-05,4.000000000000000327e-05,1.100000000000000039e-04,2.999999999999999737e-05,1.000000000000000021e-03,1.399999999999999877e-04,-1.300000000000000157e-04,-5.000000000000000240e-05,4.000000000000000000e+00,7.000000000000000000e+00
1.740900000000000000e+04,-5.999999999999999474e-05,1.000000000000000082e-05,6.999999999999999387e-05,-1.300000000000000157e-04,-7.299999999999999632e-04,6.199999999999999999e-04,1.000000000000000048e-04,-2.999999999999999737e-05,4.000000000000000000e+00,7.000000000000000000e+00
1.741000000000000000e+04,-5.999999999999999474e-05,1.000000000000000082e-05,6.999999999999999387e-05,-1.300000000000000157e-04,-7.299999999999999632e-04,6.199999999999999999e-04,1.000000000000000048e-04,-2.999999999999999737e-05,4.000000000000000000e+00,7.000000000000000000e+00
1.741100000000000000e+04,-5.999999999999999474e-05,1.000000000000000082e-05,6.999999999999999387e-05,-1.300000000000000157e-04,-7.299999999999999632e-04,6.199999999999999999e-04,1.000000000000000048e-04,-2.999999999999999737e-05,4.000000000000000000e+00,7.000000000000000000e+00
1.741200000000000000e+04,-5.999999999999999474e-05,1.000000000000000082e-05,6.999999999999999387e-05,-1.300000000000000157e-04,-7.299999999999999632e-04,6.199999999999999999e-04,1.000000000000000048e-04,-2.999999999999999737e-05,4.000000000000000000e+00,7.000000000000000000e+00
1.741300000000000000e+04,-5.999999999999999474e-05,1.000000000000000082e-05,6.999999999999999387e-05,-1.300000000000000157e-04,-7.299999999999999632e-04,6.199999999999999999e-04,1.000000000000000048e-04,-2.999999999999999737e-05,4.000000000000000000e+00,7.000000000000000000e+00
1.741400000000000000e+04,-5.999999999999999474e-05,1.000000000000000082e-05,6.999999999999999387e-05,-1.300000000000000157e-04,-7.299999999999999632e-04,6.199999999999999999e-04,1.000000000000000048e-04,-2.999999999999999737e-05,4.000000000000000000e+00,7.000000000000000000e+00
1.741500000000000000e+04,-5.999999999999999474e-05,1.000000000000000082e-05,6.999999999999999387e-05,-1.300000000000000157e-04,-7.299999999999999632e-04,6.199999999999999999e-04,1.000000000000000048e-04,-2.999999999999999737e-05,4.000000000000000000e+00,7.000000000000000000e+00
1.741600000000000000e+04,-5.999999999999999474e-05,1.000000000000000082e-05,6.999999999999999387e-05,-1.300000000000000157e-04,-7.299999999999999632e-04,6.199999999999999999e-04,1.000000000000000048e-04,-2.999999999999999737e-05,4.000000000000000000e+00,7.000000000000000000e+00
1.741700000000000000e+04,-5.999999999999999474e-05,1.000000000000000082e-05,6.999999999999999387e-05,-1.300000000000000157e-04,-7.299999999999999632e-04,6.199999999999999999e-04,1.000000000000000048e-04,-2.999999999999999737e-05,4.000000000000000000e+00,7.000000000000000000e+00
1.741800000000000000e+04,-5.999999999999999474e-05,1.000000000000000082e-05,6.999999999999999387e-05,-1.300000000000000157e-04,-7.299999999999999632e-04,6.199999999999999999e-04,1.000000000000000048e-04,-2.999999999999999737e-05,4.000000000000000000e+00,7.000000000000000000e+00
1.741900000000000000e+04,-5.999999999999999474e-05,1.000000000000000082e-05,6.999999999999999387e-05,-1.300000000000000157e-04,-7.299999999999999632e-04,6.199999999999999999e-04,1.000000000000000048e-04,-2.999999999999999737e-05,4.000000000000000000e+00,7.000000000000000000e+00
1.742000000000000000e+04,-5.999999999999999474e-05,1.000000000000000082e-05,6.999999999999999387e-05,-1.300000000000000157e-04,-7.299999999999999632e-04,6.199999999999999999e-04,1.000000000000000048e-04,-2.999999999999999737e-05,4.000000000000000000e+00,7.000000000000000000e+00
1.742100000000000000e+04,-5.999999999999999474e-05,1.000000000000000082e-05,6.999999999999999387e-05,-1.300000000000000157e-04,-7.299999999999999632e-04,6.199999999999999999e-04,1.000000000000000048e-04,-2.999999999999999737e-05,4.000000000000000000e+00,7.000000000000000000e+00
1.742200000000000000e+04,-5.999999999999999474e-05,1.000000000000000082e-05,6.999999999999999387e-05,-1.300000000000000157e-04,-7.299999999999999632e-04,6.199999999999999999e-04,1.000000000000000048e-04,-2.999999999999999737e-05,4.000000000000000000e+00,7.000000000000000000e+00
1.742300000000000000e+04,8.000000000000000654e-05,1.899999999999999834e-04,2.100000000000000087e-04,-5.999999999999999474e-05,-6.900000000000000751e-04,1.010000000000000047e-03,2.799999999999999755e-04,1.699999999999999851e-04,4.000000000000000000e+00,7.000000000000000000e+00
1.742400000000000000e+04,8.000000000000000654e-05,1.899999999999999834e-04,2.100000000000000087e-04,-5.999999999999999474e-05,-6.900000000000000751e-04,1.010000000000000047e-03,2.799999999999999755e-04,1.699999999999999851e-04,4.000000000000000000e+00,7.000000000000000000e+00
1.742500000000000000e+04,-6.999999999999999387e-05,-2.999999999999999737e-05,0.000000000000000000e+00,3.699999999999999947e-04,1.090000000000000040e-03,4.000000000000000192e-04,-1.199999999999999895e-04,-5.000000000000000240e-05,4.000000000000000000e+00,7.000000000000000000e+00
1.742600000000000000e+04,-6.999999999999999387e-05,-2.999999999999999737e-05,0.000000000000000000e+00,3.699999999999999947e-04,1.090000000000000040e-03,4.000000000000000192e-04,-1.199999999999999895e-04,-5.000000000000000240e-05,4.000000000000000000e+00,7.000000000000000000e+00
1.742700000000000000e+04,-6.999999999999999387e-05,-2.999999999999999737e-05,0.000000000000000000e+00,3.699999999999999947e-04,1.090000000000000040e-03,4.000000000000000192e-04,-1.199999999999999895e-04,-5.000000000000000240e-05,4.000000000000000000e+00,7.000000000000000000e+00
1.742800000000000000e+04,-6.999999999999999387e-05,-2.999999999999999737e-05,0.000000000000000000e+00,3.699999999999999947e-04,1.090000000000000040e-03,4.000000000000000192e-04,-1.199999999999999895e-04,-5.000000000000000240e-05,4.000000000000000000e+00,7.000000000000000000e+00
1.742900000000000000e+04,-6.999999999999999387e-05,-2.999999999999999737e-05,0.000000000000000000e+00,3.699999999999999947e-04,1.090000000000000040e-03,4.000000000000000192e-04,-1.199999999999999895e-04,-5.000000000000000240e-05,4.000000000000000000e+00,7.000000000000000000e+00
1.743000000000000000e+04,-6.999999999999999387e-05,-2.999999999999999737e-05,0.000000000000000000e+00,3.699999999999999947e-04,1.090000000000000040e-03,4.000000000000000192e-04,-1.199999999999999895e-04,-5.000000000000000240e-05,4.000000000000000000e+00,7.000000000000000000e+00
1.743100000000000000e+04,-6.999999999999999387e-05,-2.999999999999999737e-05,0.000000000000000000e+00,3.699999999999999947e-04,1.090000000000000040e-03,4.000000000000000192e-04,-1.199999999999999895e-04,-5.000000000000000240e-05,4.000000000000000000e+00,7.000000000000000000e+00
1.743200000000000000e+04,-6.999999999999999387e-05,-2.999999999999999737e-05,0.000000000000000000e+00,3.699999999999999947e-04,1.090000000000000040e-03,4.000000000000000192e-04,-1.199999999999999895e-04,-5.000000000000000240e-05,4.000000000000000000e+00,7.000000000000000000e+00
1.743300000000000000e+04,-6.999999999999999387e-05,-2.999999999999999737e-05,0.000000000000000000e+00,3.699999999999999947e-04,1.090000000000000040e-03,4.000000000000000192e-04,-1.199999999999999895e-04,-5.000000000000000240e-05,4.000000000000000000e+00,7.000000000000000000e+00
1.743400000000000000e+04,-6.999999999999999387e-05,-2.999999999999999737e-05,0.000000000000000000e+00,3.699999999999999947e-04,1.090000000000000040e-03,4.000000000000000192e-04,-1.199999999999999895e-04,-5.000000000000000240e-05,4.000000000000000000e+00,7.000000000000000000e+00
1.743500000000000000e+04,-6.999999999999999387e-05,-2.999999999999999737e-05,0.000000000000000000e+00,3.699999999999999947e-04,1.090000000000000040e-03,4.000000000000000192e-04,-1.199999999999999895e-04,-5.000000000000000240e-05,4.000000000000000000e+00,7.000000000000000000e+00
1.743600000000000000e+04,-6.999999999999999387e-05,-2.999999999999999737e-05,0.000000000000000000e+00,3.699999999999999947e-04,1.090000000000000040e-03,4.000000000000000192e-04,-1.199999999999999895e-04,-5.000000000000000240e-05,4.000000000000000000e+00,7.000000000000000000e+00
1.743800000000000000e+04,-6.999999999999999387e-05,-2.999999999999999737e-05,0.000000000000000000e+00,3.699999999999999947e-04,1.090000000000000040e-03,4.000000000000000192e-04,-1.199999999999999895e-04,-5.000000000000000240e-05,4.000000000000000000e+00,7.000000000000000000e+00
1.743900000000000000e+04,-6.999999999999999387e-05,-2.999999999999999737e-05,0.000000000000000000e+00,3.699999999999999947e-04,1.090000000000000040e-03,4.000000000000000192e-04,-1.199999999999999895e-04,-5.000000000000000240e-05,4.000000000000000000e+00,7.000000000000000000e+00
1.744000000000000000e+04,-6.999999999999999387e-05,-2.999999999999999737e-05,0.000000000000000000e+00,3.699999999999999947e-04,1.090000000000000040e-03,4.000000000000000192e-04,-1.199999999999999895e-04,-5.000000000000000240e-05,4.000000000000000000e+00,7.000000000000000000e+00
1.744100000000000000e+04,-6.999999999999999387e-05,-2.999999999999999737e-05,0.000000000000000000e+00,3.699999999999999947e-04,1.090000000000000040e-03,4.000000000000000192e-04,-1.199999999999999895e-04,-5.000000000000000240e-05,4.000000000000000000e+00,7.000000000000000000e+00
1.744200000000000000e+04,-6.999999999999999387e-05,-2.999999999999999737e-05,0.000000000000000000e+00,3.699999999999999947e-04,1.090000000000000040e-03,4.000000000000000192e-04,-1.199999999999999895e-04,-5.000000000000000240e-05,4.000000000000000000e+00,7.000000000000000000e+00
1.744300000000000000e+04,-6.999999999999999387e-05,-2.999999999999999737e-05,0.000000000000000000e+00,3.699999999999999947e-04,1.090000000000000040e-03,4.000000000000000192e-04,-1.199999999999999895e-04,-5.000000000000000240e-05,4.000000000000000000e+00,7.000000000000000000e+00
1.744400000000000000e+04,-6.999999999999999387e-05,-2.999999999999999737e-05,0.000000000000000000e+00,3.699999999999999947e-04,1.090000000000000040e-03,4.000000000000000192e-04,-1.199999999999999895e-04,-5.000000000000000240e-05,4.000000000000000000e+00,7.000000000000000000e+00
1.744500000000000000e+04,-6.999999999999999387e-05,-2.999999999999999737e-05,0.000000000000000000e+00,3.699999999999999947e-04,1.090000000000000040e-03,4.000000000000000192e-04,-1.199999999999999895e-04,-5.000000000000000240e-05,4.000000000000000000e+00,7.000000000000000000e+00
1.744600000000000000e+04,1.699999999999999851e-04,6.999999999999999387e-05,9.000000000000000567e-05,1.499999999999999869e-04,2.299999999999999799e-04,-4.700000000000000401e-04,-5.000000000000000240e-05,2.299999999999999799e-04,4.000000000000000000e+00,7.000000000000000000e+00
1.744700000000000000e+04,1.699999999999999851e-04,6.999999999999999387e-05,9.000000000000000567e-05,1.499999999999999869e-04,2.299999999999999799e-04,-4.700000000000000401e-04,-5.000000000000000240e-05,2.299999999999999799e-04,4.000000000000000000e+00,7.000000000000000000e+00
1.744800000000000000e+04,1.699999999999999851e-04,6.999999999999999387e-05,9.000000000000000567e-05,1.499999999999999869e-04,2.299999999999999799e-04,-4.700000000000000401e-04,-5.000000000000000240e-05,2.299999999999999799e-04,4.000000000000000000e+00,7.000000000000000000e+00
1.744900000000000000e+04,1.699999999999999851e-04,6.999999999999999387e-05,9.000000000000000567e-05,1.499999999999999869e-04,2.299999999999999799e-04,-4.700000000000000401e-04,-5.000000000000000240e-05,2.299999999999999799e-04,4.000000000000000000e+00,7.000000000000000000e+00
1.745000000000000000e+04,1.699999999999999851e-04,6.999999999999999387e-05,9.000000000000000567e-05,1.499999999999999869e-04,2.299999999999999799e-04,-4.700000000000000401e-04,-5.000000000000000240e-05,2.299999999999999799e-04,4.000000000000000000e+00,7.000000000000000000e+00
1.745100000000000000e+04,1.699999999999999851e-04,6.999999999999999387e-05,9.000000000000000567e-05,1.499999999999999869e-04,2.299999999999999799e-04,-4.700000000000000401e-04,-5.000000000000000240e-05,2.299999999999999799e-04,4.000000000000000000e+00,7.000000000000000000e+00
1.745200000000000000e+04,1.699999999999999851e-04,6.999999999999999387e-05,9.000000000000000567e-05,1.499999999999999869e-04,2.299999999999999799e-04,-4.700000000000000401e-04,-5.000000000000000240e-05,2.299999999999999799e-04,4.000000000000000000e+00,7.000000000000000000e+00
1.745300000000000000e+04,1.699999999999999851e-04,6.999999999999999387e-05,9.000000000000000567e-05,1.499999999999999869e-04,2.299999999999999799e-04,-4.700000000000000401e-04,-5.000000000000000240e-05,2.299999999999999799e-04,4.000000000000000000e+00,7.000000000000000000e+00
1.745400000000000000e+04,1.699999999999999851e-04,6.999999999999999387e-05,9.000000000000000567e-05,1.499999999999999869e-04,2.299999999999999799e-04,-4.700000000000000401e-04,-5.000000000000000240e-05,2.299999999999999799e-04,4.000000000000000000e+00,7.000000000000000000e+00
1.745500000000000000e+04,1.699999999999999851e-04,6.999999999999999387e-05,9.000000000000000567e-05,1.499999999999999869e-04,2.299999999999999799e-04,-4.700000000000000401e-04,-5.000000000000000240e-05,2.299999999999999799e-04,4.000000000000000000e+00,7.000000000000000000e+00
1.745600000000000000e+04,1.699999999999999851e-04,6.999999999999999387e-05,9.000000000000000567e-05,1.499999999999999869e-04,2.299999999999999799e-04,-4.700000000000000401e-04,-5.000000000000000240e-05,2.299999999999999799e-04,4.000000000000000000e+00,7.000000000000000000e+00
1.745700000000000000e+04,1.699999999999999851e-04,6.999999999999999387e-05,9.000000000000000567e-05,1.499999999999999869e-04,2.299999999999999799e-04,-4.700000000000000401e-04,-5.000000000000000240e-05,2.299999999999999799e-04,4.000000000000000000e+00,7.000000000000000000e+00
1.745800000000000000e+04,1.699999999999999851e-04,6.999999999999999387e-05,9.000000000000000567e-05,1.499999999999999869e-04,2.299999999999999799e-04,-4.700000000000000401e-04,-5.000000000000000240e-05,2.299999999999999799e-04,4.000000000000000000e+00,7.000000000000000000e+00
1.745900000000000000e+04,1.699999999999999851e-04,6.999999999999999387e-05,9.000000000000000567e-05,1.499999999999999869e-04,2.299999999999999799e-04,-4.700000000000000401e-04,-5.000000000000000240e-05,2.299999999999999799e-04,4.000000000000000000e+00,7.000000000000000000e+00
1.746000000000000000e+04,1.699999999999999851e-04,6.999999999999999387e-05,9.000000000000000567e-05,1.499999999999999869e-04,2.299999999999999799e-04,-4.700000000000000401e-04,-5.000000000000000240e-05,2.299999999999999799e-04,4.000000000000000000e+00,7.000000000000000000e+00
1.746100000000000000e+04,1.699999999999999851e-04,6.999999999999999387e-05,9.000000000000000567e-05,1.499999999999999869e-04,2.299999999999999799e-04,-4.700000000000000401e-04,-5.000000000000000240e-05,2.299999999999999799e-04,4.000000000000000000e+00,7.000000000000000000e+00
1.746200000000000000e+04,1.699999999999999851e-04,6.999999999999999387e-05,9.000000000000000567e-05,1.499999999999999869e-04,2.299999999999999799e-04,-4.700000000000000401e-04,-5.000000000000000240e-05,2.299999999999999799e-04,4.000000000000000000e+00,7.000000000000000000e+00
1.746300000000000000e+04,1.699999999999999851e-04,6.999999999999999387e-05,9.000000000000000567e-05,1.499999999999999869e-04,2.299999999999999799e-04,-4.700000000000000401e-04,-5.000000000000000240e-05,2.299999999999999799e-04,4.000000000000000000e+00,7.000000000000000000e+00
1.746400000000000000e+04,1.699999999999999851e-04,6.999999999999999387e-05,9.000000000000000567e-05,1.499999999999999869e-04,2.299999999999999799e-04,-4.700000000000000401e-04,-5.000000000000000240e-05,2.299999999999999799e-04,4.000000000000000000e+00,7.000000000000000000e+00
1.746500000000000000e+04,1.699999999999999851e-04,6.999999999999999387e-05,9.000000000000000567e-05,1.499999999999999869e-04,2.299999999999999799e-04,-4.700000000000000401e-04,-5.000000000000000240e-05,2.299999999999999799e-04,4.000000000000000000e+00,7.000000000000000000e+00
1.746600000000000000e+04,1.699999999999999851e-04,6.999999999999999387e-05,9.000000000000000567e-05,1.499999999999999869e-04,2.299999999999999799e-04,-4.700000000000000401e-04,-5.000000000000000240e-05,2.299999999999999799e-04,4.000000000000000000e+00,7.000000000000000000e+00
1.746700000000000000e+04,9.000000000000000567e-05,1.000000000000000048e-04,2.799999999999999755e-04,6.400000000000000524e-04,1.000000000000000048e-04,6.199999999999999999e-04,2.999999999999999737e-04,1.199999999999999895e-04,4.000000000000000000e+00,7.000000000000000000e+00
1.746800000000000000e+04,1.100000000000000039e-04,1.000000000000000082e-05,1.699999999999999851e-04,-3.600000000000000227e-04,-8.900000000000000576e-04,-3.299999999999999982e-04,-2.000000000000000164e-05,-8.000000000000000654e-05,4.000000000000000000e+00,7.000000000000000000e+00
1.746900000000000000e+04,1.100000000000000039e-04,1.000000000000000082e-05,1.699999999999999851e-04,-3.600000000000000227e-04,-8.900000000000000576e-04,-3.299999999999999982e-04,-2.000000000000000164e-05,-8.000000000000000654e-05,4.000000000000000000e+00,7.000000000000000000e+00
1.747000000000000000e+04,1.100000000000000039e-04,1.000000000000000082e-05,1.699999999999999851e-04,-3.600000000000000227e-04,-8.900000000000000576e-04,-3.299999999999999982e-04,-2.000000000000000164e-05,-8.000000000000000654e-05,4.000000000000000000e+00,7.000000000000000000e+00
1.747100000000000000e+04,1.100000000000000039e-04,1.000000000000000082e-05,1.699999999999999851e-04,-3.600000000000000227e-04,-8.900000000000000576e-04,-3.299999999999999982e-04,-2.000000000000000164e-05,-8.000000000000000654e-05,4.000000000000000000e+00,7.000000000000000000e+00
1.747200000000000000e+04,1.100000000000000039e-04,1.000000000000000082e-05,1.699999999999999851e-04,-3.600000000000000227e-04,-8.900000000000000576e-04,-3.299999999999999982e-04,-2.000000000000000164e-05,-8.000000000000000654e-05,4.000000000000000000e+00,7.000000000000000000e+00
1.747300000000000000e+04,1.100000000000000039e-04,1.000000000000000082e-05,1.699999999999999851e-04,-3.600000000000000227e-04,-8.900000000000000576e-04,-3.299999999999999982e-04,-2.000000000000000164e-05,-8.000000000000000654e-05,4.000000000000000000e+00,7.000000000000000000e+00
1.747400000000000000e+04,1.100000000000000039e-04,1.000000000000000082e-05,1.699999999999999851e-04,-3.600000000000000227e-04,-8.900000000000000576e-04,-3.299999999999999982e-04,-2.000000000000000164e-05,-8.000000000000000654e-05,4.000000000000000000e+00,7.000000000000000000e+00
1.747500000000000000e+04,1.100000000000000039e-04,1.000000000000000082e-05,1.699999999999999851e-04,-3.600000000000000227e-04,-8.900000000000000576e-04,-3.299999999999999982e-04,-2.000000000000000164e-05,-8.000000000000000654e-05,4.000000000000000000e+00,7.000000000000000000e+00
1.747600000000000000e+04,1.100000000000000039e-04,1.000000000000000082e-05,1.699999999999999851e-04,-3.600000000000000227e-04,-8.900000000000000576e-04,-3.299999999999999982e-04,-2.000000000000000164e-05,-8.000000000000000654e-05,4.000000000000000000e+00,7.000000000000000000e+00
1.747700000000000000e+04,1.100000000000000039e-04,1.000000000000000082e-05,1.699999999999999851e-04,-3.600000000000000227e-04,-8.900000000000000576e-04,-3.299999999999999982e-04,-2.000000000000000164e-05,-8.000000000000000654e-05,4.000000000000000000e+00,7.000000000000000000e+00
1.747800000000000000e+04,1.100000000000000039e-04,1.000000000000000082e-05,1.699999999999999851e-04,-3.600000000000000227e-04,-8.900000000000000576e-04,-3.299999999999999982e-04,-2.000000000000000164e-05,-8.000000000000000654e-05,4.000000000000000000e+00,7.000000000000000000e+00
1.747900000000000000e+04,1.100000000000000039e-04,1.000000000000000082e-05,1.699999999999999851e-04,-3.600000000000000227e-04,-8.900000000000000576e-04,-3.299999999999999982e-04,-2.000000000000000164e-05,-8.000000000000000654e-05,4.000000000000000000e+00,7.000000000000000000e+00
1.748000000000000000e+04,1.100000000000000039e-04,1.000000000000000082e-05,1.699999999999999851e-04,-3.600000000000000227e-04,-8.900000000000000576e-04,-3.299999999999999982e-04,-2.000000000000000164e-05,-8.000000000000000654e-05,4.000000000000000000e+00,7.000000000000000000e+00
1.748100000000000000e+04,1.100000000000000039e-04,1.000000000000000082e-05,1.699999999999999851e-04,-3.600000000000000227e-04,-8.900000000000000576e-04,-3.299999999999999982e-04,-2.000000000000000164e-05,-8.000000000000000654e-05,4.000000000000000000e+00,7.000000000000000000e+00
1.748200000000000000e+04,1.600000000000000131e-04,0.000000000000000000e+00,-5.999999999999999474e-05,-4.899999999999999842e-04,7.900000000000000121e-04,9.000000000000000567e-05,-8.000000000000000654e-05,5.999999999999999474e-05,4.000000000000000000e+00,7.000000000000000000e+00
1.748300000000000000e+04,1.000000000000000082e-05,2.999999999999999737e-05,1.199999999999999895e-04,1.040000000000000126e-03,-4.200000000000000174e-04,2.600000000000000314e-04,-1.000000000000000082e-05,-2.000000000000000164e-05,4.000000000000000000e+00,7.000000000000000000e+00
1.748400000000000000e+04,1.000000000000000082e-05,2.999999999999999737e-05,1.199999999999999895e-04,1.040000000000000126e-03,-4.200000000000000174e-04,2.600000000000000314e-04,-1.000000000000000082e-05,-2.000000000000000164e-05,4.000000000000000000e+00,7.000000000000000000e+00
1.748500000000000000e+04,1.000000000000000082e-05,2.999999999999999737e-05,1.199999999999999895e-04,1.040000000000000126e-03,-4.200000000000000174e-04,2.600000000000000314e-04,-1.000000000000000082e-05,-2.000000000000000164e-05,4.000000000000000000e+00,7.000000000000000000e+00
1.748600000000000000e+04,1.000000000000000082e-05,2.999999999999999737e-05,1.199999999999999895e-04,1.040000000000000126e-03,-4.200000000000000174e-04,2.600000000000000314e-04,-1.000000000000000082e-05,-2.000000000000000164e-05,4.000000000000000000e+00,7.000000000000000000e+00
1.748800000000000000e+04,1.000000000000000082e-05,2.999999999999999737e-05,1.199999999999999895e-04,1.040000000000000126e-03,-4.200000000000000174e-04,2.600000000000000314e-04,-1.000000000000000082e-05,-2.000000000000000164e-05,4.000000000000000000e+00,7.000000000000000000e+00
1.748900000000000000e+04,1.000000000000000082e-05,2.999999999999999737e-05,1.199999999999999895e-04,1.040000000000000126e-03,-4.200000000000000174e-04,2.600000000000000314e-04,-1.000000000000000082e-05,-2.000000000000000164e-05,4.000000000000000000e+00,7.000000000000000000e+00
1.749000000000000000e+04,1.000000000000000082e-05,2.999999999999999737e-05,1.199999999999999895e-04,1.040000000000000126e-03,-4.200000000000000174e-04,2.600000000000000314e-04,-1.000000000000000082e-05,-2.000000000000000164e-05,4.000000000000000000e+00,7.000000000000000000e+00
1.749100000000000000e+04,1.000000000000000082e-05,2.999999999999999737e-05,1.199999999999999895e-04,1.040000000000000126e-03,-4.200000000000000174e-04,2.600000000000000314e-04,-1.000000000000000082e-05,-2.000000000000000164e-05,4.000000000000000000e+00,7.000000000000000000e+00
1.749200000000000000e+04,1.000000000000000082e-05,2.999999999999999737e-05,1.199999999999999895e-04,1.040000000000000126e-03,-4.200000000000000174e-04,2.600000000000000314e-04,-1.000000000000000082e-05,-2.000000000000000164e-05,4.000000000000000000e+00,7.000000000000000000e+00
1.749300000000000000e+04,1.000000000000000082e-05,2.999999999999999737e-05,1.199999999999999895e-04,1.040000000000000126e-03,-4.200000000000000174e-04,2.600000000000000314e-04,-1.000000000000000082e-05,-2.000000000000000164e-05,4.000000000000000000e+00,7.000000000000000000e+00
1.749400000000000000e+04,1.000000000000000082e-05,2.999999999999999737e-05,1.199999999999999895e-04,1.040000000000000126e-03,-4.200000000000000174e-04,2.600000000000000314e-04,-1.000000000000000082e-05,-2.000000000000000164e-05,4.000000000000000000e+00,7.000000000000000000e+00
1.749500000000000000e+04,1.000000000000000082e-05,2.999999999999999737e-05,1.199999999999999895e-04,1.040000000000000126e-03,-4.200000000000000174e-04,2.600000000000000314e-04,-1.000000000000000082e-05,-2.000000000000000164e-05,4.000000000000000000e+00,7.000000000000000000e+00
1.749600000000000000e+04,1.000000000000000082e-05,2.999999999999999737e-05,1.199999999999999895e-04,1.040000000000000126e-03,-4.200000000000000174e-04,2.600000000000000314e-04,-1.000000000000000082e-05,-2.000000000000000164e-05,4.000000000000000000e+00,7.000000000000000000e+00
1.749700000000000000e+04,1.000000000000000082e-05,2.999999999999999737e-05,1.199999999999999895e-04,1.040000000000000126e-03,-4.200000000000000174e-04,2.600000000000000314e-04,-1.000000000000000082e-05,-2.000000000000000164e-05,4.000000000000000000e+00,7.000000000000000000e+00
1.749800000000000000e+04,1.000000000000000082e-05,2.999999999999999737e-05,1.199999999999999895e-04,1.040000000000000126e-03,-4.200000000000000174e-04,2.600000000000000314e-04,-1.000000000000000082e-05,-2.000000000000000164e-05,4.000000000000000000e+00,7.000000000000000000e+00
1.749900000000000000e+04,1.000000000000000082e-05,2.999999999999999737e-05,1.199999999999999895e-04,1.040000000000000126e-03,-4.200000000000000174e-04,2.600000000000000314e-04,-1.000000000000000082e-05,-2.000000000000000164e-05,4.000000000000000000e+00,7.000000000000000000e+00
1.750000000000000000e+04,1.000000000000000082e-05,2.999999999999999737e-05,1.199999999999999895e-04,1.040000000000000126e-03,-4.200000000000000174e-04,2.600000000000000314e-04,-1.000000000000000082e-05,-2.000000000000000164e-05,4.000000000000000000e+00,7.000000000000000000e+00
1.750100000000000000e+04,1.000000000000000082e-05,2.999999999999999737e-05,1.199999999999999895e-04,1.040000000000000126e-03,-4.200000000000000174e-04,2.600000000000000314e-04,-1.000000000000000082e-05,-2.000000000000000164e-05,4.000000000000000000e+00,7.000000000000000000e+00
1.750200000000000000e+04,1.000000000000000082e-05,2.999999999999999737e-05,1.199999999999999895e-04,1.040000000000000126e-03,-4.200000000000000174e-04,2.600000000000000314e-04,-1.000000000000000082e-05,-2.000000000000000164e-05,4.000000000000000000e+00,7.000000000000000000e+00
1.750300000000000000e+04,1.000000000000000082e-05,2.999999999999999737e-05,1.199999999999999895e-04,1.040000000000000126e-03,-4.200000000000000174e-04,2.600000000000000314e-04,-1.000000000000000082e-05,-2.000000000000000164e-05,4.000000000000000000e+00,7.000000000000000000e+00
1.750400000000000000e+04,1.000000000000000082e-05,2.999999999999999737e-05,1.199999999999999895e-04,1.040000000000000126e-03,-4.200000000000000174e-04,2.600000000000000314e-04,-1.000000000000000082e-05,-2.000000000000000164e-05,4.000000000000000000e+00,7.000000000000000000e+00
1.750500000000000000e+04,2.100000000000000087e-04,1.899999999999999834e-04,2.799999999999999755e-04,1.699999999999999851e-04,-1.899999999999999834e-04,1.000000000000000048e-04,1.399999999999999877e-04,1.399999999999999877e-04,4.000000000000000000e+00,7.000000000000000000e+00
1.750600000000000000e+04,-1.399999999999999877e-04,-2.299999999999999799e-04,-3.799999999999999667e-04,-3.299999999999999982e-04,1.180000000000000059e-03,-6.700000000000000226e-04,-2.299999999999999799e-04,-1.800000000000000113e-04,4.000000000000000000e+00,7.000000000000000000e+00
1.750700000000000000e+04,-1.399999999999999877e-04,-2.299999999999999799e-04,-3.799999999999999667e-04,-3.299999999999999982e-04,1.180000000000000059e-03,-6.700000000000000226e-04,-2.299999999999999799e-04,-1.800000000000000113e-04,4.000000000000000000e+00,7.000000000000000000e+00
1.750800000000000000e+04,-1.399999999999999877e-04,-2.299999999999999799e-04,-3.799999999999999667e-04,-3.299999999999999982e-04,1.180000000000000059e-03,-6.700000000000000226e-04,-2.299999999999999799e-04,-1.800000000000000113e-04,4.000000000000000000e+00,7.000000000000000000e+00
1.750900000000000000e+04,-1.399999999999999877e-04,-2.299999999999999799e-04,-3.799999999999999667e-04,-3.299999999999999982e-04,1.180000000000000059e-03,-6.700000000000000226e-04,-2.299999999999999799e-04,-1.800000000000000113e-04,4.000000000000000000e+00,7.000000000000000000e+00
1.751000000000000000e+04,-1.399999999999999877e-04,-2.299999999999999799e-04,-3.799999999999999667e-04,-3.299999999999999982e-04,1.180000000000000059e-03,-6.700000000000000226e-04,-2.299999999999999799e-04,-1.800000000000000113e-04,4.000000000000000000e+00,7.000000000000000000e+00
1.751100000000000000e+04,-1.399999999999999877e-04,-2.299999999999999799e-04,-3.799999999999999667e-04,-3.299999999999999982e-04,1.180000000000000059e-03,-6.700000000000000226e-04,-2.299999999999999799e-04,-1.800000000000000113e-04,4.000000000000000000e+00,7.000000000000000000e+00
1.751200000000000000e+04,-1.399999999999999877e-04,-2.299999999999999799e-04,-3.799999999999999667e-04,-3.299999999999999982e-04,1.180000000000000059e-03,-6.700000000000000226e-04,-2.299999999999999799e-04,-1.800000000000000113e-04,4.000000000000000000e+00,7.000000000000000000e+00
1.751300000000000000e+04,-1.399999999999999877e-04,-2.299999999999999799e-04,-3.799999999999999667e-04,-3.299999999999999982e-04,1.180000000000000059e-03,-6.700000000000000226e-04,-2.299999999999999799e-04,-1.800000000000000113e-04,4.000000000000000000e+00,7.000000000000000000e+00
1.751400000000000000e+04,-1.399999999999999877e-04,-2.299999999999999799e-04,-3.799999999999999667e-04,-3.299999999999999982e-04,1.180000000000000059e-03,-6.700000000000000226e-04,-2.299999999999999799e-04,-1.800000000000000113e-04,4.000000000000000000e+00,7.000000000000000000e+00
1.751500000000000000e+04,-1.399999999999999877e-04,-2.299999999999999799e-04,-3.799999999999999667e-04,-3.299999999999999982e-04,1.180000000000000059e-03,-6.700000000000000226e-04,-2.299999999999999799e-04,-1.800000000000000113e-04,4.000000000000000000e+00,7.000000000000000000e+00
1.751600000000000000e+04,-1.399999999999999877e-04,-2.299999999999999799e-04,-3.799999999999999667e-04,-3.299999999999999982e-04,1.180000000000000059e-03,-6.700000000000000226e-04,-2.299999999999999799e-04,-1.800000000000000113e-04,4.000000000000000000e+00,7.000000000000000000e+00
1.751700000000000000e+04,-1.399999999999999877e-04,-2.299999999999999799e-04,-3.799999999999999667e-04,-3.299999999999999982e-04,1.180000000000000059e-03,-6.700000000000000226e-04,-2.299999999999999799e-04,-1.800000000000000113e-04,4.000000000000000000e+00,7.000000000000000000e+00
1.751800000000000000e+04,-1.399999999999999877e-04,-2.299999999999999799e-04,-3.799999999999999667e-04,-3.299999999999999982e-04,1.180000000000000059e-03,-6.700000000000000226e-04,-2.299999999999999799e-04,-1.800000000000000113e-04,4.000000000000000000e+00,7.000000000000000000e+00
1.751900000000000000e+04,-1.399999999999999877e-04,-2.299999999999999799e-04,-3.799999999999999667e-04,-3.299999999999999982e-04,1.180000000000000059e-03,-6.700000000000000226e-04,-2.299999999999999799e-04,-1.800000000000000113e-04,4.000000000000000000e+00,7.000000000000000000e+00
1.752000000000000000e+04,-1.399999999999999877e-04,-2.299999999999999799e-04,-3.799999999999999667e-04,-3.299999999999999982e-04,1.180000000000000059e-03,-6.700000000000000226e-04,-2.299999999999999799e-04,-1.800000000000000113e-04,4.000000000000000000e+00,7.000000000000000000e+00
1.752100000000000000e+04,-1.399999999999999877e-04,-2.299999999999999799e-04,-3.799999999999999667e-04,-3.299999999999999982e-04,1.180000000000000059e-03,-6.700000000000000226e-04,-2.299999999999999799e-04,-1.800000000000000113e-04,4.000000000000000000e+00,7.000000000000000000e+00
1.752200000000000000e+04,-1.399999999999999877e-04,-2.299999999999999799e-04,-3.799999999999999667e-04,-3.299999999999999982e-04,1.180000000000000059e-03,-6.700000000000000226e-04,-2.299999999999999799e-04,-1.800000000000000113e-04,4.000000000000000000e+00,7.000000000000000000e+00
1.752300000000000000e+04,-1.399999999999999877e-04,-2.299999999999999799e-04,-3.799999999999999667e-04,-3.299999999999999982e-04,1.180000000000000059e-03,-6.700000000000000226e-04,-2.299999999999999799e-04,-1.800000000000000113e-04,4.000000000000000000e+00,7.000000000000000000e+00
1.752400000000000000e+04,-1.399999999999999877e-04,-2.299999999999999799e-04,-3.799999999999999667e-04,-3.299999999999999982e-04,1.180000000000000059e-03,-6.700000000000000226e-04,-2.299999999999999799e-04,-1.800000000000000113e-04,4.000000000000000000e+00,7.000000000000000000e+00
1.752500000000000000e+04,-1.399999999999999877e-04,-2.299999999999999799e-04,-3.799999999999999667e-04,-3.299999999999999982e-04,1.180000000000000059e-03,-6.700000000000000226e-04,-2.299999999999999799e-04,-1.800000000000000113e-04,4.000000000000000000e+00,7.000000000000000000e+00
1.752600000000000000e+04,-1.399999999999999877e-04,-2.299999999999999799e-04,-3.799999999999999667e-04,-3.299999999999999982e-04,1.180000000000000059e-03,-6.700000000000000226e-04,-2.299999999999999799e-04,-1.800000000000000113e-04,4.000000000000000000e+00,7.000000000000000000e+00
1.752700000000000000e+04,1.199999999999999895e-04,-1.000000000000000048e-04,-1.000000000000000048e-04,-1.899999999999999834e-04,1.139999999999999954e-03,1.600000000000000131e-04,-1.699999999999999851e-04,-9.000000000000000567e-05,4.000000000000000000e+00,7.000000000000000000e+00
1.752800000000000000e+04,4.000000000000000327e-05,2.999999999999999737e-05,5.999999999999999474e-05,2.500000000000000052e-04,-9.899999999999999946e-04,-5.000000000000000104e-04,1.399999999999999877e-04,1.000000000000000082e-05,4.000000000000000000e+00,7.000000000000000000e+00
1.752900000000000000e+04,4.000000000000000327e-05,2.999999999999999737e-05,5.999999999999999474e-05,2.500000000000000052e-04,-9.899999999999999946e-04,-5.000000000000000104e-04,1.399999999999999877e-04,1.000000000000000082e-05,4.000000000000000000e+00,7.000000000000000000e+00
1.753000000000000000e+04,4.000000000000000327e-05,2.999999999999999737e-05,5.999999999999999474e-05,2.500000000000000052e-04,-9.899999999999999946e-04,-5.000000000000000104e-04,1.399999999999999877e-04,1.000000000000000082e-05,4.000000000000000000e+00,7.000000000000000000e+00
1.753100000000000000e+04,4.000000000000000327e-05,2.999999999999999737e-05,5.999999999999999474e-05,2.500000000000000052e-04,-9.899999999999999946e-04,-5.000000000000000104e-04,1.399999999999999877e-04,1.000000000000000082e-05,4.000000000000000000e+00,7.000000000000000000e+00
1.753200000000000000e+04,4.000000000000000327e-05,2.999999999999999737e-05,5.999999999999999474e-05,2.500000000000000052e-04,-9.899999999999999946e-04,-5.000000000000000104e-04,1.399999999999999877e-04,1.000000000000000082e-05,4.000000000000000000e+00,7.000000000000000000e+00
1.753300000000000000e+04,4.000000000000000327e-05,2.999999999999999737e-05,5.999999999999999474e-05,2.500000000000000052e-04,-9.899999999999999946e-04,-5.000000000000000104e-04,1.399999999999999877e-04,1.000000000000000082e-05,4.000000000000000000e+00,7.000000000000000000e+00
1.753400000000000000e+04,4.000000000000000327e-05,2.999999999999999737e-05,5.999999999999999474e-05,2.500000000000000052e-04,-9.899999999999999946e-04,-5.000000000000000104e-04,1.399999999999999877e-04,1.000000000000000082e-05,4.000000000000000000e+00,7.000000000000000000e+00
1.753500000000000000e+04,4.000000000000000327e-05,2.999999999999999737e-05,5.999999999999999474e-05,2.500000000000000052e-04,-9.899999999999999946e-04,-5.000000000000000104e-04,1.399999999999999877e-04,1.000000000000000082e-05,4.000000000000000000e+00,7.000000000000000000e+00
1.753600000000000000e+04,4.000000000000000327e-05,2.999999999999999737e-05,5.999999999999999474e-05,2.500000000000000052e-04,-9.899999999999999946e-04,-5.000000000000000104e-04,1.399999999999999877e-04,1.000000000000000082e-05,4.000000000000000000e+00,7.000000000000000000e+00
1.753800000000000000e+04,4.000000000000000327e-05,2.999999999999999737e-05,5.999999999999999474e-05,2.500000000000000052e-04,-9.899999999999999946e-04,-5.000000000000000104e-04,1.399999999999999877e-04,1.000000000000000082e-05,4.000000000000000000e+00,7.000000000000000000e+00
1.753900000000000000e+04,4.000000000000000327e-05,2.999999999999999737e-05,5.999999999999999474e-05,2.500000000000000052e-04,-9.899999999999999946e-04,-5.000000000000000104e-04,1.399999999999999877e-04,1.000000000000000082e-05,4.000000000000000000e+00,7.000000000000000000e+00
1.754000000000000000e+04,4.000000000000000327e-05,2.999999999999999737e-05,5.999999999999999474e-05,2.500000000000000052e-04,-9.899999999999999946e-04,-5.000000000000000104e-04,1.399999999999999877e-04,1.000000000000000082e-05,4.000000000000000000e+00,7.000000000000000000e+00
1.754100000000000000e+04,4.000000000000000327e-05,2.999999999999999737e-05,5.999999999999999474e-05,2.500000000000000052e-04,-9.899999999999999946e-04,-5.000000000000000104e-04,1.399999999999999877e-04,1.000000000000000082e-05,4.000000000000000000e+00,7.000000000000000000e+00
1.754200000000000000e+04,4.000000000000000327e-05,2.999999999999999737e-05,5.999999999999999474e-05,2.500000000000000052e-04,-9.899999999999999946e-04,-5.000000000000000104e-04,1.399999999999999877e-04,1.000000000000000082e-05,4.000000000000000000e+00,7.000000000000000000e+00
1.754300000000000000e+04,4.000000000000000327e-05,2.999999999999999737e-05,5.999999999999999474e-05,2.500000000000000052e-04,-9.899999999999999946e-04,-5.000000000000000104e-04,1.399999999999999877e-04,1.000000000000000082e-05,4.000000000000000000e+00,7.000000000000000000e+00
1.754400000000000000e+04,2.000000000000000164e-05,-5.000000000000000240e-05,-2.999999999999999737e-05,2.500000000000000052e-04,5.500000000000000331e-04,-2.000000000000000164e-05,-1.300000000000000157e-04,-2.999999999999999737e-05,4.000000000000000000e+00,7.000000000000000000e+00
1.754500000000000000e+04,-1.399999999999999877e-04,-1.600000000000000131e-04,-4.099999999999999912e-04,-2.999999999999999737e-04,-8.599999999999999789e-04,-3.200000000000000262e-04,-2.700000000000000035e-04,-1.800000000000000113e-04,4.000000000000000000e+00,7.000000000000000000e+00
1.754600000000000000e+04,-1.399999999999999877e-04,-1.600000000000000131e-04,-4.099999999999999912e-04,-2.999999999999999737e-04,-8.599999999999999789e-04,-3.200000000000000262e-04,-2.700000000000000035e-04,-1.800000000000000113e-04,4.000000000000000000e+00,7.000000000000000000e+00
1.754700000000000000e+04,-1.399999999999999877e-04,-1.600000000000000131e-04,-4.099999999999999912e-04,-2.999999999999999737e-04,-8.599999999999999789e-04,-3.200000000000000262e-04,-2.700000000000000035e-04,-1.800000000000000113e-04,4.000000000000000000e+00,7.000000000000000000e+00
1.754800000000000000e+04,-1.399999999999999877e-04,-1.600000000000000131e-04,-4.099999999999999912e-04,-2.999999999999999737e-04,-8.599999999999999789e-04,-3.200000000000000262e-04,-2.700000000000000035e-04,-1.800000000000000113e-04,4.000000000000000000e+00,7.000000000000000000e+00
1.754900000000000000e+04,-1.399999999999999877e-04,-1.600000000000000131e-04,-4.099999999999999912e-04,-2.999999999999999737e-04,-8.599999999999999789e-04,-3.200000000000000262e-04,-2.700000000000000035e-04,-1.800000000000000113e-04,4.000000000000000000e+00,7.000000000000000000e+00
1.755000000000000000e+04,-1.399999999999999877e-04,-1.600000000000000131e-04,-4.099999999999999912e-04,-2.999999999999999737e-04,-8.599999999999999789e-04,-3.200000000000000262e-04,-2.700000000000000035e-04,-1.800000000000000113e-04,4.000000000000000000e+00,7.000000000000000000e+00
1.755100000000000000e+04,-1.399999999999999877e-04,-1.600000000000000131e-04,-4.099999999999999912e-04,-2.999999999999999737e-04,-8.599999999999999789e-04,-3.200000000000000262e-04,-2.700000000000000035e-04,-1.800000000000000113e-04,4.000000000000000000e+00,7.000000000000000000e+00
1.755200000000000000e+04,-1.399999999999999877e-04,-1.600000000000000131e-04,-4.099999999999999912e-04,-2.999999999999999737e-04,-8.599999999999999789e-04,-3.200000000000000262e-04,-2.700000000000000035e-04,-1.800000000000000113e-04,4.000000000000000000e+00,7.000000000000000000e+00
1.755300000000000000e+04,-1.399999999999999877e-04,-1.600000000000000131e-04,-4.099999999999999912e-04,-2.999999999999999737e-04,-8.599999999999999789e-04,-3.200000000000000262e-04,-2.700000000000000035e-04,-1.800000000000000113e-04,4.000000000000000000e+00,7.000000000000000000e+00
1.755400000000000000e+04,-1.399999999999999877e-04,-1.600000000000000131e-04,-4.099999999999999912e-04,-2.999999999999999737e-04,-8.599999999999999789e-04,-3.200000000000000262e-04,-2.700000000000000035e-04,-1.800000000000000113e-04,4.000000000000000000e+00,7.000000000000000000e+00
1.755500000000000000e+04,-1.399999999999999877e-04,-1.600000000000000131e-04,-4.099999999999999912e-04,-2.999999999999999737e-04,-8.599999999999999789e-04,-3.200000000000000262e-04,-2.700000000000000035e-04,-1.800000000000000113e-04,4.000000000000000000e+00,7.000000000000000000e+00
1.755600000000000000e+04,-1.399999999999999877e-04,-1.600000000000000131e-04,-4.099999999999999912e-04,-2.999999999999999737e-04,-8.599999999999999789e-04,-3.200000000000000262e-04,-2.700000000000000035e-04,-1.800000000000000113e-04,4.000000000000000000e+00,7.000000000000000000e+00
1.755700000000000000e+04,-1.399999999999999877e-04,-1.600000000000000131e-04,-4.099999999999999912e-04,-2.999999999999999737e-04,-8.599999999999999789e-04,-3.200000000000000262e-04,-2.700000000000000035e-04,-1.800000000000000113e-04,4.000000000000000000e+00,7.000000000000000000e+00
1.755800000000000000e+04,-1.399999999999999877e-04,-1.600000000000000131e-04,-4.099999999999999912e-04,-2.999999999999999737e-04,-8.599999999999999789e-04,-3.200000000000000262e-04,-2.700000000000000035e-04,-1.800000000000000113e-04,4.000000000000000000e+00,7.000000000000000000e+00
1.755900000000000000e+04,-1.399999999999999877e-04,-1.600000000000000131e-04,-4.099999999999999912e-04,-2.999999999999999737e-04,-8.599999999999999789e-04,-3.200000000000000262e-04,-2.700000000000000035e-04,-1.800000000000000113e-04,4.000000000000000000e+00,7.000000000000000000e+00
1.756000000000000000e+04,-1.399999999999999877e-04,-1.600000000000000131e-04,-4.099999999999999912e-04,-2.999999999999999737e-04,-8.599999999999999789e-04,-3.200000000000000262e-04,-2.700000000000000035e-04,-1.800000000000000113e-04,4.000000000000000000e+00,7.000000000000000000e+00
1.756100000000000000e+04,-1.399999999999999877e-04,-1.600000000000000131e-04,-4.099999999999999912e-04,-2.999999999999999737e-04,-8.599999999999999789e-04,-3.200000000000000262e-04,-2.700000000000000035e-04,-1.800000000000000113e-04,4.000000000000000000e+00,7.000000000000000000e+00
1.756200000000000000e+04,-1.399999999999999877e-04,-1.600000000000000131e-04,-4.099999999999999912e-04,-2.999999999999999737e-04,-8.599999999999999789e-04,-3.200000000000000262e-04,-2.700000000000000035e-04,-1.800000000000000113e-04,4.000000000000000000e+00,7.000000000000000000e+00
1.756300000000000000e+04,-1.399999999999999877e-04,-1.600000000000000131e-04,-4.099999999999999912e-04,-2.999999999999999737e-04,-8.599999999999999789e-04,-3.200000000000000262e-04,-2.700000000000000035e-04,-1.800000000000000113e-04,4.000000000000000000e+00,7.000000000000000000e+00
1.756400000000000000e+04,-1.399999999999999877e-04,-1.600000000000000131e-04,-4.099999999999999912e-04,-2.999999999999999737e-04,-8.599999999999999789e-04,-3.200000000000000262e-04,-2.700000000000000035e-04,-1.800000000000000113e-04,4.000000000000000000e+00,7.000000000000000000e+00
1.756500000000000000e+04,-1.300000000000000157e-04,-1.000000000000000048e-04,-1.499999999999999869e-04,-2.000000000000000096e-04,7.700000000000000681e-04,-4.099999999999999912e-04,-6.999999999999999387e-05,-6.999999999999999387e-05,4.000000000000000000e+00,7.000000000000000000e+00
1.756600000000000000e+04,1.000000000000000048e-04,8.000000000000000654e-05,5.999999999999999474e-05,-2.999999999999999737e-05,-9.300000000000000541e-04,3.899999999999999929e-04,1.499999999999999869e-04,1.199999999999999895e-04,4.000000000000000000e+00,7.000000000000000000e+00
1.756700000000000000e+04,1.000000000000000048e-04,8.000000000000000654e-05,5.999999999999999474e-05,-2.999999999999999737e-05,-9.300000000000000541e-04,3.899999999999999929e-04,1.499999999999999869e-04,1.199999999999999895e-04,4.000000000000000000e+00,7.000000000000000000e+00
1.756800000000000000e+04,1.000000000000000048e-04,8.000000000000000654e-05,5.999999999999999474e-05,-2.999999999999999737e-05,-9.300000000000000541e-04,3.899999999999999929e-04,1.499999999999999869e-04,1.199999999999999895e-04,4.000000000000000000e+00,7.000000000000000000e+00
1.756900000000000000e+04,1.000000000000000048e-04,8.000000000000000654e-05,5.999999999999999474e-05,-2.999999999999999737e-05,-9.300000000000000541e-04,3.899999999999999929e-04,1.499999999999999869e-04,1.199999999999999895e-04,4.000000000000000000e+00,7.000000000000000000e+00
1.757000000000000000e+04,1.000000000000000048e-04,8.000000000000000654e-05,5.999999999999999474e-05,-2.999999999999999737e-05,-9.300000000000000541e-04,3.899999999999999929e-04,1.499999999999999869e-04,1.199999999999999895e-04,4.000000000000000000e+00,7.000000000000000000e+00
1.757100000000000000e+04,1.000000000000000048e-04,8.000000000000000654e-05,5.999999999999999474e-05,-2.999999999999999737e-05,-9.300000000000000541e-04,3.899999999999999929e-04,1.499999999999999869e-04,1.199999999999999895e-04,4.000000000000000000e+00,7.000000000000000000e+00
1.757200000000000000e+04,1.000000000000000048e-04,8.000000000000000654e-05,5.999999999999999474e-05,-2.999999999999999737e-05,-9.300000000000000541e-04,3.899999999999999929e-04,1.499999999999999869e-04,1.199999999999999895e-04,4.000000000000000000e+00,7.000000000000000000e+00
1.757300000000000000e+04,1.000000000000000048e-04,8.000000000000000654e-05,5.999999999999999474e-05,-2.999999999999999737e-05,-9.300000000000000541e-04,3.899999999999999929e-04,1.499999999999999869e-04,1.199999999999999895e-04,4.000000000000000000e+00,7.000000000000000000e+00
1.757400000000000000e+04,1.000000000000000048e-04,8.000000000000000654e-05,5.999999999999999474e-05,-2.999999999999999737e-05,-9.300000000000000541e-04,3.899999999999999929e-04,1.499999999999999869e-04,1.199999999999999895e-04,4.000000000000000000e+00,7.000000000000000000e+00
1.757500000000000000e+04,1.000000000000000048e-04,8.000000000000000654e-05,5.999999999999999474e-05,-2.999999999999999737e-05,-9.300000000000000541e-04,3.899999999999999929e-04,1.499999999999999869e-04,1.199999999999999895e-04,4.000000000000000000e+00,7.000000000000000000e+00
1.757600000000000000e+04,1.000000000000000048e-04,8.000000000000000654e-05,5.999999999999999474e-05,-2.999999999999999737e-05,-9.300000000000000541e-04,3.899999999999999929e-04,1.499999999999999869e-04,1.199999999999999895e-04,4.000000000000000000e+00,7.000000000000000000e+00
1.757700000000000000e+04,1.000000000000000048e-04,8.000000000000000654e-05,5.999999999999999474e-05,-2.999999999999999737e-05,-9.300000000000000541e-04,3.899999999999999929e-04,1.499999999999999869e-04,1.199999999999999895e-04,4.000000000000000000e+00,7.000000000000000000e+00
1.757800000000000000e+04,1.000000000000000048e-04,8.000000000000000654e-05,5.999999999999999474e-05,-2.999999999999999737e-05,-9.300000000000000541e-04,3.899999999999999929e-04,1.499999999999999869e-04,1.199999999999999895e-04,4.000000000000000000e+00,7.000000000000000000e+00
1.757900000000000000e+04,1.000000000000000048e-04,8.000000000000000654e-05,5.999999999999999474e-05,-2.999999999999999737e-05,-9.300000000000000541e-04,3.899999999999999929e-04,1.499999999999999869e-04,1.199999999999999895e-04,4.000000000000000000e+00,7.000000000000000000e+00
1.758000000000000000e+04,1.000000000000000048e-04,8.000000000000000654e-05,5.999999999999999474e-05,-2.999999999999999737e-05,-9.300000000000000541e-04,3.899999999999999929e-04,1.499999999999999869e-04,1.199999999999999895e-04,4.000000000000000000e+00,7.000000000000000000e+00
1.758100000000000000e+04,1.000000000000000048e-04,8.000000000000000654e-05,5.999999999999999474e-05,-2.999999999999999737e-05,-9.300000000000000541e-04,3.899999999999999929e-04,1.499999999999999869e-04,1.199999999999999895e-04,4.000000000000000000e+00,7.000000000000000000e+00
1.758200000000000000e+04,1.000000000000000048e-04,8.000000000000000654e-05,5.999999999999999474e-05,-2.999999999999999737e-05,-9.300000000000000541e-04,3.899999999999999929e-04,1.499999999999999869e-04,1.199999999999999895e-04,4.000000000000000000e+00,7.000000000000000000e+00
1.758300000000000000e+04,1.000000000000000048e-04,8.000000000000000654e-05,5.999999999999999474e-05,-2.999999999999999737e-05,-9.300000000000000541e-04,3.899999999999999929e-04,1.499999999999999869e-04,1.199999999999999895e-04,4.000000000000000000e+00,7.000000000000000000e+00
1.758400000000000000e+04,1.000000000000000048e-04,8.000000000000000654e-05,5.999999999999999474e-05,-2.999999999999999737e-05,-9.300000000000000541e-04,3.899999999999999929e-04,1.499999999999999869e-04,1.199999999999999895e-04,4.000000000000000000e+00,7.000000000000000000e+00
1.758500000000000000e+04,1.000000000000000048e-04,8.000000000000000654e-05,5.999999999999999474e-05,-2.999999999999999737e-05,-9.300000000000000541e-04,3.899999999999999929e-04,1.499999999999999869e-04,1.199999999999999895e-04,4.000000000000000000e+00,7.000000000000000000e+00
1.758600000000000000e+04,1.000000000000000048e-04,8.000000000000000654e-05,5.999999999999999474e-05,-2.999999999999999737e-05,-9.300000000000000541e-04,3.899999999999999929e-04,1.499999999999999869e-04,1.199999999999999895e-04,4.000000000000000000e+00,7.000000000000000000e+00
1.758900000000000000e+04,-2.500000000000000052e-04,-6.999999999999999387e-05,-1.699999999999999851e-04,-2.100000000000000087e-04,1.600000000000000131e-04,6.400000000000000524e-04,2.999999999999999737e-05,-9.000000000000000567e-05,4.000000000000000000e+00,7.000000000000000000e+00
1.759000000000000000e+04,-2.500000000000000052e-04,-6.999999999999999387e-05,-1.699999999999999851e-04,-2.100000000000000087e-04,1.600000000000000131e-04,6.400000000000000524e-04,2.999999999999999737e-05,-9.000000000000000567e-05,4.000000000000000000e+00,7.000000000000000000e+00
1.759100000000000000e+04,-2.500000000000000052e-04,-6.999999999999999387e-05,-1.699999999999999851e-04,-2.100000000000000087e-04,1.600000000000000131e-04,6.400000000000000524e-04,2.999999999999999737e-05,-9.000000000000000567e-05,4.000000000000000000e+00,7.000000000000000000e+00
1.759200000000000000e+04,-2.500000000000000052e-04,-6.999999999999999387e-05,-1.699999999999999851e-04,-2.100000000000000087e-04,1.600000000000000131e-04,6.400000000000000524e-04,2.999999999999999737e-05,-9.000000000000000567e-05,4.000000000000000000e+00,7.000000000000000000e+00
1.759300000000000000e+04,-2.500000000000000052e-04,-6.999999999999999387e-05,-1.699999999999999851e-04,-2.100000000000000087e-04,1.600000000000000131e-04,6.400000000000000524e-04,2.999999999999999737e-05,-9.000000000000000567e-05,4.000000000000000000e+00,7.000000000000000000e+00
1.759400000000000000e+04,-2.500000000000000052e-04,-6.999999999999999387e-05,-1.699999999999999851e-04,-2.100000000000000087e-04,1.600000000000000131e-04,6.400000000000000524e-04,2.999999999999999737e-05,-9.000000000000000567e-05,4.000000000000000000e+00,7.000000000000000000e+00
1.759500000000000000e+04,-2.500000000000000052e-04,-6.999999999999999387e-05,-1.699999999999999851e-04,-2.100000000000000087e-04,1.600000000000000131e-04,6.400000000000000524e-04,2.999999999999999737e-05,-9.000000000000000567e-05,4.000000000000000000e+00,7.000000000000000000e+00
1.759600000000000000e+04,-2.500000000000000052e-04,-6.999999999999999387e-05,-1.699999999999999851e-04,-2.100000000000000087e-04,1.600000000000000131e-04,6.400000000000000524e-04,2.999999999999999737e-05,-9.000000000000000567e-05,4.000000000000000000e+00,7.000000000000000000e+00
1.759700000000000000e+04,-2.500000000000000052e-04,-6.999999999999999387e-05,-1.699999999999999851e-04,-2.100000000000000087e-04,1.600000000000000131e-04,6.400000000000000524e-04,2.999999999999999737e-05,-9.000000000000000567e-05,4.000000000000000000e+00,7.000000000000000000e+00
1.759800000000000000e+04,-2.500000000000000052e-04,-6.999999999999999387e-05,-1.699999999999999851e-04,-2.100000000000000087e-04,1.600000000000000131e-04,6.400000000000000524e-04,2.999999999999999737e-05,-9.000000000000000567e-05,4.000000000000000000e+00,7.000000000000000000e+00
1.759900000000000000e+04,-2.500000000000000052e-04,-6.999999999999999387e-05,-1.699999999999999851e-04,-2.100000000000000087e-04,1.600000000000000131e-04,6.400000000000000524e-04,2.999999999999999737e-05,-9.000000000000000567e-05,4.000000000000000000e+00,7.000000000000000000e+00
1.760000000000000000e+04,-2.500000000000000052e-04,-6.999999999999999387e-05,-1.699999999999999851e-04,-2.100000000000000087e-04,1.600000000000000131e-04,6.400000000000000524e-04,2.999999999999999737e-05,-9.000000000000000567e-05,4.000000000000000000e+00,7.000000000000000000e+00
1.760100000000000000e+04,-2.500000000000000052e-04,-6.999999999999999387e-05,-1.699999999999999851e-04,-2.100000000000000087e-04,1.600000000000000131e-04,6.400000000000000524e-04,2.999999999999999737e-05,-9.000000000000000567e-05,4.000000000000000000e+00,7.000000000000000000e+00
1.760200000000000000e+04,0.000000000000000000e+00,-6.999999999999999387e-05,-1.000000000000000082e-05,5.000000000000000240e-05,-5.900000000000000296e-04,1.300000000000000157e-04,-4.000000000000000327e-05,4.000000000000000327e-05,4.000000000000000000e+00,7.000000000000000000e+00
1.760300000000000000e+04,1.000000000000000082e-05,-1.000000000000000082e-05,0.000000000000000000e+00,1.199999999999999895e-04,6.999999999999999387e-05,1.170000000000000033e-03,1.600000000000000131e-04,2.999999999999999737e-05,4.000000000000000000e+00,7.000000000000000000e+00
1.760400000000000000e+04,1.000000000000000082e-05,-1.000000000000000082e-05,0.000000000000000000e+00,1.199999999999999895e-04,6.999999999999999387e-05,1.170000000000000033e-03,1.600000000000000131e-04,2.999999999999999737e-05,4.000000000000000000e+00,7.000000000000000000e+00
1.760500000000000000e+04,1.000000000000000082e-05,-1.000000000000000082e-05,0.000000000000000000e+00,1.199999999999999895e-04,6.999999999999999387e-05,1.170000000000000033e-03,1.600000000000000131e-04,2.999999999999999737e-05,4.000000000000000000e+00,7.000000000000000000e+00
1.760600000000000000e+04,1.000000000000000082e-05,-1.000000000000000082e-05,0.000000000000000000e+00,1.199999999999999895e-04,6.999999999999999387e-05,1.170000000000000033e-03,1.600000000000000131e-04,2.999999999999999737e-05,4.000000000000000000e+00,7.000000000000000000e+00
1.760700000000000000e+04,1.000000000000000082e-05,-1.000000000000000082e-05,0.000000000000000000e+00,1.199999999999999895e-04,6.999999999999999387e-05,1.170000000000000033e-03,1.600000000000000131e-04,2.999999999999999737e-05,4.000000000000000000e+00,7.000000000000000000e+00
1.760800000000000000e+04,1.000000000000000082e-05,-1.000000000000000082e-05,0.000000000000000000e+00,1.199999999999999895e-04,6.999999999999999387e-05,1.170000000000000033e-03,1.600000000000000131e-04,2.999999999999999737e-05,4.000000000000000000e+00,7.000000000000000000e+00
1.760900000000000000e+04,1.000000000000000082e-05,-1.000000000000000082e-05,0.000000000000000000e+00,1.199999999999999895e-04,6.999999999999999387e-05,1.170000000000000033e-03,1.600000000000000131e-04,2.999999999999999737e-05,4.000000000000000000e+00,7.000000000000000000e+00
1.761000000000000000e+04,1.000000000000000082e-05,-1.000000000000000082e-05,0.000000000000000000e+00,1.199999999999999895e-04,6.999999999999999387e-05,1.170000000000000033e-03,1.600000000000000131e-04,2.999999999999999737e-05,4.000000000000000000e+00,7.000000000000000000e+00
1.761100000000000000e+04,1.000000000000000082e-05,-1.000000000000000082e-05,0.000000000000000000e+00,1.199999999999999895e-04,6.999999999999999387e-05,1.170000000000000033e-03,1.600000000000000131e-04,2.999999999999999737e-05,4.000000000000000000e+00,7.000000000000000000e+00
1.761200000000000000e+04,1.000000000000000082e-05,-1.000000000000000082e-05,0.000000000000000000e+00,1.199999999999999895e-04,6.999999999999999387e-05,1.170000000000000033e-03,1.600000000000000131e-04,2.999999999999999737e-05,4.000000000000000000e+00,7.000000000000000000e+00
1.761300000000000000e+04,1.000000000000000082e-05,-1.000000000000000082e-05,0.000000000000000000e+00,1.199999999999999895e-04,6.999999999999999387e-05,1.170000000000000033e-03,1.600000000000000131e-04,2.999999999999999737e-05,4.000000000000000000e+00,7.000000000000000000e+00
1.761400000000000000e+04,1.000000000000000082e-05,-1.000000000000000082e-05,0.000000000000000000e+00,1.199999999999999895e-04,6.999999999999999387e-05,1.170000000000000033e-03,1.600000000000000131e-04,2.999999999999999737e-05,4.000000000000000000e+00,7.000000000000000000e+00
1.761500000000000000e+04,1.000000000000000082e-05,-1.000000000000000082e-05,0.000000000000000000e+00,1.199999999999999895e-04,6.999999999999999387e-05,1.170000000000000033e-03,1.600000000000000131e-04,2.999999999999999737e-05,4.000000000000000000e+00,7.000000000000000000e+00
1.761600000000000000e+04,1.000000000000000082e-05,-1.000000000000000082e-05,0.000000000000000000e+00,1.199999999999999895e-04,6.999999999999999387e-05,1.170000000000000033e-03,1.600000000000000131e-04,2.999999999999999737e-05,4.000000000000000000e+00,7.000000000000000000e+00
1.761700000000000000e+04,1.000000000000000082e-05,-1.000000000000000082e-05,0.000000000000000000e+00,1.199999999999999895e-04,6.999999999999999387e-05,1.170000000000000033e-03,1.600000000000000131e-04,2.999999999999999737e-05,4.000000000000000000e+00,7.000000000000000000e+00
1.761800000000000000e+04,1.000000000000000082e-05,-1.000000000000000082e-05,0.000000000000000000e+00,1.199999999999999895e-04,6.999999999999999387e-05,1.170000000000000033e-03,1.600000000000000131e-04,2.999999999999999737e-05,4.000000000000000000e+00,7.000000000000000000e+00
1.761900000000000000e+04,1.000000000000000082e-05,-1.000000000000000082e-05,0.000000000000000000e+00,1.199999999999999895e-04,6.999999999999999387e-05,1.170000000000000033e-03,1.600000000000000131e-04,2.999999999999999737e-05,4.000000000000000000e+00,7.000000000000000000e+00
1.762000000000000000e+04,1.000000000000000082e-05,-1.000000000000000082e-05,0.000000000000000000e+00,1.199999999999999895e-04,6.999999999999999387e-05,1.170000000000000033e-03,1.600000000000000131e-04,2.999999999999999737e-05,4.000000000000000000e+00,7.000000000000000000e+00
1.762100000000000000e+04,1.000000000000000082e-05,-1.000000000000000082e-05,0.000000000000000000e+00,1.199999999999999895e-04,6.999999999999999387e-05,1.170000000000000033e-03,1.600000000000000131e-04,2.999999999999999737e-05,4.000000000000000000e+00,7.000000000000000000e+00
1.762200000000000000e+04,1.000000000000000082e-05,-1.000000000000000082e-05,0.000000000000000000e+00,1.199999999999999895e-04,6.999999999999999387e-05,1.170000000000000033e-03,1.600000000000000131e-04,2.999999999999999737e-05,4.000000000000000000e+00,7.000000000000000000e+00
1.762300000000000000e+04,1.000000000000000082e-05,-1.000000000000000082e-05,0.000000000000000000e+00,1.199999999999999895e-04,6.999999999999999387e-05,1.170000000000000033e-03,1.600000000000000131e-04,2.999999999999999737e-05,4.000000000000000000e+00,7.000000000000000000e+00
1.762400000000000000e+04,1.000000000000000082e-05,-1.000000000000000082e-05,0.000000000000000000e+00,1.199999999999999895e-04,6.999999999999999387e-05,1.170000000000000033e-03,1.600000000000000131e-04,2.999999999999999737e-05,4.000000000000000000e+00,7.000000000000000000e+00
1.762500000000000000e+04,-6.999999999999999387e-05,-4.000000000000000327e-05,-2.000000000000000164e-05,2.500000000000000052e-04,9.400000000000000803e-04,2.799999999999999755e-04,-8.000000000000000654e-05,-1.000000000000000048e-04,4.000000000000000000e+00,7.000000000000000000e+00
1.762600000000000000e+04,-2.999999999999999737e-05,-2.000000000000000164e-05,2.000000000000000164e-05,-8.000000000000000654e-05,8.999999999999999754e-04,1.000000000000000082e-05,-6.999999999999999387e-05,0.000000000000000000e+00,4.000000000000000000e+00,7.000000000000000000e+00
1.762700000000000000e+04,-2.999999999999999737e-05,-2.000000000000000164e-05,2.000000000000000164e-05,-8.000000000000000654e-05,8.999999999999999754e-04,1.000000000000000082e-05,-6.999999999999999387e-05,0.000000000000000000e+00,4.000000000000000000e+00,7.000000000000000000e+00
1.762800000000000000e+04,-2.999999999999999737e-05,-2.000000000000000164e-05,2.000000000000000164e-05,-8.000000000000000654e-05,8.999999999999999754e-04,1.000000000000000082e-05,-6.999999999999999387e-05,0.000000000000000000e+00,4.000000000000000000e+00,7.000000000000000000e+00
1.762900000000000000e+04,-2.999999999999999737e-05,-2.000000000000000164e-05,2.000000000000000164e-05,-8.000000000000000654e-05,8.999999999999999754e-04,1.000000000000000082e-05,-6.999999999999999387e-05,0.000000000000000000e+00,4.000000000000000000e+00,7.000000000000000000e+00
1.763000000000000000e+04,-2.999999999999999737e-05,-2.000000000000000164e-05,2.000000000000000164e-05,-8.000000000000000654e-05,8.999999999999999754e-04,1.000000000000000082e-05,-6.999999999999999387e-05,0.000000000000000000e+00,4.000000000000000000e+00,7.000000000000000000e+00
1.763100000000000000e+04,-2.999999999999999737e-05,-2.000000000000000164e-05,2.000000000000000164e-05,-8.000000000000000654e-05,8.999999999999999754e-04,1.000000000000000082e-05,-6.999999999999999387e-05,0.000000000000000000e+00,4.000000000000000000e+00,7.000000000000000000e+00
1.763200000000000000e+04,-2.999999999999999737e-05,-2.000000000000000164e-05,2.000000000000000164e-05,-8.000000000000000654e-05,8.999999999999999754e-04,1.000000000000000082e-05,-6.999999999999999387e-05,0.000000000000000000e+00,4.000000000000000000e+00,7.000000000000000000e+00
1.763300000000000000e+04,-2.999999999999999737e-05,-2.000000000000000164e-05,2.000000000000000164e-05,-8.000000000000000654e-05,8.999999999999999754e-04,1.000000000000000082e-05,-6.999999999999999387e-05,0.000000000000000000e+00,4.000000000000000000e+00,7.000000000000000000e+00
1.763400000000000000e+04,-2.999999999999999737e-05,-2.000000000000000164e-05,2.000000000000000164e-05,-8.000000000000000654e-05,8.999999999999999754e-04,1.000000000000000082e-05,-6.999999999999999387e-05,0.000000000000000000e+00,4.000000000000000000e+00,7.000000000000000000e+00
1.763500000000000000e+04,-2.999999999999999737e-05,-2.000000000000000164e-05,2.000000000000000164e-05,-8.000000000000000654e-05,8.999999999999999754e-04,1.000000000000000082e-05,-6.999999999999999387e-05,0.000000000000000000e+00,4.000000000000000000e+00,7.000000000000000000e+00
1.763600000000000000e+04,-2.999999999999999737e-05,-2.000000000000000164e-05,2.000000000000000164e-05,-8.000000000000000654e-05,8.999999999999999754e-04,1.000000000000000082e-05,-6.999999999999999387e-05,0.000000000000000000e+00,4.000000000000000000e+00,7.000000000000000000e+00
1.763800000000000000e+04,-2.999999999999999737e-05,-2.000000000000000164e-05,2.000000000000000164e-05,-8.000000000000000654e-05,8.999999999999999754e-04,1.000000000000000082e-05,-6.999999999999999387e-05,0.000000000000000000e+00,4.000000000000000000e+00,7.000000000000000000e+00
1.763900000000000000e+04,-2.999999999999999737e-05,-2.000000000000000164e-05,2.000000000000000164e-05,-8.000000000000000654e-05,8.999999999999999754e-04,1.000000000000000082e-05,-6.999999999999999387e-05,0.000000000000000000e+00,4.000000000000000000e+00,7.000000000000000000e+00
1.764000000000000000e+04,-2.999999999999999737e-05,-2.000000000000000164e-05,2.000000000000000164e-05,-8.000000000000000654e-05,8.999999999999999754e-04,1.000000000000000082e-05,-6.999999999999999387e-05,0.000000000000000000e+00,4.000000000000000000e+00,7.000000000000000000e+00
1.764100000000000000e+04,-2.999999999999999737e-05,-2.000000000000000164e-05,2.000000000000000164e-05,-8.000000000000000654e-05,8.999999999999999754e-04,1.000000000000000082e-05,-6.999999999999999387e-05,0.000000000000000000e+00,4.000000000000000000e+00,7.000000000000000000e+00
1.764200000000000000e+04,-2.999999999999999737e-05,-2.000000000000000164e-05,2.000000000000000164e-05,-8.000000000000000654e-05,8.999999999999999754e-04,1.000000000000000082e-05,-6.999999999999999387e-05,0.000000000000000000e+00,4.000000000000000000e+00,7.000000000000000000e+00
1.764300000000000000e+04,-2.999999999999999737e-05,-2.000000000000000164e-05,2.000000000000000164e-05,-8.000000000000000654e-05,8.999999999999999754e-04,1.000000000000000082e-05,-6.999999999999999387e-05,0.000000000000000000e+00,4.000000000000000000e+00,7.000000000000000000e+00
1.764400000000000000e+04,-2.999999999999999737e-05,-2.000000000000000164e-05,2.000000000000000164e-05,-8.000000000000000654e-05,8.999999999999999754e-04,1.000000000000000082e-05,-6.999999999999999387e-05,0.000000000000000000e+00,4.000000000000000000e+00,7.000000000000000000e+00
1.764500000000000000e+04,-2.999999999999999737e-05,-2.000000000000000164e-05,2.000000000000000164e-05,-8.000000000000000654e-05,8.999999999999999754e-04,1.000000000000000082e-05,-6.999999999999999387e-05,0.000000000000000000e+00,4.000000000000000000e+00,7.000000000000000000e+00
1.764600000000000000e+04,-2.999999999999999737e-05,-2.000000000000000164e-05,2.000000000000000164e-05,-8.000000000000000654e-05,8.999999999999999754e-04,1.000000000000000082e-05,-6.999999999999999387e-05,0.000000000000000000e+00,4.000000000000000000e+00,7.000000000000000000e+00
1.764700000000000000e+04,4.000000000000000327e-05,5.999999999999999474e-05,1.699999999999999851e-04,-1.399999999999999877e-04,-7.900000000000000121e-04,-3.499999999999999964e-04,2.000000000000000164e-05,0.000000000000000000e+00,4.000000000000000000e+00,7.000000000000000000e+00
1.764800000000000000e+04,-2.000000000000000164e-05,-2.000000000000000164e-05,-2.000000000000000164e-05,3.799999999999999667e-04,1.269999999999999862e-03,5.500000000000000331e-04,1.000000000000000048e-04,-1.000000000000000082e-05,4.000000000000000000e+00,7.000000000000000000e+00
1.764900000000000000e+04,-2.000000000000000164e-05,-2.000000000000000164e-05,-2.000000000000000164e-05,3.799999999999999667e-04,1.269999999999999862e-03,5.500000000000000331e-04,1.000000000000000048e-04,-1.000000000000000082e-05,4.000000000000000000e+00,7.000000000000000000e+00
1.765000000000000000e+04,-2.000000000000000164e-05,-2.000000000000000164e-05,-2.000000000000000164e-05,3.799999999999999667e-04,1.269999999999999862e-03,5.500000000000000331e-04,1.000000000000000048e-04,-1.000000000000000082e-05,4.000000000000000000e+00,7.000000000000000000e+00
1.765100000000000000e+04,-2.000000000000000164e-05,-2.000000000000000164e-05,-2.000000000000000164e-05,3.799999999999999667e-04,1.269999999999999862e-03,5.500000000000000331e-04,1.000000000000000048e-04,-1.000000000000000082e-05,4.000000000000000000e+00,7.000000000000000000e+00
1.765200000000000000e+04,-2.000000000000000164e-05,-2.000000000000000164e-05,-2.000000000000000164e-05,3.799999999999999667e-04,1.269999999999999862e-03,5.500000000000000331e-04,1.000000000000000048e-04,-1.000000000000000082e-05,4.000000000000000000e+00,7.000000000000000000e+00
1.765300000000000000e+04,-2.000000000000000164e-05,-2.000000000000000164e-05,-2.000000000000000164e-05,3.799999999999999667e-04,1.269999999999999862e-03,5.500000000000000331e-04,1.000000000000000048e-04,-1.000000000000000082e-05,4.000000000000000000e+00,7.000000000000000000e+00
1.765400000000000000e+04,-2.000000000000000164e-05,-2.000000000000000164e-05,-2.000000000000000164e-05,3.799999999999999667e-04,1.269999999999999862e-03,5.500000000000000331e-04,1.000000000000000048e-04,-1.000000000000000082e-05,4.000000000000000000e+00,7.000000000000000000e+00
1.765500000000000000e+04,-2.000000000000000164e-05,-2.000000000000000164e-05,-2.000000000000000164e-05,3.799999999999999667e-04,1.269999999999999862e-03,5.500000000000000331e-04,1.000000000000000048e-04,-1.000000000000000082e-05,4.000000000000000000e+00,7.000000000000000000e+00
1.765600000000000000e+04,-2.000000000000000164e-05,-2.000000000000000164e-05,-2.000000000000000164e-05,3.799999999999999667e-04,1.269999999999999862e-03,5.500000000000000331e-04,1.000000000000000048e-04,-1.000000000000000082e-05,4.000000000000000000e+00,7.000000000000000000e+00
1.765700000000000000e+04,-2.000000000000000164e-05,-2.000000000000000164e-05,-2.000000000000000164e-05,3.799999999999999667e-04,1.269999999999999862e-03,5.500000000000000331e-04,1.000000000000000048e-04,-1.000000000000000082e-05,4.000000000000000000e+00,7.000000000000000000e+00
1.765800000000000000e+04,-2.000000000000000164e-05,-2.000000000000000164e-05,-2.000000000000000164e-05,3.799999999999999667e-04,1.269999999999999862e-03,5.500000000000000331e-04,1.000000000000000048e-04,-1.000000000000000082e-05,4.000000000000000000e+00,7.000000000000000000e+00
1.765900000000000000e+04,-2.000000000000000164e-05,-2.000000000000000164e-05,-2.000000000000000164e-05,3.799999999999999667e-04,1.269999999999999862e-03,5.500000000000000331e-04,1.000000000000000048e-04,-1.000000000000000082e-05,4.000000000000000000e+00,7.000000000000000000e+00
1.766000000000000000e+04,-2.000000000000000164e-05,-2.000000000000000164e-05,-2.000000000000000164e-05,3.799999999999999667e-04,1.269999999999999862e-03,5.500000000000000331e-04,1.000000000000000048e-04,-1.000000000000000082e-05,4.000000000000000000e+00,7.000000000000000000e+00
1.766100000000000000e+04,-2.000000000000000164e-05,-2.000000000000000164e-05,-2.000000000000000164e-05,3.799999999999999667e-04,1.269999999999999862e-03,5.500000000000000331e-04,1.000000000000000048e-04,-1.000000000000000082e-05,4.000000000000000000e+00,7.000000000000000000e+00
1.766200000000000000e+04,-2.000000000000000164e-05,-2.000000000000000164e-05,-2.000000000000000164e-05,3.799999999999999667e-04,1.269999999999999862e-03,5.500000000000000331e-04,1.000000000000000048e-04,-1.000000000000000082e-05,4.000000000000000000e+00,7.000000000000000000e+00
1.766300000000000000e+04,-1.300000000000000157e-04,-9.000000000000000567e-05,-2.999999999999999737e-04,-8.199999999999999824e-04,-5.999999999999999474e-04,-8.900000000000000576e-04,-2.000000000000000096e-04,-1.000000000000000048e-04,4.000000000000000000e+00,7.000000000000000000e+00
1.766400000000000000e+04,4.000000000000000327e-05,9.000000000000000567e-05,1.300000000000000157e-04,-2.999999999999999737e-05,-5.000000000000000240e-05,5.500000000000000331e-04,4.000000000000000327e-05,2.000000000000000164e-05,4.000000000000000000e+00,7.000000000000000000e+00
1.766500000000000000e+04,4.000000000000000327e-05,9.000000000000000567e-05,1.300000000000000157e-04,-2.999999999999999737e-05,-5.000000000000000240e-05,5.500000000000000331e-04,4.000000000000000327e-05,2.000000000000000164e-05,4.000000000000000000e+00,7.000000000000000000e+00
1.766600000000000000e+04,4.000000000000000327e-05,9.000000000000000567e-05,1.300000000000000157e-04,-2.999999999999999737e-05,-5.000000000000000240e-05,5.500000000000000331e-04,4.000000000000000327e-05,2.000000000000000164e-05,4.000000000000000000e+00,7.000000000000000000e+00
1.766700000000000000e+04,4.000000000000000327e-05,9.000000000000000567e-05,1.300000000000000157e-04,-2.999999999999999737e-05,-5.000000000000000240e-05,5.500000000000000331e-04,4.000000000000000327e-05,2.000000000000000164e-05,4.000000000000000000e+00,7.000000000000000000e+00
1.766800000000000000e+04,4.000000000000000327e-05,9.000000000000000567e-05,1.300000000000000157e-04,-2.999999999999999737e-05,-5.000000000000000240e-05,5.500000000000000331e-04,4.000000000000000327e-05,2.000000000000000164e-05,4.000000000000000000e+00,7.000000000000000000e+00
1.766900000000000000e+04,4.000000000000000327e-05,9.000000000000000567e-05,1.300000000000000157e-04,-2.999999999999999737e-05,-5.000000000000000240e-05,5.500000000000000331e-04,4.000000000000000327e-05,2.000000000000000164e-05,4.000000000000000000e+00,7.000000000000000000e+00
1.767000000000000000e+04,4.000000000000000327e-05,9.000000000000000567e-05,1.300000000000000157e-04,-2.999999999999999737e-05,-5.000000000000000240e-05,5.500000000000000331e-04,4.000000000000000327e-05,2.000000000000000164e-05,4.000000000000000000e+00,7.000000000000000000e+00
1.767100000000000000e+04,4.000000000000000327e-05,9.000000000000000567e-05,1.300000000000000157e-04,-2.999999999999999737e-05,-5.000000000000000240e-05,5.500000000000000331e-04,4.000000000000000327e-05,2.000000000000000164e-05,4.000000000000000000e+00,7.000000000000000000e+00
1.767200000000000000e+04,4.000000000000000327e-05,9.000000000000000567e-05,1.300000000000000157e-04,-2.999999999999999737e-05,-5.000000000000000240e-05,5.500000000000000331e-04,4.000000000000000327e-05,2.000000000000000164e-05,4.000000000000000000e+00,7.000000000000000000e+00
1.767300000000000000e+04,4.000000000000000327e-05,9.000000000000000567e-05,1.300000000000000157e-04,-2.999999999999999737e-05,-5.000000000000000240e-05,5.500000000000000331e-04,4.000000000000000327e-05,2.000000000000000164e-05,4.000000000000000000e+00,7.000000000000000000e+00
1.767400000000000000e+04,4.000000000000000327e-05,9.000000000000000567e-05,1.300000000000000157e-04,-2.999999999999999737e-05,-5.000000000000000240e-05,5.500000000000000331e-04,4.000000000000000327e-05,2.000000000000000164e-05,4.000000000000000000e+00,7.000000000000000000e+00
1.767500000000000000e+04,4.000000000000000327e-05,9.000000000000000567e-05,1.300000000000000157e-04,-2.999999999999999737e-05,-5.000000000000000240e-05,5.500000000000000331e-04,4.000000000000000327e-05,2.000000000000000164e-05,4.000000000000000000e+00,7.000000000000000000e+00
1.767600000000000000e+04,4.000000000000000327e-05,9.000000000000000567e-05,1.300000000000000157e-04,-2.999999999999999737e-05,-5.000000000000000240e-05,5.500000000000000331e-04,4.000000000000000327e-05,2.000000000000000164e-05,4.000000000000000000e+00,7.000000000000000000e+00
1.767700000000000000e+04,4.000000000000000327e-05,9.000000000000000567e-05,1.300000000000000157e-04,-2.999999999999999737e-05,-5.000000000000000240e-05,5.500000000000000331e-04,4.000000000000000327e-05,2.000000000000000164e-05,4.000000000000000000e+00,7.000000000000000000e+00
1.767800000000000000e+04,4.000000000000000327e-05,9.000000000000000567e-05,1.300000000000000157e-04,-2.999999999999999737e-05,-5.000000000000000240e-05,5.500000000000000331e-04,4.000000000000000327e-05,2.000000000000000164e-05,4.000000000000000000e+00,7.000000000000000000e+00
1.767900000000000000e+04,4.000000000000000327e-05,9.000000000000000567e-05,1.300000000000000157e-04,-2.999999999999999737e-05,-5.000000000000000240e-05,5.500000000000000331e-04,4.000000000000000327e-05,2.000000000000000164e-05,4.000000000000000000e+00,7.000000000000000000e+00
1.768000000000000000e+04,4.000000000000000327e-05,9.000000000000000567e-05,1.300000000000000157e-04,-2.999999999999999737e-05,-5.000000000000000240e-05,5.500000000000000331e-04,4.000000000000000327e-05,2.000000000000000164e-05,4.000000000000000000e+00,7.000000000000000000e+00
1.768100000000000000e+04,4.000000000000000327e-05,9.000000000000000567e-05,1.300000000000000157e-04,-2.999999999999999737e-05,-5.000000000000000240e-05,5.500000000000000331e-04,4.000000000000000327e-05,2.000000000000000164e-05,4.000000000000000000e+00,7.000000000000000000e+00
1.768200000000000000e+04,4.000000000000000327e-05,9.000000000000000567e-05,1.300000000000000157e-04,-2.999999999999999737e-05,-5.000000000000000240e-05,5.500000000000000331e-04,4.000000000000000327e-05,2.000000000000000164e-05,4.000000000000000000e+00,7.000000000000000000e+00
1.768300000000000000e+04,4.000000000000000327e-05,9.000000000000000567e-05,1.300000000000000157e-04,-2.999999999999999737e-05,-5.000000000000000240e-05,5.500000000000000331e-04,4.000000000000000327e-05,2.000000000000000164e-05,4.000000000000000000e+00,7.000000000000000000e+00
1.768400000000000000e+04,4.000000000000000327e-05,9.000000000000000567e-05,1.300000000000000157e-04,-2.999999999999999737e-05,-5.000000000000000240e-05,5.500000000000000331e-04,4.000000000000000327e-05,2.000000000000000164e-05,4.000000000000000000e+00,7.000000000000000000e+00
1.768500000000000000e+04,-5.999999999999999474e-05,-5.999999999999999474e-05,0.000000000000000000e+00,5.200000000000000629e-04,-3.399999999999999702e-04,-2.600000000000000314e-04,-1.199999999999999895e-04,-4.000000000000000327e-05,4.000000000000000000e+00,7.000000000000000000e+00
1.768600000000000000e+04,-1.199999999999999895e-04,-4.000000000000000327e-05,4.000000000000000327e-05,3.200000000000000262e-04,8.000000000000000383e-04,-6.099999999999999737e-04,-1.399999999999999877e-04,-8.000000000000000654e-05,4.000000000000000000e+00,7.000000000000000000e+00
1.768800000000000000e+04,-1.199999999999999895e-04,-4.000000000000000327e-05,4.000000000000000327e-05,3.200000000000000262e-04,8.000000000000000383e-04,-6.099999999999999737e-04,-1.399999999999999877e-04,-8.000000000000000654e-05,4.000000000000000000e+00,7.000000000000000000e+00
1.768900000000000000e+04,-1.199999999999999895e-04,-4.000000000000000327e-05,4.000000000000000327e-05,3.200000000000000262e-04,8.000000000000000383e-04,-6.099999999999999737e-04,-1.399999999999999877e-04,-8.000000000000000654e-05,4.000000000000000000e+00,7.000000000000000000e+00
1.769000000000000000e+04,-1.199999999999999895e-04,-4.000000000000000327e-05,4.000000000000000327e-05,3.200000000000000262e-04,8.000000000000000383e-04,-6.099999999999999737e-04,-1.399999999999999877e-04,-8.000000000000000654e-05,4.000000000000000000e+00,7.000000000000000000e+00
1.769100000000000000e+04,-1.199999999999999895e-04,-4.000000000000000327e-05,4.000000000000000327e-05,3.200000000000000262e-04,8.000000000000000383e-04,-6.099999999999999737e-04,-1.399999999999999877e-04,-8.000000000000000654e-05,4.000000000000000000e+00,7.000000000000000000e+00
1.769200000000000000e+04,-1.199999999999999895e-04,-4.000000000000000327e-05,4.000000000000000327e-05,3.200000000000000262e-04,8.000000000000000383e-04,-6.099999999999999737e-04,-1.399999999999999877e-04,-8.000000000000000654e-05,4.000000000000000000e+00,7.000000000000000000e+00
1.769300000000000000e+04,-1.199999999999999895e-04,-4.000000000000000327e-05,4.000000000000000327e-05,3.200000000000000262e-04,8.000000000000000383e-04,-6.099999999999999737e-04,-1.399999999999999877e-04,-8.000000000000000654e-05,4.000000000000000000e+00,7.000000000000000000e+00
1.769400000000000000e+04,-1.199999999999999895e-04,-4.000000000000000327e-05,4.000000000000000327e-05,3.200000000000000262e-04,8.000000000000000383e-04,-6.099999999999999737e-04,-1.399999999999999877e-04,-8.000000000000000654e-05,4.000000000000000000e+00,7.000000000000000000e+00
1.769500000000000000e+04,-1.199999999999999895e-04,-4.000000000000000327e-05,4.000000000000000327e-05,3.200000000000000262e-04,8.000000000000000383e-04,-6.099999999999999737e-04,-1.399999999999999877e-04,-8.000000000000000654e-05,4.000000000000000000e+00,7.000000000000000000e+00
1.769600000000000000e+04,-1.199999999999999895e-04,-4.000000000000000327e-05,4.000000000000000327e-05,3.200000000000000262e-04,8.000000000000000383e-04,-6.099999999999999737e-04,-1.399999999999999877e-04,-8.000000000000000654e-05,4.000000000000000000e+00,7.000000000000000000e+00
1.769700000000000000e+04,-1.199999999999999895e-04,-4.000000000000000327e-05,4.000000000000000327e-05,3.200000000000000262e-04,8.000000000000000383e-04,-6.099999999999999737e-04,-1.399999999999999877e-04,-8.000000000000000654e-05,4.000000000000000000e+00,7.000000000000000000e+00
1.769800000000000000e+04,-1.199999999999999895e-04,-4.000000000000000327e-05,4.000000000000000327e-05,3.200000000000000262e-04,8.000000000000000383e-04,-6.099999999999999737e-04,-1.399999999999999877e-04,-8.000000000000000654e-05,4.000000000000000000e+00,7.000000000000000000e+00
1.769900000000000000e+04,-1.199999999999999895e-04,-4.000000000000000327e-05,4.000000000000000327e-05,3.200000000000000262e-04,8.000000000000000383e-04,-6.099999999999999737e-04,-1.399999999999999877e-04,-8.000000000000000654e-05,4.000000000000000000e+00,7.000000000000000000e+00
1.770000000000000000e+04,-1.199999999999999895e-04,-4.000000000000000327e-05,4.000000000000000327e-05,3.200000000000000262e-04,8.000000000000000383e-04,-6.099999999999999737e-04,-1.399999999999999877e-04,-8.000000000000000654e-05,4.000000000000000000e+00,7.000000000000000000e+00
1.770100000000000000e+04,-1.199999999999999895e-04,-4.000000000000000327e-05,4.000000000000000327e-05,3.200000000000000262e-04,8.000000000000000383e-04,-6.099999999999999737e-04,-1.399999999999999877e-04,-8.000000000000000654e-05,4.000000000000000000e+00,7.000000000000000000e+00
1.770200000000000000e+04,-1.199999999999999895e-04,-4.000000000000000327e-05,4.000000000000000327e-05,3.200000000000000262e-04,8.000000000000000383e-04,-6.099999999999999737e-04,-1.399999999999999877e-04,-8.000000000000000654e-05,4.000000000000000000e+00,7.000000000000000000e+00
1.770300000000000000e+04,-1.199999999999999895e-04,-4.000000000000000327e-05,4.000000000000000327e-05,3.200000000000000262e-04,8.000000000000000383e-04,-6.099999999999999737e-04,-1.399999999999999877e-04,-8.000000000000000654e-05,4.000000000000000000e+00,7.000000000000000000e+00
1.770400000000000000e+04,-1.199999999999999895e-04,-4.000000000000000327e-05,4.000000000000000327e-05,3.200000000000000262e-04,8.000000000000000383e-04,-6.099999999999999737e-04,-1.399999999999999877e-04,-8.000000000000000654e-05,4.000000000000000000e+00,7.000000000000000000e+00
1.770500000000000000e+04,-1.199999999999999895e-04,-4.000000000000000327e-05,4.000000000000000327e-05,3.200000000000000262e-04,8.000000000000000383e-04,-6.099999999999999737e-04,-1.399999999999999877e-04,-8.000000000000000654e-05,4.000000000000000000e+00,7.000000000000000000e+00
1.770600000000000000e+04,-1.199999999999999895e-04,-4.000000000000000327e-05,4.000000000000000327e-05,3.200000000000000262e-04,8.000000000000000383e-04,-6.099999999999999737e-04,-1.399999999999999877e-04,-8.000000000000000654e-05,4.000000000000000000e+00,7.000000000000000000e+00
1.770700000000000000e+04,-6.999999999999999387e-05,-1.000000000000000048e-04,-2.900000000000000017e-04,-9.599999999999999159e-04,1.269999999999999862e-03,-1.600000000000000131e-04,-1.699999999999999851e-04,-8.000000000000000654e-05,4.000000000000000000e+00,7.000000000000000000e+00
1.770800000000000000e+04,-9.000000000000000567e-05,5.000000000000000240e-05,1.300000000000000157e-04,0.000000000000000000e+00,9.599999999999999159e-04,-5.500000000000000331e-04,-4.000000000000000327e-05,-2.999999999999999737e-05,4.000000000000000000e+00,7.000000000000000000e+00
1.770900000000000000e+04,-9.000000000000000567e-05,5.000000000000000240e-05,1.300000000000000157e-04,0.000000000000000000e+00,9.599999999999999159e-04,-5.500000000000000331e-04,-4.000000000000000327e-05,-2.999999999999999737e-05,4.000000000000000000e+00,7.000000000000000000e+00
1.771000000000000000e+04,-9.000000000000000567e-05,5.000000000000000240e-05,1.300000000000000157e-04,0.000000000000000000e+00,9.599999999999999159e-04,-5.500000000000000331e-04,-4.000000000000000327e-05,-2.999999999999999737e-05,4.000000000000000000e+00,7.000000000000000000e+00
1.771100000000000000e+04,-9.000000000000000567e-05,5.000000000000000240e-05,1.300000000000000157e-04,0.000000000000000000e+00,9.599999999999999159e-04,-5.500000000000000331e-04,-4.000000000000000327e-05,-2.999999999999999737e-05,4.000000000000000000e+00,7.000000000000000000e+00
1.771200000000000000e+04,-9.000000000000000567e-05,5.000000000000000240e-05,1.300000000000000157e-04,0.000000000000000000e+00,9.599999999999999159e-04,-5.500000000000000331e-04,-4.000000000000000327e-05,-2.999999999999999737e-05,4.000000000000000000e+00,7.000000000000000000e+00
1.771300000000000000e+04,-9.000000000000000567e-05,5.000000000000000240e-05,1.300000000000000157e-04,0.000000000000000000e+00,9.599999999999999159e-04,-5.500000000000000331e-04,-4.000000000000000327e-05,-2.999999999999999737e-05,4.000000000000000000e+00,7.000000000000000000e+00
1.771400000000000000e+04,-9.000000000000000567e-05,5.000000000000000240e-05,1.300000000000000157e-04,0.000000000000000000e+00,9.599999999999999159e-04,-5.500000000000000331e-04,-4.000000000000000327e-05,-2.999999999999999737e-05,4.000000000000000000e+00,7.000000000000000000e+00
1.771500000000000000e+04,-9.000000000000000567e-05,5.000000000000000240e-05,1.300000000000000157e-04,0.000000000000000000e+00,9.599999999999999159e-04,-5.500000000000000331e-04,-4.000000000000000327e-05,-2.999999999999999737e-05,4.000000000000000000e+00,7.000000000000000000e+00
1.771600000000000000e+04,-9.000000000000000567e-05,5.000000000000000240e-05,1.300000000000000157e-04,0.000000000000000000e+00,9.599999999999999159e-04,-5.500000000000000331e-04,-4.000000000000000327e-05,-2.999999999999999737e-05,4.000000000000000000e+00,7.000000000000000000e+00
1.771700000000000000e+04,-9.000000000000000567e-05,5.000000000000000240e-05,1.300000000000000157e-04,0.000000000000000000e+00,9.599999999999999159e-04,-5.500000000000000331e-04,-4.000000000000000327e-05,-2.999999999999999737e-05,4.000000000000000000e+00,7.000000000000000000e+00
1.771800000000000000e+04,-9.000000000000000567e-05,5.000000000000000240e-05,1.300000000000000157e-04,0.000000000000000000e+00,9.599999999999999159e-04,-5.500000000000000331e-04,-4.000000000000000327e-05,-2.999999999999999737e-05,4.000000000000000000e+00,7.000000000000000000e+00
1.771900000000000000e+04,-9.000000000000000567e-05,5.000000000000000240e-05,1.300000000000000157e-04,0.000000000000000000e+00,9.599999999999999159e-04,-5.500000000000000331e-04,-4.000000000000000327e-05,-2.999999999999999737e-05,4.000000000000000000e+00,7.000000000000000000e+00
1.772000000000000000e+04,-9.000000000000000567e-05,5.000000000000000240e-05,1.300000000000000157e-04,0.000000000000000000e+00,9.599999999999999159e-04,-5.500000000000000331e-04,-4.000000000000000327e-05,-2.999999999999999737e-05,4.000000000000000000e+00,7.000000000000000000e+00
1.772100000000000000e+04,-9.000000000000000567e-05,5.000000000000000240e-05,1.300000000000000157e-04,0.000000000000000000e+00,9.599999999999999159e-04,-5.500000000000000331e-04,-4.000000000000000327e-05,-2.999999999999999737e-05,4.000000000000000000e+00,7.000000000000000000e+00
1.772200000000000000e+04,1.300000000000000157e-04,-6.999999999999999387e-05,-5.000000000000000240e-05,4.000000000000000327e-05,-3.799999999999999667e-04,-8.900000000000000576e-04,-2.799999999999999755e-04,2.000000000000000164e-05,4.000000000000000000e+00,7.000000000000000000e+00
1.772300000000000000e+04,-9.000000000000000567e-05,-1.100000000000000039e-04,-2.799999999999999755e-04,-3.399999999999999702e-04,5.299999999999999807e-04,-8.099999999999999561e-04,-2.200000000000000078e-04,-1.100000000000000039e-04,4.000000000000000000e+00,7.000000000000000000e+00
1.772400000000000000e+04,-9.000000000000000567e-05,-1.100000000000000039e-04,-2.799999999999999755e-04,-3.399999999999999702e-04,5.299999999999999807e-04,-8.099999999999999561e-04,-2.200000000000000078e-04,-1.100000000000000039e-04,4.000000000000000000e+00,7.000000000000000000e+00
1.772500000000000000e+04,-9.000000000000000567e-05,-1.100000000000000039e-04,-2.799999999999999755e-04,-3.399999999999999702e-04,5.299999999999999807e-04,-8.099999999999999561e-04,-2.200000000000000078e-04,-1.100000000000000039e-04,4.000000000000000000e+00,7.000000000000000000e+00
1.772600000000000000e+04,-9.000000000000000567e-05,-1.100000000000000039e-04,-2.799999999999999755e-04,-3.399999999999999702e-04,5.299999999999999807e-04,-8.099999999999999561e-04,-2.200000000000000078e-04,-1.100000000000000039e-04,4.000000000000000000e+00,7.000000000000000000e+00
1.772700000000000000e+04,-9.000000000000000567e-05,-1.100000000000000039e-04,-2.799999999999999755e-04,-3.399999999999999702e-04,5.299999999999999807e-04,-8.099999999999999561e-04,-2.200000000000000078e-04,-1.100000000000000039e-04,4.000000000000000000e+00,7.000000000000000000e+00
1.772800000000000000e+04,-9.000000000000000567e-05,-1.100000000000000039e-04,-2.799999999999999755e-04,-3.399999999999999702e-04,5.299999999999999807e-04,-8.099999999999999561e-04,-2.200000000000000078e-04,-1.100000000000000039e-04,4.000000000000000000e+00,7.000000000000000000e+00
1.772900000000000000e+04,-9.000000000000000567e-05,-1.100000000000000039e-04,-2.799999999999999755e-04,-3.399999999999999702e-04,5.299999999999999807e-04,-8.099999999999999561e-04,-2.200000000000000078e-04,-1.100000000000000039e-04,4.000000000000000000e+00,7.000000000000000000e+00
1.773000000000000000e+04,-9.000000000000000567e-05,-1.100000000000000039e-04,-2.799999999999999755e-04,-3.399999999999999702e-04,5.299999999999999807e-04,-8.099999999999999561e-04,-2.200000000000000078e-04,-1.100000000000000039e-04,4.000000000000000000e+00,7.000000000000000000e+00
1.773100000000000000e+04,-9.000000000000000567e-05,-1.100000000000000039e-04,-2.799999999999999755e-04,-3.399999999999999702e-04,5.299999999999999807e-04,-8.099999999999999561e-04,-2.200000000000000078e-04,-1.100000000000000039e-04,4.000000000000000000e+00,7.000000000000000000e+00
1.773200000000000000e+04,-9.000000000000000567e-05,-1.100000000000000039e-04,-2.799999999999999755e-04,-3.399999999999999702e-04,5.299999999999999807e-04,-8.099999999999999561e-04,-2.200000000000000078e-04,-1.100000000000000039e-04,4.000000000000000000e+00,7.000000000000000000e+00
1.773300000000000000e+04,-9.000000000000000567e-05,-1.100000000000000039e-04,-2.799999999999999755e-04,-3.399999999999999702e-04,5.299999999999999807e-04,-8.099999999999999561e-04,-2.200000000000000078e-04,-1.100000000000000039e-04,4.000000000000000000e+00,7.000000000000000000e+00
1.773400000000000000e+04,-9.000000000000000567e-05,-1.100000000000000039e-04,-2.799999999999999755e-04,-3.399999999999999702e-04,5.299999999999999807e-04,-8.099999999999999561e-04,-2.200000000000000078e-04,-1.100000000000000039e-04,4.000000000000000000e+00,7.000000000000000000e+00
1.773500000000000000e+04,-9.000000000000000567e-05,-1.100000000000000039e-04,-2.799999999999999755e-04,-3.399999999999999702e-04,5.299999999999999807e-04,-8.099999999999999561e-04,-2.200000000000000078e-04,-1.100000000000000039e-04,4.000000000000000000e+00,7.000000000000000000e+00
1.773600000000000000e+04,-9.000000000000000567e-05,-1.100000000000000039e-04,-2.799999999999999755e-04,-3.399999999999999702e-04,5.299999999999999807e-04,-8.099999999999999561e-04,-2.200000000000000078e-04,-1.100000000000000039e-04,4.000000000000000000e+00,7.000000000000000000e+00
1.773800000000000000e+04,-9.000000000000000567e-05,-1.100000000000000039e-04,-2.799999999999999755e-04,-3.399999999999999702e-04,5.299999999999999807e-04,-8.099999999999999561e-04,-2.200000000000000078e-04,-1.100000000000000039e-04,4.000000000000000000e+00,7.000000000000000000e+00
1.773900000000000000e+04,-9.000000000000000567e-05,-1.100000000000000039e-04,-2.799999999999999755e-04,-3.399999999999999702e-04,5.299999999999999807e-04,-8.099999999999999561e-04,-2.200000000000000078e-04,-1.100000000000000039e-04,4.000000000000000000e+00,7.000000000000000000e+00
1.774000000000000000e+04,-9.000000000000000567e-05,-1.100000000000000039e-04,-2.799999999999999755e-04,-3.399999999999999702e-04,5.299999999999999807e-04,-8.099999999999999561e-04,-2.200000000000000078e-04,-1.100000000000000039e-04,4.000000000000000000e+00,7.000000000000000000e+00
1.774100000000000000e+04,-9.000000000000000567e-05,-1.100000000000000039e-04,-2.799999999999999755e-04,-3.399999999999999702e-04,5.299999999999999807e-04,-8.099999999999999561e-04,-2.200000000000000078e-04,-1.100000000000000039e-04,4.000000000000000000e+00,7.000000000000000000e+00
1.774200000000000000e+04,-9.000000000000000567e-05,-1.100000000000000039e-04,-2.799999999999999755e-04,-3.399999999999999702e-04,5.299999999999999807e-04,-8.099999999999999561e-04,-2.200000000000000078e-04,-1.100000000000000039e-04,4.000000000000000000e+00,7.000000000000000000e+00
1.774300000000000000e+04,-9.000000000000000567e-05,-1.100000000000000039e-04,-2.799999999999999755e-04,-3.399999999999999702e-04,5.299999999999999807e-04,-8.099999999999999561e-04,-2.200000000000000078e-04,-1.100000000000000039e-04,4.000000000000000000e+00,7.000000000000000000e+00
1.774400000000000000e+04,-9.000000000000000567e-05,-1.100000000000000039e-04,-2.799999999999999755e-04,-3.399999999999999702e-04,5.299999999999999807e-04,-8.099999999999999561e-04,-2.200000000000000078e-04,-1.100000000000000039e-04,4.000000000000000000e+00,7.000000000000000000e+00
1.774500000000000000e+04,-1.699999999999999851e-04,-1.300000000000000157e-04,-2.700000000000000035e-04,-6.799999999999999404e-04,1.600000000000000131e-04,-4.799999999999999580e-04,0.000000000000000000e+00,-1.100000000000000039e-04,4.000000000000000000e+00,7.000000000000000000e+00
1.774600000000000000e+04,-1.000000000000000082e-05,-2.999999999999999737e-05,-2.999999999999999737e-05,-5.999999999999999474e-05,0.000000000000000000e+00,-1.119999999999999902e-03,-5.000000000000000240e-05,0.000000000000000000e+00,4.000000000000000000e+00,7.000000000000000000e+00
1.774700000000000000e+04,-1.000000000000000082e-05,-2.999999999999999737e-05,-2.999999999999999737e-05,-5.999999999999999474e-05,0.000000000000000000e+00,-1.119999999999999902e-03,-5.000000000000000240e-05,0.000000000000000000e+00,4.000000000000000000e+00,7.000000000000000000e+00
1.774800000000000000e+04,-1.000000000000000082e-05,-2.999999999999999737e-05,-2.999999999999999737e-05,-5.999999999999999474e-05,0.000000000000000000e+00,-1.119999999999999902e-03,-5.000000000000000240e-05,0.000000000000000000e+00,4.000000000000000000e+00,7.000000000000000000e+00
1.774900000000000000e+04,-1.000000000000000082e-05,-2.999999999999999737e-05,-2.999999999999999737e-05,-5.999999999999999474e-05,0.000000000000000000e+00,-1.119999999999999902e-03,-5.000000000000000240e-05,0.000000000000000000e+00,4.000000000000000000e+00,7.000000000000000000e+00
1.775000000000000000e+04,-1.000000000000000082e-05,-2.999999999999999737e-05,-2.999999999999999737e-05,-5.999999999999999474e-05,0.000000000000000000e+00,-1.119999999999999902e-03,-5.000000000000000240e-05,0.000000000000000000e+00,4.000000000000000000e+00,7.000000000000000000e+00
1.775100000000000000e+04,-1.000000000000000082e-05,-2.999999999999999737e-05,-2.999999999999999737e-05,-5.999999999999999474e-05,0.000000000000000000e+00,-1.119999999999999902e-03,-5.000000000000000240e-05,0.000000000000000000e+00,4.000000000000000000e+00,7.000000000000000000e+00
1.775200000000000000e+04,-1.000000000000000082e-05,-2.999999999999999737e-05,-2.999999999999999737e-05,-5.999999999999999474e-05,0.000000000000000000e+00,-1.119999999999999902e-03,-5.000000000000000240e-05,0.000000000000000000e+00,4.000000000000000000e+00,7.000000000000000000e+00
1.775300000000000000e+04,-1.000000000000000082e-05,-2.999999999999999737e-05,-2.999999999999999737e-05,-5.999999999999999474e-05,0.000000000000000000e+00,-1.119999999999999902e-03,-5.000000000000000240e-05,0.000000000000000000e+00,4.000000000000000000e+00,7.000000000000000000e+00
1.775400000000000000e+04,-1.000000000000000082e-05,-2.999999999999999737e-05,-2.999999999999999737e-05,-5.999999999999999474e-05,0.000000000000000000e+00,-1.119999999999999902e-03,-5.000000000000000240e-05,0.000000000000000000e+00,4.000000000000000000e+00,7.000000000000000000e+00
1.775500000000000000e+04,-1.000000000000000082e-05,-2.999999999999999737e-05,-2.999999999999999737e-05,-5.999999999999999474e-05,0.000000000000000000e+00,-1.119999999999999902e-03,-5.000000000000000240e-05,0.000000000000000000e+00,4.000000000000000000e+00,7.000000000000000000e+00
1.775600000000000000e+04,-1.000000000000000082e-05,-2.999999999999999737e-05,-2.999999999999999737e-05,-5.999999999999999474e-05,0.000000000000000000e+00,-1.119999999999999902e-03,-5.000000000000000240e-05,0.000000000000000000e+00,4.000000000000000000e+00,7.000000000000000000e+00
1.775700000000000000e+04,-1.000000000000000082e-05,-2.999999999999999737e-05,-2.999999999999999737e-05,-5.999999999999999474e-05,0.000000000000000000e+00,-1.119999999999999902e-03,-5.000000000000000240e-05,0.000000000000000000e+00,4.000000000000000000e+00,7.000000000000000000e+00
1.775800000000000000e+04,-1.000000000000000082e-05,-2.999999999999999737e-05,-2.999999999999999737e-05,-5.999999999999999474e-05,0.000000000000000000e+00,-1.119999999999999902e-03,-5.000000000000000240e-05,0.000000000000000000e+00,4.000000000000000000e+00,7.000000000000000000e+00
1.775900000000000000e+04,-1.000000000000000082e-05,-2.999999999999999737e-05,-2.999999999999999737e-05,-5.999999999999999474e-05,0.000000000000000000e+00,-1.119999999999999902e-03,-5.000000000000000240e-05,0.000000000000000000e+00,4.000000000000000000e+00,7.000000000000000000e+00
1.776000000000000000e+04,-1.000000000000000082e-05,-2.999999999999999737e-05,-2.999999999999999737e-05,-5.999999999999999474e-05,0.000000000000000000e+00,-1.119999999999999902e-03,-5.000000000000000240e-05,0.000000000000000000e+00,4.000000000000000000e+00,7.000000000000000000e+00
1.776100000000000000e+04,-1.000000000000000082e-05,-2.999999999999999737e-05,-2.999999999999999737e-05,-5.999999999999999474e-05,0.000000000000000000e+00,-1.119999999999999902e-03,-5.000000000000000240e-05,0.000000000000000000e+00,4.000000000000000000e+00,7.000000000000000000e+00
1.776200000000000000e+04,-1.000000000000000082e-05,-2.999999999999999737e-05,-2.999999999999999737e-05,-5.999999999999999474e-05,0.000000000000000000e+00,-1.119999999999999902e-03,-5.000000000000000240e-05,0.000000000000000000e+00,4.000000000000000000e+00,7.000000000000000000e+00
1.776300000000000000e+04,-1.000000000000000082e-05,-2.999999999999999737e-05,-2.999999999999999737e-05,-5.999999999999999474e-05,0.000000000000000000e+00,-1.119999999999999902e-03,-5.000000000000000240e-05,0.000000000000000000e+00,4.000000000000000000e+00,7.000000000000000000e+00
1.776400000000000000e+04,-1.000000000000000082e-05,-2.999999999999999737e-05,-2.999999999999999737e-05,-5.999999999999999474e-05,0.000000000000000000e+00,-1.119999999999999902e-03,-5.000000000000000240e-05,0.000000000000000000e+00,4.000000000000000000e+00,7.000000000000000000e+00
1.776500000000000000e+04,-1.000000000000000082e-05,-2.999999999999999737e-05,-2.999999999999999737e-05,-5.999999999999999474e-05,0.000000000000000000e+00,-1.119999999999999902e-03,-5.000000000000000240e-05,0.000000000000000000e+00,4.000000000000000000e+00,7.000000000000000000e+00
1.776600000000000000e+04,-1.000000000000000082e-05,-2.999999999999999737e-05,-2.999999999999999737e-05,-5.999999999999999474e-05,0.000000000000000000e+00,-1.119999999999999902e-03,-5.000000000000000240e-05,0.000000000000000000e+00,4.000000000000000000e+00,7.000000000000000000e+00
1.776700000000000000e+04,4.000000000000000327e-05,1.000000000000000048e-04,2.799999999999999755e-04,3.499999999999999964e-04,1.399999999999999877e-04,3.799999999999999667e-04,9.000000000000000567e-05,2.999999999999999737e-05,4.000000000000000000e+00,7.000000000000000000e+00
1.776800000000000000e+04,-1.499999999999999869e-04,-1.600000000000000131e-04,-2.900000000000000017e-04,-7.299999999999999632e-04,5.099999999999999282e-04,-3.699999999999999947e-04,-1.100000000000000039e-04,-1.100000000000000039e-04,4.000000000000000000e+00,7.000000000000000000e+00
1.776900000000000000e+04,-1.499999999999999869e-04,-1.600000000000000131e-04,-2.900000000000000017e-04,-7.299999999999999632e-04,5.099999999999999282e-04,-3.699999999999999947e-04,-1.100000000000000039e-04,-1.100000000000000039e-04,4.000000000000000000e+00,7.000000000000000000e+00
1.777000000000000000e+04,-1.499999999999999869e-04,-1.600000000000000131e-04,-2.900000000000000017e-04,-7.299999999999999632e-04,5.099999999999999282e-04,-3.699999999999999947e-04,-1.100000000000000039e-04,-1.100000000000000039e-04,4.000000000000000000e+00,7.000000000000000000e+00
1.777100000000000000e+04,-1.499999999999999869e-04,-1.600000000000000131e-04,-2.900000000000000017e-04,-7.299999999999999632e-04,5.099999999999999282e-04,-3.699999999999999947e-04,-1.100000000000000039e-04,-1.100000000000000039e-04,4.000000000000000000e+00,7.000000000000000000e+00
1.777200000000000000e+04,-1.499999999999999869e-04,-1.600000000000000131e-04,-2.900000000000000017e-04,-7.299999999999999632e-04,5.099999999999999282e-04,-3.699999999999999947e-04,-1.100000000000000039e-04,-1.100000000000000039e-04,4.000000000000000000e+00,7.000000000000000000e+00
1.777300000000000000e+04,-1.499999999999999869e-04,-1.600000000000000131e-04,-2.900000000000000017e-04,-7.299999999999999632e-04,5.099999999999999282e-04,-3.699999999999999947e-04,-1.100000000000000039e-04,-1.100000000000000039e-04,4.000000000000000000e+00,7.000000000000000000e+00
1.777400000000000000e+04,-1.499999999999999869e-04,-1.600000000000000131e-04,-2.900000000000000017e-04,-7.299999999999999632e-04,5.099999999999999282e-04,-3.699999999999999947e-04,-1.100000000000000039e-04,-1.100000000000000039e-04,4.000000000000000000e+00,7.000000000000000000e+00
1.777500000000000000e+04,-1.499999999999999869e-04,-1.600000000000000131e-04,-2.900000000000000017e-04,-7.299999999999999632e-04,5.099999999999999282e-04,-3.699999999999999947e-04,-1.100000000000000039e-04,-1.100000000000000039e-04,4.000000000000000000e+00,7.000000000000000000e+00
1.777600000000000000e+04,-1.499999999999999869e-04,-1.600000000000000131e-04,-2.900000000000000017e-04,-7.299999999999999632e-04,5.099999999999999282e-04,-3.699999999999999947e-04,-1.100000000000000039e-04,-1.100000000000000039e-04,4.000000000000000000e+00,7.000000000000000000e+00
1.777700000000000000e+04,-1.499999999999999869e-04,-1.600000000000000131e-04,-2.900000000000000017e-04,-7.299999999999999632e-04,5.099999999999999282e-04,-3.699999999999999947e-04,-1.100000000000000039e-04,-1.100000000000000039e-04,4.000000000000000000e+00,7.000000000000000000e+00
1.777800000000000000e+04,-1.499999999999999869e-04,-1.600000000000000131e-04,-2.900000000000000017e-04,-7.299999999999999632e-04,5.099999999999999282e-04,-3.699999999999999947e-04,-1.100000000000000039e-04,-1.100000000000000039e-04,4.000000000000000000e+00,7.000000000000000000e+00
1.777900000000000000e+04,-1.499999999999999869e-04,-1.600000000000000131e-04,-2.900000000000000017e-04,-7.299999999999999632e-04,5.099999999999999282e-04,-3.699999999999999947e-04,-1.100000000000000039e-04,-1.100000000000000039e-04,4.000000000000000000e+00,7.000000000000000000e+00
1.778000000000000000e+04,-1.499999999999999869e-04,-1.600000000000000131e-04,-2.900000000000000017e-04,-7.299999999999999632e-04,5.099999999999999282e-04,-3.699999999999999947e-04,-1.100000000000000039e-04,-1.100000000000000039e-04,4.000000000000000000e+00,7.000000000000000000e+00
1.778100000000000000e+04,-1.499999999999999869e-04,-1.600000000000000131e-04,-2.900000000000000017e-04,-7.299999999999999632e-04,5.099999999999999282e-04,-3.699999999999999947e-04,-1.100000000000000039e-04,-1.100000000000000039e-04,4.000000000000000000e+00,7.000000000000000000e+00
1.778200000000000000e+04,2.600000000000000314e-04,1.399999999999999877e-04,8.000000000000000654e-05,6.999999999999999387e-05,-9.300000000000000541e-04,4.899999999999999842e-04,1.100000000000000039e-04,2.000000000000000096e-04,4.000000000000000000e+00,7.000000000000000000e+00
1.778300000000000000e+04,-2.000000000000000164e-05,-5.999999999999999474e-05,-2.999999999999999737e-05,3.499999999999999964e-04,2.100000000000000087e-04,-5.999999999999999474e-05,-2.999999999999999737e-05,-6.999999999999999387e-05,4.000000000000000000e+00,7.000000000000000000e+00
1.778400000000000000e+04,-2.000000000000000164e-05,-5.999999999999999474e-05,-2.999999999999999737e-05,3.499999999999999964e-04,2.100000000000000087e-04,-5.999999999999999474e-05,-2.999999999999999737e-05,-6.999999999999999387e-05,4.000000000000000000e+00,7.000000000000000000e+00
1.778500000000000000e+04,-2.000000000000000164e-05,-5.999999999999999474e-05,-2.999999999999999737e-05,3.499999999999999964e-04,2.100000000000000087e-04,-5.999999999999999474e-05,-2.999999999999999737e-05,-6.999999999999999387e-05,4.000000000000000000e+00,7.000000000000000000e+00
1.778600000000000000e+04,-2.000000000000000164e-05,-5.999999999999999474e-05,-2.999999999999999737e-05,3.499999999999999964e-04,2.100000000000000087e-04,-5.999999999999999474e-05,-2.999999999999999737e-05,-6.999999999999999387e-05,4.000000000000000000e+00,7.000000000000000000e+00
1.778800000000000000e+04,-2.000000000000000164e-05,-5.999999999999999474e-05,-2.999999999999999737e-05,3.499999999999999964e-04,2.100000000000000087e-04,-5.999999999999999474e-05,-2.999999999999999737e-05,-6.999999999999999387e-05,4.000000000000000000e+00,7.000000000000000000e+00
1.778900000000000000e+04,-2.000000000000000164e-05,-5.999999999999999474e-05,-2.999999999999999737e-05,3.499999999999999964e-04,2.100000000000000087e-04,-5.999999999999999474e-05,-2.999999999999999737e-05,-6.999999999999999387e-05,4.000000000000000000e+00,7.000000000000000000e+00
1.779000000000000000e+04,-2.000000000000000164e-05,-5.999999999999999474e-05,-2.999999999999999737e-05,3.499999999999999964e-04,2.100000000000000087e-04,-5.999999999999999474e-05,-2.999999999999999737e-05,-6.999999999999999387e-05,4.000000000000000000e+00,7.000000000000000000e+00
1.779100000000000000e+04,-2.000000000000000164e-05,-5.999999999999999474e-05,-2.999999999999999737e-05,3.499999999999999964e-04,2.100000000000000087e-04,-5.999999999999999474e-05,-2.999999999999999737e-05,-6.999999999999999387e-05,4.000000000000000000e+00,7.000000000000000000e+00
1.779200000000000000e+04,-2.000000000000000164e-05,-5.999999999999999474e-05,-2.999999999999999737e-05,3.499999999999999964e-04,2.100000000000000087e-04,-5.999999999999999474e-05,-2.999999999999999737e-05,-6.999999999999999387e-05,4.000000000000000000e+00,7.000000000000000000e+00
1.779300000000000000e+04,-2.000000000000000164e-05,-5.999999999999999474e-05,-2.999999999999999737e-05,3.499999999999999964e-04,2.100000000000000087e-04,-5.999999999999999474e-05,-2.999999999999999737e-05,-6.999999999999999387e-05,4.000000000000000000e+00,7.000000000000000000e+00
1.779400000000000000e+04,-2.000000000000000164e-05,-5.999999999999999474e-05,-2.999999999999999737e-05,3.499999999999999964e-04,2.100000000000000087e-04,-5.999999999999999474e-05,-2.999999999999999737e-05,-6.999999999999999387e-05,4.000000000000000000e+00,7.000000000000000000e+00
1.779500000000000000e+04,-2.000000000000000164e-05,-5.999999999999999474e-05,-2.999999999999999737e-05,3.499999999999999964e-04,2.100000000000000087e-04,-5.999999999999999474e-05,-2.999999999999999737e-05,-6.999999999999999387e-05,4.000000000000000000e+00,7.000000000000000000e+00
1.779600000000000000e+04,-2.000000000000000164e-05,-5.999999999999999474e-05,-2.999999999999999737e-05,3.499999999999999964e-04,2.100000000000000087e-04,-5.999999999999999474e-05,-2.999999999999999737e-05,-6.999999999999999387e-05,4.000000000000000000e+00,7.000000000000000000e+00
1.779700000000000000e+04,-2.000000000000000164e-05,-5.999999999999999474e-05,-2.999999999999999737e-05,3.499999999999999964e-04,2.100000000000000087e-04,-5.999999999999999474e-05,-2.999999999999999737e-05,-6.999999999999999387e-05,4.000000000000000000e+00,7.000000000000000000e+00
1.779800000000000000e+04,-2.000000000000000164e-05,-5.999999999999999474e-05,-2.999999999999999737e-05,3.499999999999999964e-04,2.100000000000000087e-04,-5.999999999999999474e-05,-2.999999999999999737e-05,-6.999999999999999387e-05,4.000000000000000000e+00,7.000000000000000000e+00
1.779900000000000000e+04,-2.000000000000000164e-05,-5.999999999999999474e-05,-2.999999999999999737e-05,3.499999999999999964e-04,2.100000000000000087e-04,-5.999999999999999474e-05,-2.999999999999999737e-05,-6.999999999999999387e-05,4.000000000000000000e+00,7.000000000000000000e+00
1.780000000000000000e+04,-2.000000000000000164e-05,-5.999999999999999474e-05,-2.999999999999999737e-05,3.499999999999999964e-04,2.100000000000000087e-04,-5.999999999999999474e-05,-2.999999999999999737e-05,-6.999999999999999387e-05,4.000000000000000000e+00,7.000000000000000000e+00
1.780100000000000000e+04,-2.000000000000000164e-05,-5.999999999999999474e-05,-2.999999999999999737e-05,3.499999999999999964e-04,2.100000000000000087e-04,-5.999999999999999474e-05,-2.999999999999999737e-05,-6.999999999999999387e-05,4.000000000000000000e+00,7.000000000000000000e+00
1.780200000000000000e+04,-2.000000000000000164e-05,-5.999999999999999474e-05,-2.999999999999999737e-05,3.499999999999999964e-04,2.100000000000000087e-04,-5.999999999999999474e-05,-2.999999999999999737e-05,-6.999999999999999387e-05,4.000000000000000000e+00,7.000000000000000000e+00
1.780300000000000000e+04,-2.000000000000000164e-05,-5.999999999999999474e-05,-2.999999999999999737e-05,3.499999999999999964e-04,2.100000000000000087e-04,-5.999999999999999474e-05,-2.999999999999999737e-05,-6.999999999999999387e-05,4.000000000000000000e+00,7.000000000000000000e+00
1.780400000000000000e+04,-2.000000000000000164e-05,-5.999999999999999474e-05,-2.999999999999999737e-05,3.499999999999999964e-04,2.100000000000000087e-04,-5.999999999999999474e-05,-2.999999999999999737e-05,-6.999999999999999387e-05,4.000000000000000000e+00,7.000000000000000000e+00
1.780500000000000000e+04,8.000000000000000654e-05,1.300000000000000157e-04,2.999999999999999737e-04,9.899999999999999946e-04,-2.900000000000000017e-04,4.099999999999999912e-04,6.999999999999999387e-05,6.999999999999999387e-05,4.000000000000000000e+00,7.000000000000000000e+00
1.780600000000000000e+04,2.000000000000000164e-05,-6.999999999999999387e-05,-4.099999999999999912e-04,-9.199999999999999194e-04,-1.280000000000000105e-03,9.000000000000000567e-05,4.000000000000000327e-05,0.000000000000000000e+00,4.000000000000000000e+00,7.000000000000000000e+00
1.780700000000000000e+04,2.000000000000000164e-05,-6.999999999999999387e-05,-4.099999999999999912e-04,-9.199999999999999194e-04,-1.280000000000000105e-03,9.000000000000000567e-05,4.000000000000000327e-05,0.000000000000000000e+00,4.000000000000000000e+00,7.000000000000000000e+00
1.780800000000000000e+04,2.000000000000000164e-05,-6.999999999999999387e-05,-4.099999999999999912e-04,-9.199999999999999194e-04,-1.280000000000000105e-03,9.000000000000000567e-05,4.000000000000000327e-05,0.000000000000000000e+00,4.000000000000000000e+00,7.000000000000000000e+00
1.780900000000000000e+04,2.000000000000000164e-05,-6.999999999999999387e-05,-4.099999999999999912e-04,-9.199999999999999194e-04,-1.280000000000000105e-03,9.000000000000000567e-05,4.000000000000000327e-05,0.000000000000000000e+00,4.000000000000000000e+00,7.000000000000000000e+00
1.781000000000000000e+04,2.000000000000000164e-05,-6.999999999999999387e-05,-4.099999999999999912e-04,-9.199999999999999194e-04,-1.280000000000000105e-03,9.000000000000000567e-05,4.000000000000000327e-05,0.000000000000000000e+00,4.000000000000000000e+00,7.000000000000000000e+00
1.781100000000000000e+04,2.000000000000000164e-05,-6.999999999999999387e-05,-4.099999999999999912e-04,-9.199999999999999194e-04,-1.280000000000000105e-03,9.000000000000000567e-05,4.000000000000000327e-05,0.000000000000000000e+00,4.000000000000000000e+00,7.000000000000000000e+00
1.781200000000000000e+04,2.000000000000000164e-05,-6.999999999999999387e-05,-4.099999999999999912e-04,-9.199999999999999194e-04,-1.280000000000000105e-03,9.000000000000000567e-05,4.000000000000000327e-05,0.000000000000000000e+00,4.000000000000000000e+00,7.000000000000000000e+00
1.781300000000000000e+04,2.000000000000000164e-05,-6.999999999999999387e-05,-4.099999999999999912e-04,-9.199999999999999194e-04,-1.280000000000000105e-03,9.000000000000000567e-05,4.000000000000000327e-05,0.000000000000000000e+00,4.000000000000000000e+00,7.000000000000000000e+00
1.781400000000000000e+04,2.000000000000000164e-05,-6.999999999999999387e-05,-4.099999999999999912e-04,-9.199999999999999194e-04,-1.280000000000000105e-03,9.000000000000000567e-05,4.000000000000000327e-05,0.000000000000000000e+00,4.000000000000000000e+00,7.000000000000000000e+00
1.781500000000000000e+04,2.000000000000000164e-05,-6.999999999999999387e-05,-4.099999999999999912e-04,-9.199999999999999194e-04,-1.280000000000000105e-03,9.000000000000000567e-05,4.000000000000000327e-05,0.000000000000000000e+00,4.000000000000000000e+00,7.000000000000000000e+00
1.781600000000000000e+04,2.000000000000000164e-05,-6.999999999999999387e-05,-4.099999999999999912e-04,-9.199999999999999194e-04,-1.280000000000000105e-03,9.000000000000000567e-05,4.000000000000000327e-05,0.000000000000000000e+00,4.000000000000000000e+00,7.000000000000000000e+00
1.781700000000000000e+04,2.000000000000000164e-05,-6.999999999999999387e-05,-4.099999999999999912e-04,-9.199999999999999194e-04,-1.280000000000000105e-03,9.000000000000000567e-05,4.000000000000000327e-05,0.000000000000000000e+00,4.000000000000000000e+00,7.000000000000000000e+00
1.781800000000000000e+04,2.000000000000000164e-05,-6.999999999999999387e-05,-4.099999999999999912e-04,-9.199999999999999194e-04,-1.280000000000000105e-03,9.000000000000000567e-05,4.000000000000000327e-05,0.000000000000000000e+00,4.000000000000000000e+00,7.000000000000000000e+00
1.781900000000000000e+04,2.000000000000000164e-05,-6.999999999999999387e-05,-4.099999999999999912e-04,-9.199999999999999194e-04,-1.280000000000000105e-03,9.000000000000000567e-05,4.000000000000000327e-05,0.000000000000000000e+00,4.000000000000000000e+00,7.000000000000000000e+00
1.782000000000000000e+04,2.000000000000000164e-05,-6.999999999999999387e-05,-4.099999999999999912e-04,-9.199999999999999194e-04,-1.280000000000000105e-03,9.000000000000000567e-05,4.000000000000000327e-05,0.000000000000000000e+00,4.000000000000000000e+00,7.000000000000000000e+00
1.782100000000000000e+04,2.000000000000000164e-05,-6.999999999999999387e-05,-4.099999999999999912e-04,-9.199999999999999194e-04,-1.280000000000000105e-03,9.000000000000000567e-05,4.000000000000000327e-05,0.000000000000000000e+00,4.000000000000000000e+00,7.000000000000000000e+00
