3.027900000000000000e+04,2.000000000000000164e-05,5.999999999999999474e-05,-2.999999999999999737e-05,-1.600000000000000131e-04,-1.000000000000000048e-04,-3.799999999999999667e-04,-2.000000000000000096e-04,1.600000000000000131e-04,2.000000000000000000e+00,1.500000000000000000e+01
3.028000000000000000e+04,2.000000000000000164e-05,5.999999999999999474e-05,-2.999999999999999737e-05,-1.600000000000000131e-04,-1.000000000000000048e-04,-3.799999999999999667e-04,-2.000000000000000096e-04,1.600000000000000131e-04,2.000000000000000000e+00,1.500000000000000000e+01
3.028100000000000000e+04,2.999999999999999737e-05,1.300000000000000157e-04,2.200000000000000078e-04,-5.000000000000000240e-05,1.300000000000000157e-04,6.900000000000000751e-04,-2.399999999999999790e-04,2.000000000000000164e-05,2.000000000000000000e+00,1.500000000000000000e+01
3.028200000000000000e+04,1.600000000000000131e-04,5.000000000000000240e-05,-2.299999999999999799e-04,-5.500000000000000331e-04,-1.600000000000000131e-04,-5.099999999999999282e-04,-4.499999999999999877e-04,4.000000000000000327e-05,2.000000000000000000e+00,1.500000000000000000e+01
3.028300000000000000e+04,1.600000000000000131e-04,5.000000000000000240e-05,-2.299999999999999799e-04,-5.500000000000000331e-04,-1.600000000000000131e-04,-5.099999999999999282e-04,-4.499999999999999877e-04,4.000000000000000327e-05,2.000000000000000000e+00,1.500000000000000000e+01
3.028400000000000000e+04,1.600000000000000131e-04,5.000000000000000240e-05,-2.299999999999999799e-04,-5.500000000000000331e-04,-1.600000000000000131e-04,-5.099999999999999282e-04,-4.499999999999999877e-04,4.000000000000000327e-05,2.000000000000000000e+00,1.500000000000000000e+01
3.028500000000000000e+04,1.600000000000000131e-04,5.000000000000000240e-05,-2.299999999999999799e-04,-5.500000000000000331e-04,-1.600000000000000131e-04,-5.099999999999999282e-04,-4.499999999999999877e-04,4.000000000000000327e-05,2.000000000000000000e+00,1.500000000000000000e+01
3.028600000000000000e+04,1.600000000000000131e-04,5.000000000000000240e-05,-2.299999999999999799e-04,-5.500000000000000331e-04,-1.600000000000000131e-04,-5.099999999999999282e-04,-4.499999999999999877e-04,4.000000000000000327e-05,2.000000000000000000e+00,1.500000000000000000e+01
3.028800000000000000e+04,1.600000000000000131e-04,5.000000000000000240e-05,-2.299999999999999799e-04,-5.500000000000000331e-04,-1.600000000000000131e-04,-5.099999999999999282e-04,-4.499999999999999877e-04,4.000000000000000327e-05,2.000000000000000000e+00,1.500000000000000000e+01
3.028900000000000000e+04,1.600000000000000131e-04,5.000000000000000240e-05,-2.299999999999999799e-04,-5.500000000000000331e-04,-1.600000000000000131e-04,-5.099999999999999282e-04,-4.499999999999999877e-04,4.000000000000000327e-05,2.000000000000000000e+00,1.500000000000000000e+01
3.029000000000000000e+04,1.600000000000000131e-04,5.000000000000000240e-05,-2.299999999999999799e-04,-5.500000000000000331e-04,-1.600000000000000131e-04,-5.099999999999999282e-04,-4.499999999999999877e-04,4.000000000000000327e-05,2.000000000000000000e+00,1.500000000000000000e+01
3.029100000000000000e+04,1.600000000000000131e-04,5.000000000000000240e-05,-2.299999999999999799e-04,-5.500000000000000331e-04,-1.600000000000000131e-04,-5.099999999999999282e-04,-4.499999999999999877e-04,4.000000000000000327e-05,2.000000000000000000e+00,1.500000000000000000e+01
3.029200000000000000e+04,1.600000000000000131e-04,5.000000000000000240e-05,-2.299999999999999799e-04,-5.500000000000000331e-04,-1.600000000000000131e-04,-5.099999999999999282e-04,-4.499999999999999877e-04,4.000000000000000327e-05,2.000000000000000000e+00,1.500000000000000000e+01
3.029300000000000000e+04,1.600000000000000131e-04,5.000000000000000240e-05,-2.299999999999999799e-04,-5.500000000000000331e-04,-1.600000000000000131e-04,-5.099999999999999282e-04,-4.499999999999999877e-04,4.000000000000000327e-05,2.000000000000000000e+00,1.500000000000000000e+01
3.029400000000000000e+04,1.600000000000000131e-04,5.000000000000000240e-05,-2.299999999999999799e-04,-5.500000000000000331e-04,-1.600000000000000131e-04,-5.099999999999999282e-04,-4.499999999999999877e-04,4.000000000000000327e-05,2.000000000000000000e+00,1.500000000000000000e+01
3.029500000000000000e+04,1.600000000000000131e-04,5.000000000000000240e-05,-2.299999999999999799e-04,-5.500000000000000331e-04,-1.600000000000000131e-04,-5.099999999999999282e-04,-4.499999999999999877e-04,4.000000000000000327e-05,2.000000000000000000e+00,1.500000000000000000e+01
3.029600000000000000e+04,1.600000000000000131e-04,5.000000000000000240e-05,-2.299999999999999799e-04,-5.500000000000000331e-04,-1.600000000000000131e-04,-5.099999999999999282e-04,-4.499999999999999877e-04,4.000000000000000327e-05,2.000000000000000000e+00,1.500000000000000000e+01
3.029700000000000000e+04,1.600000000000000131e-04,5.000000000000000240e-05,-2.299999999999999799e-04,-5.500000000000000331e-04,-1.600000000000000131e-04,-5.099999999999999282e-04,-4.499999999999999877e-04,4.000000000000000327e-05,2.000000000000000000e+00,1.500000000000000000e+01
3.029800000000000000e+04,1.600000000000000131e-04,5.000000000000000240e-05,-2.299999999999999799e-04,-5.500000000000000331e-04,-1.600000000000000131e-04,-5.099999999999999282e-04,-4.499999999999999877e-04,4.000000000000000327e-05,2.000000000000000000e+00,1.500000000000000000e+01
3.029900000000000000e+04,1.600000000000000131e-04,5.000000000000000240e-05,-2.299999999999999799e-04,-5.500000000000000331e-04,-1.600000000000000131e-04,-5.099999999999999282e-04,-4.499999999999999877e-04,4.000000000000000327e-05,2.000000000000000000e+00,1.500000000000000000e+01
3.030000000000000000e+04,1.600000000000000131e-04,5.000000000000000240e-05,-2.299999999999999799e-04,-5.500000000000000331e-04,-1.600000000000000131e-04,-5.099999999999999282e-04,-4.499999999999999877e-04,4.000000000000000327e-05,2.000000000000000000e+00,1.500000000000000000e+01
3.030100000000000000e+04,1.600000000000000131e-04,5.000000000000000240e-05,-2.299999999999999799e-04,-5.500000000000000331e-04,-1.600000000000000131e-04,-5.099999999999999282e-04,-4.499999999999999877e-04,4.000000000000000327e-05,2.000000000000000000e+00,1.500000000000000000e+01
3.030200000000000000e+04,1.600000000000000131e-04,5.000000000000000240e-05,-2.299999999999999799e-04,-5.500000000000000331e-04,-1.600000000000000131e-04,-5.099999999999999282e-04,-4.499999999999999877e-04,4.000000000000000327e-05,2.000000000000000000e+00,1.500000000000000000e+01
3.030300000000000000e+04,1.600000000000000131e-04,5.000000000000000240e-05,-2.299999999999999799e-04,-5.500000000000000331e-04,-1.600000000000000131e-04,-5.099999999999999282e-04,-4.499999999999999877e-04,4.000000000000000327e-05,2.000000000000000000e+00,1.500000000000000000e+01
3.030400000000000000e+04,1.600000000000000131e-04,5.000000000000000240e-05,-2.299999999999999799e-04,-5.500000000000000331e-04,-1.600000000000000131e-04,-5.099999999999999282e-04,-4.499999999999999877e-04,4.000000000000000327e-05,2.000000000000000000e+00,1.500000000000000000e+01
3.030500000000000000e+04,1.600000000000000131e-04,5.000000000000000240e-05,-2.299999999999999799e-04,-5.500000000000000331e-04,-1.600000000000000131e-04,-5.099999999999999282e-04,-4.499999999999999877e-04,4.000000000000000327e-05,2.000000000000000000e+00,1.500000000000000000e+01
3.030600000000000000e+04,1.600000000000000131e-04,5.000000000000000240e-05,-2.299999999999999799e-04,-5.500000000000000331e-04,-1.600000000000000131e-04,-5.099999999999999282e-04,-4.499999999999999877e-04,4.000000000000000327e-05,2.000000000000000000e+00,1.500000000000000000e+01
3.030700000000000000e+04,1.600000000000000131e-04,5.000000000000000240e-05,-2.299999999999999799e-04,-5.500000000000000331e-04,-1.600000000000000131e-04,-5.099999999999999282e-04,-4.499999999999999877e-04,4.000000000000000327e-05,2.000000000000000000e+00,1.500000000000000000e+01
3.030800000000000000e+04,1.600000000000000131e-04,5.000000000000000240e-05,-2.299999999999999799e-04,-5.500000000000000331e-04,-1.600000000000000131e-04,-5.099999999999999282e-04,-4.499999999999999877e-04,4.000000000000000327e-05,2.000000000000000000e+00,1.500000000000000000e+01
3.030900000000000000e+04,1.600000000000000131e-04,5.000000000000000240e-05,-2.299999999999999799e-04,-5.500000000000000331e-04,-1.600000000000000131e-04,-5.099999999999999282e-04,-4.499999999999999877e-04,4.000000000000000327e-05,2.000000000000000000e+00,1.500000000000000000e+01
3.031000000000000000e+04,1.600000000000000131e-04,5.000000000000000240e-05,-2.299999999999999799e-04,-5.500000000000000331e-04,-1.600000000000000131e-04,-5.099999999999999282e-04,-4.499999999999999877e-04,4.000000000000000327e-05,2.000000000000000000e+00,1.500000000000000000e+01
3.031100000000000000e+04,1.600000000000000131e-04,5.000000000000000240e-05,-2.299999999999999799e-04,-5.500000000000000331e-04,-1.600000000000000131e-04,-5.099999999999999282e-04,-4.499999999999999877e-04,4.000000000000000327e-05,2.000000000000000000e+00,1.500000000000000000e+01
3.031200000000000000e+04,1.600000000000000131e-04,5.000000000000000240e-05,-2.299999999999999799e-04,-5.500000000000000331e-04,-1.600000000000000131e-04,-5.099999999999999282e-04,-4.499999999999999877e-04,4.000000000000000327e-05,2.000000000000000000e+00,1.500000000000000000e+01
3.031300000000000000e+04,1.600000000000000131e-04,5.000000000000000240e-05,-2.299999999999999799e-04,-5.500000000000000331e-04,-1.600000000000000131e-04,-5.099999999999999282e-04,-4.499999999999999877e-04,4.000000000000000327e-05,2.000000000000000000e+00,1.500000000000000000e+01
3.031400000000000000e+04,1.600000000000000131e-04,5.000000000000000240e-05,-2.299999999999999799e-04,-5.500000000000000331e-04,-1.600000000000000131e-04,-5.099999999999999282e-04,-4.499999999999999877e-04,4.000000000000000327e-05,2.000000000000000000e+00,1.500000000000000000e+01
3.031500000000000000e+04,1.600000000000000131e-04,5.000000000000000240e-05,-2.299999999999999799e-04,-5.500000000000000331e-04,-1.600000000000000131e-04,-5.099999999999999282e-04,-4.499999999999999877e-04,4.000000000000000327e-05,2.000000000000000000e+00,1.500000000000000000e+01
3.031600000000000000e+04,1.600000000000000131e-04,5.000000000000000240e-05,-2.299999999999999799e-04,-5.500000000000000331e-04,-1.600000000000000131e-04,-5.099999999999999282e-04,-4.499999999999999877e-04,4.000000000000000327e-05,2.000000000000000000e+00,1.500000000000000000e+01
3.031700000000000000e+04,1.600000000000000131e-04,5.000000000000000240e-05,-2.299999999999999799e-04,-5.500000000000000331e-04,-1.600000000000000131e-04,-5.099999999999999282e-04,-4.499999999999999877e-04,4.000000000000000327e-05,2.000000000000000000e+00,1.500000000000000000e+01
3.031800000000000000e+04,1.600000000000000131e-04,5.000000000000000240e-05,-2.299999999999999799e-04,-5.500000000000000331e-04,-1.600000000000000131e-04,-5.099999999999999282e-04,-4.499999999999999877e-04,4.000000000000000327e-05,2.000000000000000000e+00,1.500000000000000000e+01
3.031900000000000000e+04,2.999999999999999737e-05,0.000000000000000000e+00,2.999999999999999737e-04,2.299999999999999799e-04,-5.000000000000000240e-05,-6.799999999999999404e-04,-5.000000000000000240e-05,-5.999999999999999474e-05,2.000000000000000000e+00,1.500000000000000000e+01
3.032000000000000000e+04,-6.999999999999999387e-05,-2.999999999999999737e-05,-1.199999999999999895e-04,-1.699999999999999851e-04,9.000000000000000567e-05,3.499999999999999964e-04,5.599999999999999509e-04,8.000000000000000654e-05,2.000000000000000000e+00,1.500000000000000000e+01
3.032100000000000000e+04,-9.000000000000000567e-05,-1.499999999999999869e-04,-2.000000000000000096e-04,-1.399999999999999877e-04,5.000000000000000104e-04,6.900000000000000751e-04,6.499999999999999702e-04,9.000000000000000567e-05,2.000000000000000000e+00,1.500000000000000000e+01
3.032200000000000000e+04,1.199999999999999895e-04,1.600000000000000131e-04,1.800000000000000113e-04,5.000000000000000240e-05,2.299999999999999799e-04,4.299999999999999894e-04,2.000000000000000096e-04,6.999999999999999387e-05,2.000000000000000000e+00,1.500000000000000000e+01
3.032300000000000000e+04,1.199999999999999895e-04,1.600000000000000131e-04,1.800000000000000113e-04,5.000000000000000240e-05,2.299999999999999799e-04,4.299999999999999894e-04,2.000000000000000096e-04,6.999999999999999387e-05,2.000000000000000000e+00,1.500000000000000000e+01
3.032400000000000000e+04,1.199999999999999895e-04,1.600000000000000131e-04,1.800000000000000113e-04,5.000000000000000240e-05,2.299999999999999799e-04,4.299999999999999894e-04,2.000000000000000096e-04,6.999999999999999387e-05,2.000000000000000000e+00,1.500000000000000000e+01
3.032500000000000000e+04,1.199999999999999895e-04,1.600000000000000131e-04,1.800000000000000113e-04,5.000000000000000240e-05,2.299999999999999799e-04,4.299999999999999894e-04,2.000000000000000096e-04,6.999999999999999387e-05,2.000000000000000000e+00,1.500000000000000000e+01
3.032600000000000000e+04,-2.999999999999999737e-05,-4.000000000000000327e-05,-1.899999999999999834e-04,3.299999999999999982e-04,2.299999999999999799e-04,6.999999999999999387e-05,-2.900000000000000017e-04,-1.300000000000000157e-04,2.000000000000000000e+00,1.500000000000000000e+01
3.032700000000000000e+04,-2.999999999999999737e-05,-4.000000000000000327e-05,-1.899999999999999834e-04,3.299999999999999982e-04,2.299999999999999799e-04,6.999999999999999387e-05,-2.900000000000000017e-04,-1.300000000000000157e-04,2.000000000000000000e+00,1.500000000000000000e+01
3.032800000000000000e+04,-2.999999999999999737e-05,-4.000000000000000327e-05,-1.899999999999999834e-04,3.299999999999999982e-04,2.299999999999999799e-04,6.999999999999999387e-05,-2.900000000000000017e-04,-1.300000000000000157e-04,2.000000000000000000e+00,1.500000000000000000e+01
3.032900000000000000e+04,-2.999999999999999737e-05,-4.000000000000000327e-05,-1.899999999999999834e-04,3.299999999999999982e-04,2.299999999999999799e-04,6.999999999999999387e-05,-2.900000000000000017e-04,-1.300000000000000157e-04,2.000000000000000000e+00,1.500000000000000000e+01
3.033000000000000000e+04,-2.999999999999999737e-05,-4.000000000000000327e-05,-1.899999999999999834e-04,3.299999999999999982e-04,2.299999999999999799e-04,6.999999999999999387e-05,-2.900000000000000017e-04,-1.300000000000000157e-04,2.000000000000000000e+00,1.500000000000000000e+01
3.033100000000000000e+04,-2.999999999999999737e-05,-4.000000000000000327e-05,-1.899999999999999834e-04,3.299999999999999982e-04,2.299999999999999799e-04,6.999999999999999387e-05,-2.900000000000000017e-04,-1.300000000000000157e-04,2.000000000000000000e+00,1.500000000000000000e+01
3.033200000000000000e+04,-2.999999999999999737e-05,-4.000000000000000327e-05,-1.899999999999999834e-04,3.299999999999999982e-04,2.299999999999999799e-04,6.999999999999999387e-05,-2.900000000000000017e-04,-1.300000000000000157e-04,2.000000000000000000e+00,1.500000000000000000e+01
3.033300000000000000e+04,-2.999999999999999737e-05,-4.000000000000000327e-05,-1.899999999999999834e-04,3.299999999999999982e-04,2.299999999999999799e-04,6.999999999999999387e-05,-2.900000000000000017e-04,-1.300000000000000157e-04,2.000000000000000000e+00,1.500000000000000000e+01
3.033400000000000000e+04,-2.999999999999999737e-05,-4.000000000000000327e-05,-1.899999999999999834e-04,3.299999999999999982e-04,2.299999999999999799e-04,6.999999999999999387e-05,-2.900000000000000017e-04,-1.300000000000000157e-04,2.000000000000000000e+00,1.500000000000000000e+01
3.033500000000000000e+04,-2.999999999999999737e-05,-4.000000000000000327e-05,-1.899999999999999834e-04,3.299999999999999982e-04,2.299999999999999799e-04,6.999999999999999387e-05,-2.900000000000000017e-04,-1.300000000000000157e-04,2.000000000000000000e+00,1.500000000000000000e+01
3.033600000000000000e+04,-2.999999999999999737e-05,-4.000000000000000327e-05,-1.899999999999999834e-04,3.299999999999999982e-04,2.299999999999999799e-04,6.999999999999999387e-05,-2.900000000000000017e-04,-1.300000000000000157e-04,2.000000000000000000e+00,1.500000000000000000e+01
3.033800000000000000e+04,-2.999999999999999737e-05,-4.000000000000000327e-05,-1.899999999999999834e-04,3.299999999999999982e-04,2.299999999999999799e-04,6.999999999999999387e-05,-2.900000000000000017e-04,-1.300000000000000157e-04,2.000000000000000000e+00,1.500000000000000000e+01
3.033900000000000000e+04,-2.999999999999999737e-05,-4.000000000000000327e-05,-1.899999999999999834e-04,3.299999999999999982e-04,2.299999999999999799e-04,6.999999999999999387e-05,-2.900000000000000017e-04,-1.300000000000000157e-04,2.000000000000000000e+00,1.500000000000000000e+01
3.034000000000000000e+04,-2.999999999999999737e-05,-4.000000000000000327e-05,-1.899999999999999834e-04,3.299999999999999982e-04,2.299999999999999799e-04,6.999999999999999387e-05,-2.900000000000000017e-04,-1.300000000000000157e-04,2.000000000000000000e+00,1.500000000000000000e+01
3.034100000000000000e+04,-2.999999999999999737e-05,-4.000000000000000327e-05,-1.899999999999999834e-04,3.299999999999999982e-04,2.299999999999999799e-04,6.999999999999999387e-05,-2.900000000000000017e-04,-1.300000000000000157e-04,2.000000000000000000e+00,1.500000000000000000e+01
3.034200000000000000e+04,1.000000000000000082e-05,2.000000000000000164e-05,2.600000000000000314e-04,3.200000000000000262e-04,-1.000000000000000082e-05,-1.100000000000000039e-04,4.099999999999999912e-04,8.000000000000000654e-05,2.000000000000000000e+00,1.500000000000000000e+01
3.034300000000000000e+04,-1.300000000000000157e-04,-1.000000000000000082e-05,1.800000000000000113e-04,-1.600000000000000131e-04,1.399999999999999877e-04,1.899999999999999834e-04,2.999999999999999737e-05,-2.200000000000000078e-04,2.000000000000000000e+00,1.500000000000000000e+01
3.034400000000000000e+04,-1.300000000000000157e-04,-1.000000000000000082e-05,1.800000000000000113e-04,-1.600000000000000131e-04,1.399999999999999877e-04,1.899999999999999834e-04,2.999999999999999737e-05,-2.200000000000000078e-04,2.000000000000000000e+00,1.500000000000000000e+01
3.034500000000000000e+04,-1.300000000000000157e-04,-1.000000000000000082e-05,1.800000000000000113e-04,-1.600000000000000131e-04,1.399999999999999877e-04,1.899999999999999834e-04,2.999999999999999737e-05,-2.200000000000000078e-04,2.000000000000000000e+00,1.500000000000000000e+01
3.034600000000000000e+04,-1.300000000000000157e-04,-1.000000000000000082e-05,1.800000000000000113e-04,-1.600000000000000131e-04,1.399999999999999877e-04,1.899999999999999834e-04,2.999999999999999737e-05,-2.200000000000000078e-04,2.000000000000000000e+00,1.500000000000000000e+01
3.034700000000000000e+04,-1.300000000000000157e-04,-1.000000000000000082e-05,1.800000000000000113e-04,-1.600000000000000131e-04,1.399999999999999877e-04,1.899999999999999834e-04,2.999999999999999737e-05,-2.200000000000000078e-04,2.000000000000000000e+00,1.500000000000000000e+01
3.034800000000000000e+04,-1.300000000000000157e-04,-1.000000000000000082e-05,1.800000000000000113e-04,-1.600000000000000131e-04,1.399999999999999877e-04,1.899999999999999834e-04,2.999999999999999737e-05,-2.200000000000000078e-04,2.000000000000000000e+00,1.500000000000000000e+01
3.034900000000000000e+04,-1.300000000000000157e-04,-1.000000000000000082e-05,1.800000000000000113e-04,-1.600000000000000131e-04,1.399999999999999877e-04,1.899999999999999834e-04,2.999999999999999737e-05,-2.200000000000000078e-04,2.000000000000000000e+00,1.500000000000000000e+01
3.035000000000000000e+04,-1.300000000000000157e-04,-1.000000000000000082e-05,1.800000000000000113e-04,-1.600000000000000131e-04,1.399999999999999877e-04,1.899999999999999834e-04,2.999999999999999737e-05,-2.200000000000000078e-04,2.000000000000000000e+00,1.500000000000000000e+01
3.035100000000000000e+04,-1.300000000000000157e-04,-1.000000000000000082e-05,1.800000000000000113e-04,-1.600000000000000131e-04,1.399999999999999877e-04,1.899999999999999834e-04,2.999999999999999737e-05,-2.200000000000000078e-04,2.000000000000000000e+00,1.500000000000000000e+01
3.035200000000000000e+04,-1.300000000000000157e-04,-1.000000000000000082e-05,1.800000000000000113e-04,-1.600000000000000131e-04,1.399999999999999877e-04,1.899999999999999834e-04,2.999999999999999737e-05,-2.200000000000000078e-04,2.000000000000000000e+00,1.500000000000000000e+01
3.035300000000000000e+04,-1.300000000000000157e-04,-1.000000000000000082e-05,1.800000000000000113e-04,-1.600000000000000131e-04,1.399999999999999877e-04,1.899999999999999834e-04,2.999999999999999737e-05,-2.200000000000000078e-04,2.000000000000000000e+00,1.500000000000000000e+01
3.035400000000000000e+04,-1.600000000000000131e-04,-1.499999999999999869e-04,-1.699999999999999851e-04,5.000000000000000240e-05,-1.699999999999999851e-04,-1.019999999999999856e-03,-7.399999999999999894e-04,-2.000000000000000096e-04,2.000000000000000000e+00,1.500000000000000000e+01
3.035500000000000000e+04,-1.600000000000000131e-04,-1.499999999999999869e-04,-1.699999999999999851e-04,5.000000000000000240e-05,-1.699999999999999851e-04,-1.019999999999999856e-03,-7.399999999999999894e-04,-2.000000000000000096e-04,2.000000000000000000e+00,1.500000000000000000e+01
3.035600000000000000e+04,-1.600000000000000131e-04,-1.499999999999999869e-04,-1.699999999999999851e-04,5.000000000000000240e-05,-1.699999999999999851e-04,-1.019999999999999856e-03,-7.399999999999999894e-04,-2.000000000000000096e-04,2.000000000000000000e+00,1.500000000000000000e+01
3.035700000000000000e+04,-1.600000000000000131e-04,-1.499999999999999869e-04,-1.699999999999999851e-04,5.000000000000000240e-05,-1.699999999999999851e-04,-1.019999999999999856e-03,-7.399999999999999894e-04,-2.000000000000000096e-04,2.000000000000000000e+00,1.500000000000000000e+01
3.035800000000000000e+04,-1.600000000000000131e-04,-1.499999999999999869e-04,-1.699999999999999851e-04,5.000000000000000240e-05,-1.699999999999999851e-04,-1.019999999999999856e-03,-7.399999999999999894e-04,-2.000000000000000096e-04,2.000000000000000000e+00,1.500000000000000000e+01
3.035900000000000000e+04,-1.600000000000000131e-04,-1.499999999999999869e-04,-1.699999999999999851e-04,5.000000000000000240e-05,-1.699999999999999851e-04,-1.019999999999999856e-03,-7.399999999999999894e-04,-2.000000000000000096e-04,2.000000000000000000e+00,1.500000000000000000e+01
3.036000000000000000e+04,-1.600000000000000131e-04,-1.499999999999999869e-04,-1.699999999999999851e-04,5.000000000000000240e-05,-1.699999999999999851e-04,-1.019999999999999856e-03,-7.399999999999999894e-04,-2.000000000000000096e-04,2.000000000000000000e+00,1.500000000000000000e+01
3.036100000000000000e+04,-1.600000000000000131e-04,-1.499999999999999869e-04,-1.699999999999999851e-04,5.000000000000000240e-05,-1.699999999999999851e-04,-1.019999999999999856e-03,-7.399999999999999894e-04,-2.000000000000000096e-04,2.000000000000000000e+00,1.500000000000000000e+01
3.036200000000000000e+04,-1.600000000000000131e-04,-1.499999999999999869e-04,-1.699999999999999851e-04,5.000000000000000240e-05,-1.699999999999999851e-04,-1.019999999999999856e-03,-7.399999999999999894e-04,-2.000000000000000096e-04,2.000000000000000000e+00,1.500000000000000000e+01
3.036300000000000000e+04,-1.600000000000000131e-04,-1.499999999999999869e-04,-1.699999999999999851e-04,5.000000000000000240e-05,-1.699999999999999851e-04,-1.019999999999999856e-03,-7.399999999999999894e-04,-2.000000000000000096e-04,2.000000000000000000e+00,1.500000000000000000e+01
3.036400000000000000e+04,-1.600000000000000131e-04,-1.499999999999999869e-04,-1.699999999999999851e-04,5.000000000000000240e-05,-1.699999999999999851e-04,-1.019999999999999856e-03,-7.399999999999999894e-04,-2.000000000000000096e-04,2.000000000000000000e+00,1.500000000000000000e+01
3.036500000000000000e+04,-1.600000000000000131e-04,-1.499999999999999869e-04,-1.699999999999999851e-04,5.000000000000000240e-05,-1.699999999999999851e-04,-1.019999999999999856e-03,-7.399999999999999894e-04,-2.000000000000000096e-04,2.000000000000000000e+00,1.500000000000000000e+01
3.036600000000000000e+04,-1.600000000000000131e-04,-1.499999999999999869e-04,-1.699999999999999851e-04,5.000000000000000240e-05,-1.699999999999999851e-04,-1.019999999999999856e-03,-7.399999999999999894e-04,-2.000000000000000096e-04,2.000000000000000000e+00,1.500000000000000000e+01
3.036700000000000000e+04,-1.600000000000000131e-04,-1.499999999999999869e-04,-1.699999999999999851e-04,5.000000000000000240e-05,-1.699999999999999851e-04,-1.019999999999999856e-03,-7.399999999999999894e-04,-2.000000000000000096e-04,2.000000000000000000e+00,1.500000000000000000e+01
3.036800000000000000e+04,-1.600000000000000131e-04,-1.499999999999999869e-04,-1.699999999999999851e-04,5.000000000000000240e-05,-1.699999999999999851e-04,-1.019999999999999856e-03,-7.399999999999999894e-04,-2.000000000000000096e-04,2.000000000000000000e+00,1.500000000000000000e+01
3.036900000000000000e+04,-1.600000000000000131e-04,-1.499999999999999869e-04,-1.699999999999999851e-04,5.000000000000000240e-05,-1.699999999999999851e-04,-1.019999999999999856e-03,-7.399999999999999894e-04,-2.000000000000000096e-04,2.000000000000000000e+00,1.500000000000000000e+01
3.037000000000000000e+04,-1.600000000000000131e-04,-1.499999999999999869e-04,-1.699999999999999851e-04,5.000000000000000240e-05,-1.699999999999999851e-04,-1.019999999999999856e-03,-7.399999999999999894e-04,-2.000000000000000096e-04,2.000000000000000000e+00,1.500000000000000000e+01
3.037100000000000000e+04,-5.999999999999999474e-05,5.999999999999999474e-05,1.600000000000000131e-04,0.000000000000000000e+00,-1.000000000000000048e-04,2.000000000000000096e-04,3.699999999999999947e-04,-2.000000000000000164e-05,2.000000000000000000e+00,1.500000000000000000e+01
3.037200000000000000e+04,-5.999999999999999474e-05,5.999999999999999474e-05,1.600000000000000131e-04,0.000000000000000000e+00,-1.000000000000000048e-04,2.000000000000000096e-04,3.699999999999999947e-04,-2.000000000000000164e-05,2.000000000000000000e+00,1.500000000000000000e+01
3.037300000000000000e+04,-5.999999999999999474e-05,5.999999999999999474e-05,1.600000000000000131e-04,0.000000000000000000e+00,-1.000000000000000048e-04,2.000000000000000096e-04,3.699999999999999947e-04,-2.000000000000000164e-05,2.000000000000000000e+00,1.500000000000000000e+01
3.037400000000000000e+04,-5.999999999999999474e-05,5.999999999999999474e-05,1.600000000000000131e-04,0.000000000000000000e+00,-1.000000000000000048e-04,2.000000000000000096e-04,3.699999999999999947e-04,-2.000000000000000164e-05,2.000000000000000000e+00,1.500000000000000000e+01
3.037500000000000000e+04,-5.999999999999999474e-05,5.999999999999999474e-05,1.600000000000000131e-04,0.000000000000000000e+00,-1.000000000000000048e-04,2.000000000000000096e-04,3.699999999999999947e-04,-2.000000000000000164e-05,2.000000000000000000e+00,1.500000000000000000e+01
3.037600000000000000e+04,-5.999999999999999474e-05,5.999999999999999474e-05,1.600000000000000131e-04,0.000000000000000000e+00,-1.000000000000000048e-04,2.000000000000000096e-04,3.699999999999999947e-04,-2.000000000000000164e-05,2.000000000000000000e+00,1.500000000000000000e+01
3.037700000000000000e+04,-5.999999999999999474e-05,5.999999999999999474e-05,1.600000000000000131e-04,0.000000000000000000e+00,-1.000000000000000048e-04,2.000000000000000096e-04,3.699999999999999947e-04,-2.000000000000000164e-05,2.000000000000000000e+00,1.500000000000000000e+01
3.037800000000000000e+04,-1.199999999999999895e-04,-1.100000000000000039e-04,-5.000000000000000240e-05,1.100000000000000039e-04,-1.300000000000000157e-04,-1.600000000000000131e-04,-5.599999999999999509e-04,-2.299999999999999799e-04,2.000000000000000000e+00,1.500000000000000000e+01
3.037900000000000000e+04,-1.199999999999999895e-04,-1.100000000000000039e-04,-5.000000000000000240e-05,1.100000000000000039e-04,-1.300000000000000157e-04,-1.600000000000000131e-04,-5.599999999999999509e-04,-2.299999999999999799e-04,2.000000000000000000e+00,1.500000000000000000e+01
3.038000000000000000e+04,1.100000000000000039e-04,-4.000000000000000327e-05,-9.000000000000000567e-05,2.399999999999999790e-04,-2.200000000000000078e-04,-7.200000000000000453e-04,-2.399999999999999790e-04,-1.100000000000000039e-04,2.000000000000000000e+00,1.500000000000000000e+01
3.038100000000000000e+04,1.100000000000000039e-04,-4.000000000000000327e-05,-9.000000000000000567e-05,2.399999999999999790e-04,-2.200000000000000078e-04,-7.200000000000000453e-04,-2.399999999999999790e-04,-1.100000000000000039e-04,2.000000000000000000e+00,1.500000000000000000e+01
3.038200000000000000e+04,1.100000000000000039e-04,-4.000000000000000327e-05,-9.000000000000000567e-05,2.399999999999999790e-04,-2.200000000000000078e-04,-7.200000000000000453e-04,-2.399999999999999790e-04,-1.100000000000000039e-04,2.000000000000000000e+00,1.500000000000000000e+01
3.038300000000000000e+04,1.100000000000000039e-04,-4.000000000000000327e-05,-9.000000000000000567e-05,2.399999999999999790e-04,-2.200000000000000078e-04,-7.200000000000000453e-04,-2.399999999999999790e-04,-1.100000000000000039e-04,2.000000000000000000e+00,1.500000000000000000e+01
3.038400000000000000e+04,1.100000000000000039e-04,-4.000000000000000327e-05,-9.000000000000000567e-05,2.399999999999999790e-04,-2.200000000000000078e-04,-7.200000000000000453e-04,-2.399999999999999790e-04,-1.100000000000000039e-04,2.000000000000000000e+00,1.500000000000000000e+01
3.038500000000000000e+04,1.100000000000000039e-04,-4.000000000000000327e-05,-9.000000000000000567e-05,2.399999999999999790e-04,-2.200000000000000078e-04,-7.200000000000000453e-04,-2.399999999999999790e-04,-1.100000000000000039e-04,2.000000000000000000e+00,1.500000000000000000e+01
3.038600000000000000e+04,1.100000000000000039e-04,-4.000000000000000327e-05,-9.000000000000000567e-05,2.399999999999999790e-04,-2.200000000000000078e-04,-7.200000000000000453e-04,-2.399999999999999790e-04,-1.100000000000000039e-04,2.000000000000000000e+00,1.500000000000000000e+01
3.038800000000000000e+04,1.100000000000000039e-04,-4.000000000000000327e-05,-9.000000000000000567e-05,2.399999999999999790e-04,-2.200000000000000078e-04,-7.200000000000000453e-04,-2.399999999999999790e-04,-1.100000000000000039e-04,2.000000000000000000e+00,1.500000000000000000e+01
3.038900000000000000e+04,1.100000000000000039e-04,-4.000000000000000327e-05,-9.000000000000000567e-05,2.399999999999999790e-04,-2.200000000000000078e-04,-7.200000000000000453e-04,-2.399999999999999790e-04,-1.100000000000000039e-04,2.000000000000000000e+00,1.500000000000000000e+01
3.039000000000000000e+04,1.100000000000000039e-04,-4.000000000000000327e-05,-9.000000000000000567e-05,2.399999999999999790e-04,-2.200000000000000078e-04,-7.200000000000000453e-04,-2.399999999999999790e-04,-1.100000000000000039e-04,2.000000000000000000e+00,1.500000000000000000e+01
3.039100000000000000e+04,1.100000000000000039e-04,-4.000000000000000327e-05,-9.000000000000000567e-05,2.399999999999999790e-04,-2.200000000000000078e-04,-7.200000000000000453e-04,-2.399999999999999790e-04,-1.100000000000000039e-04,2.000000000000000000e+00,1.500000000000000000e+01
3.039200000000000000e+04,1.100000000000000039e-04,-4.000000000000000327e-05,-9.000000000000000567e-05,2.399999999999999790e-04,-2.200000000000000078e-04,-7.200000000000000453e-04,-2.399999999999999790e-04,-1.100000000000000039e-04,2.000000000000000000e+00,1.500000000000000000e+01
3.039300000000000000e+04,1.100000000000000039e-04,-4.000000000000000327e-05,-9.000000000000000567e-05,2.399999999999999790e-04,-2.200000000000000078e-04,-7.200000000000000453e-04,-2.399999999999999790e-04,-1.100000000000000039e-04,2.000000000000000000e+00,1.500000000000000000e+01
3.039400000000000000e+04,1.100000000000000039e-04,-4.000000000000000327e-05,-9.000000000000000567e-05,2.399999999999999790e-04,-2.200000000000000078e-04,-7.200000000000000453e-04,-2.399999999999999790e-04,-1.100000000000000039e-04,2.000000000000000000e+00,1.500000000000000000e+01
3.039500000000000000e+04,1.100000000000000039e-04,-4.000000000000000327e-05,-9.000000000000000567e-05,2.399999999999999790e-04,-2.200000000000000078e-04,-7.200000000000000453e-04,-2.399999999999999790e-04,-1.100000000000000039e-04,2.000000000000000000e+00,1.500000000000000000e+01
3.039600000000000000e+04,1.100000000000000039e-04,-4.000000000000000327e-05,-9.000000000000000567e-05,2.399999999999999790e-04,-2.200000000000000078e-04,-7.200000000000000453e-04,-2.399999999999999790e-04,-1.100000000000000039e-04,2.000000000000000000e+00,1.500000000000000000e+01
3.039700000000000000e+04,1.100000000000000039e-04,-4.000000000000000327e-05,-9.000000000000000567e-05,2.399999999999999790e-04,-2.200000000000000078e-04,-7.200000000000000453e-04,-2.399999999999999790e-04,-1.100000000000000039e-04,2.000000000000000000e+00,1.500000000000000000e+01
3.039800000000000000e+04,1.100000000000000039e-04,-4.000000000000000327e-05,-9.000000000000000567e-05,2.399999999999999790e-04,-2.200000000000000078e-04,-7.200000000000000453e-04,-2.399999999999999790e-04,-1.100000000000000039e-04,2.000000000000000000e+00,1.500000000000000000e+01
3.039900000000000000e+04,1.100000000000000039e-04,-4.000000000000000327e-05,-9.000000000000000567e-05,2.399999999999999790e-04,-2.200000000000000078e-04,-7.200000000000000453e-04,-2.399999999999999790e-04,-1.100000000000000039e-04,2.000000000000000000e+00,1.500000000000000000e+01
3.040000000000000000e+04,1.100000000000000039e-04,-4.000000000000000327e-05,-9.000000000000000567e-05,2.399999999999999790e-04,-2.200000000000000078e-04,-7.200000000000000453e-04,-2.399999999999999790e-04,-1.100000000000000039e-04,2.000000000000000000e+00,1.500000000000000000e+01
3.040100000000000000e+04,-2.000000000000000164e-05,-4.000000000000000327e-05,-1.300000000000000157e-04,2.399999999999999790e-04,1.600000000000000131e-04,3.399999999999999702e-04,2.799999999999999755e-04,1.000000000000000082e-05,2.000000000000000000e+00,1.500000000000000000e+01
3.040200000000000000e+04,-1.000000000000000082e-05,-6.999999999999999387e-05,-1.000000000000000048e-04,4.899999999999999842e-04,1.499999999999999869e-04,5.900000000000000296e-04,2.999999999999999737e-04,4.000000000000000327e-05,2.000000000000000000e+00,1.500000000000000000e+01
3.040300000000000000e+04,-1.000000000000000082e-05,-6.999999999999999387e-05,-1.000000000000000048e-04,4.899999999999999842e-04,1.499999999999999869e-04,5.900000000000000296e-04,2.999999999999999737e-04,4.000000000000000327e-05,2.000000000000000000e+00,1.500000000000000000e+01
3.040400000000000000e+04,-1.000000000000000082e-05,-6.999999999999999387e-05,-1.000000000000000048e-04,4.899999999999999842e-04,1.499999999999999869e-04,5.900000000000000296e-04,2.999999999999999737e-04,4.000000000000000327e-05,2.000000000000000000e+00,1.500000000000000000e+01
3.040500000000000000e+04,-1.000000000000000082e-05,-6.999999999999999387e-05,-1.000000000000000048e-04,4.899999999999999842e-04,1.499999999999999869e-04,5.900000000000000296e-04,2.999999999999999737e-04,4.000000000000000327e-05,2.000000000000000000e+00,1.500000000000000000e+01
3.040600000000000000e+04,-1.000000000000000082e-05,-6.999999999999999387e-05,-1.000000000000000048e-04,4.899999999999999842e-04,1.499999999999999869e-04,5.900000000000000296e-04,2.999999999999999737e-04,4.000000000000000327e-05,2.000000000000000000e+00,1.500000000000000000e+01
3.040700000000000000e+04,-1.000000000000000082e-05,-6.999999999999999387e-05,-1.000000000000000048e-04,4.899999999999999842e-04,1.499999999999999869e-04,5.900000000000000296e-04,2.999999999999999737e-04,4.000000000000000327e-05,2.000000000000000000e+00,1.500000000000000000e+01
3.040800000000000000e+04,-1.000000000000000082e-05,-6.999999999999999387e-05,-1.000000000000000048e-04,4.899999999999999842e-04,1.499999999999999869e-04,5.900000000000000296e-04,2.999999999999999737e-04,4.000000000000000327e-05,2.000000000000000000e+00,1.500000000000000000e+01
3.040900000000000000e+04,-1.000000000000000082e-05,-6.999999999999999387e-05,-1.000000000000000048e-04,4.899999999999999842e-04,1.499999999999999869e-04,5.900000000000000296e-04,2.999999999999999737e-04,4.000000000000000327e-05,2.000000000000000000e+00,1.500000000000000000e+01
3.041000000000000000e+04,-1.000000000000000082e-05,-6.999999999999999387e-05,-1.000000000000000048e-04,4.899999999999999842e-04,1.499999999999999869e-04,5.900000000000000296e-04,2.999999999999999737e-04,4.000000000000000327e-05,2.000000000000000000e+00,1.500000000000000000e+01
3.041100000000000000e+04,-1.000000000000000082e-05,-6.999999999999999387e-05,-1.000000000000000048e-04,4.899999999999999842e-04,1.499999999999999869e-04,5.900000000000000296e-04,2.999999999999999737e-04,4.000000000000000327e-05,2.000000000000000000e+00,1.500000000000000000e+01
3.041200000000000000e+04,-1.000000000000000082e-05,-6.999999999999999387e-05,-1.000000000000000048e-04,4.899999999999999842e-04,1.499999999999999869e-04,5.900000000000000296e-04,2.999999999999999737e-04,4.000000000000000327e-05,2.000000000000000000e+00,1.500000000000000000e+01
3.041300000000000000e+04,-1.000000000000000082e-05,-6.999999999999999387e-05,-1.000000000000000048e-04,4.899999999999999842e-04,1.499999999999999869e-04,5.900000000000000296e-04,2.999999999999999737e-04,4.000000000000000327e-05,2.000000000000000000e+00,1.500000000000000000e+01
3.041400000000000000e+04,-1.000000000000000082e-05,-6.999999999999999387e-05,-1.000000000000000048e-04,4.899999999999999842e-04,1.499999999999999869e-04,5.900000000000000296e-04,2.999999999999999737e-04,4.000000000000000327e-05,2.000000000000000000e+00,1.500000000000000000e+01
3.041500000000000000e+04,-1.000000000000000082e-05,-6.999999999999999387e-05,-1.000000000000000048e-04,4.899999999999999842e-04,1.499999999999999869e-04,5.900000000000000296e-04,2.999999999999999737e-04,4.000000000000000327e-05,2.000000000000000000e+00,1.500000000000000000e+01
3.041600000000000000e+04,-1.000000000000000082e-05,-6.999999999999999387e-05,-1.000000000000000048e-04,4.899999999999999842e-04,1.499999999999999869e-04,5.900000000000000296e-04,2.999999999999999737e-04,4.000000000000000327e-05,2.000000000000000000e+00,1.500000000000000000e+01
3.041700000000000000e+04,-1.000000000000000082e-05,-6.999999999999999387e-05,-1.000000000000000048e-04,4.899999999999999842e-04,1.499999999999999869e-04,5.900000000000000296e-04,2.999999999999999737e-04,4.000000000000000327e-05,2.000000000000000000e+00,1.500000000000000000e+01
3.041800000000000000e+04,-1.000000000000000082e-05,-6.999999999999999387e-05,-1.000000000000000048e-04,4.899999999999999842e-04,1.499999999999999869e-04,5.900000000000000296e-04,2.999999999999999737e-04,4.000000000000000327e-05,2.000000000000000000e+00,1.500000000000000000e+01
3.041900000000000000e+04,-1.000000000000000082e-05,-6.999999999999999387e-05,-1.000000000000000048e-04,4.899999999999999842e-04,1.499999999999999869e-04,5.900000000000000296e-04,2.999999999999999737e-04,4.000000000000000327e-05,2.000000000000000000e+00,1.500000000000000000e+01
3.042000000000000000e+04,-1.000000000000000082e-05,-6.999999999999999387e-05,-1.000000000000000048e-04,4.899999999999999842e-04,1.499999999999999869e-04,5.900000000000000296e-04,2.999999999999999737e-04,4.000000000000000327e-05,2.000000000000000000e+00,1.500000000000000000e+01
3.042100000000000000e+04,-1.000000000000000082e-05,-6.999999999999999387e-05,-1.000000000000000048e-04,4.899999999999999842e-04,1.499999999999999869e-04,5.900000000000000296e-04,2.999999999999999737e-04,4.000000000000000327e-05,2.000000000000000000e+00,1.500000000000000000e+01
3.042200000000000000e+04,-1.000000000000000082e-05,-6.999999999999999387e-05,-1.000000000000000048e-04,4.899999999999999842e-04,1.499999999999999869e-04,5.900000000000000296e-04,2.999999999999999737e-04,4.000000000000000327e-05,2.000000000000000000e+00,1.500000000000000000e+01
3.042300000000000000e+04,-8.000000000000000654e-05,-1.199999999999999895e-04,-1.000000000000000048e-04,1.300000000000000157e-04,0.000000000000000000e+00,8.000000000000000654e-05,9.000000000000000567e-05,5.999999999999999474e-05,2.000000000000000000e+00,1.500000000000000000e+01
3.042400000000000000e+04,-8.000000000000000654e-05,-1.199999999999999895e-04,-1.000000000000000048e-04,1.300000000000000157e-04,0.000000000000000000e+00,8.000000000000000654e-05,9.000000000000000567e-05,5.999999999999999474e-05,2.000000000000000000e+00,1.500000000000000000e+01
3.042500000000000000e+04,1.000000000000000082e-05,-8.000000000000000654e-05,-2.000000000000000096e-04,-6.199999999999999999e-04,9.000000000000000567e-05,-3.799999999999999667e-04,-3.499999999999999964e-04,-1.699999999999999851e-04,2.000000000000000000e+00,1.500000000000000000e+01
3.042600000000000000e+04,-5.000000000000000240e-05,5.000000000000000240e-05,1.100000000000000039e-04,2.900000000000000017e-04,8.000000000000000654e-05,-2.100000000000000087e-04,4.599999999999999597e-04,1.399999999999999877e-04,2.000000000000000000e+00,1.500000000000000000e+01
3.042700000000000000e+04,-5.000000000000000240e-05,5.000000000000000240e-05,1.100000000000000039e-04,2.900000000000000017e-04,8.000000000000000654e-05,-2.100000000000000087e-04,4.599999999999999597e-04,1.399999999999999877e-04,2.000000000000000000e+00,1.500000000000000000e+01
3.042800000000000000e+04,-5.000000000000000240e-05,5.000000000000000240e-05,1.100000000000000039e-04,2.900000000000000017e-04,8.000000000000000654e-05,-2.100000000000000087e-04,4.599999999999999597e-04,1.399999999999999877e-04,2.000000000000000000e+00,1.500000000000000000e+01
3.042900000000000000e+04,-5.000000000000000240e-05,5.000000000000000240e-05,1.100000000000000039e-04,2.900000000000000017e-04,8.000000000000000654e-05,-2.100000000000000087e-04,4.599999999999999597e-04,1.399999999999999877e-04,2.000000000000000000e+00,1.500000000000000000e+01
3.043000000000000000e+04,-5.000000000000000240e-05,5.000000000000000240e-05,1.100000000000000039e-04,2.900000000000000017e-04,8.000000000000000654e-05,-2.100000000000000087e-04,4.599999999999999597e-04,1.399999999999999877e-04,2.000000000000000000e+00,1.500000000000000000e+01
3.043100000000000000e+04,-5.000000000000000240e-05,5.000000000000000240e-05,1.100000000000000039e-04,2.900000000000000017e-04,8.000000000000000654e-05,-2.100000000000000087e-04,4.599999999999999597e-04,1.399999999999999877e-04,2.000000000000000000e+00,1.500000000000000000e+01
3.043200000000000000e+04,-5.000000000000000240e-05,5.000000000000000240e-05,1.100000000000000039e-04,2.900000000000000017e-04,8.000000000000000654e-05,-2.100000000000000087e-04,4.599999999999999597e-04,1.399999999999999877e-04,2.000000000000000000e+00,1.500000000000000000e+01
3.043300000000000000e+04,-5.000000000000000240e-05,5.000000000000000240e-05,1.100000000000000039e-04,2.900000000000000017e-04,8.000000000000000654e-05,-2.100000000000000087e-04,4.599999999999999597e-04,1.399999999999999877e-04,2.000000000000000000e+00,1.500000000000000000e+01
3.043400000000000000e+04,-5.000000000000000240e-05,5.000000000000000240e-05,1.100000000000000039e-04,2.900000000000000017e-04,8.000000000000000654e-05,-2.100000000000000087e-04,4.599999999999999597e-04,1.399999999999999877e-04,2.000000000000000000e+00,1.500000000000000000e+01
3.043500000000000000e+04,-5.000000000000000240e-05,5.000000000000000240e-05,1.100000000000000039e-04,2.900000000000000017e-04,8.000000000000000654e-05,-2.100000000000000087e-04,4.599999999999999597e-04,1.399999999999999877e-04,2.000000000000000000e+00,1.500000000000000000e+01
3.043600000000000000e+04,-5.000000000000000240e-05,5.000000000000000240e-05,1.100000000000000039e-04,2.900000000000000017e-04,8.000000000000000654e-05,-2.100000000000000087e-04,4.599999999999999597e-04,1.399999999999999877e-04,2.000000000000000000e+00,1.500000000000000000e+01
3.043800000000000000e+04,-1.499999999999999869e-04,-2.000000000000000164e-05,3.399999999999999702e-04,4.099999999999999912e-04,-2.200000000000000078e-04,-4.200000000000000174e-04,8.000000000000000654e-05,-1.399999999999999877e-04,2.000000000000000000e+00,1.500000000000000000e+01
3.043900000000000000e+04,-1.499999999999999869e-04,-2.000000000000000164e-05,3.399999999999999702e-04,4.099999999999999912e-04,-2.200000000000000078e-04,-4.200000000000000174e-04,8.000000000000000654e-05,-1.399999999999999877e-04,2.000000000000000000e+00,1.500000000000000000e+01
3.044000000000000000e+04,-1.100000000000000039e-04,-4.000000000000000327e-05,5.999999999999999474e-05,-4.700000000000000401e-04,-9.000000000000000567e-05,3.299999999999999982e-04,-2.200000000000000078e-04,-1.499999999999999869e-04,2.000000000000000000e+00,1.500000000000000000e+01
3.044100000000000000e+04,-1.100000000000000039e-04,-4.000000000000000327e-05,5.999999999999999474e-05,-4.700000000000000401e-04,-9.000000000000000567e-05,3.299999999999999982e-04,-2.200000000000000078e-04,-1.499999999999999869e-04,2.000000000000000000e+00,1.500000000000000000e+01
3.044200000000000000e+04,-1.100000000000000039e-04,-4.000000000000000327e-05,5.999999999999999474e-05,-4.700000000000000401e-04,-9.000000000000000567e-05,3.299999999999999982e-04,-2.200000000000000078e-04,-1.499999999999999869e-04,2.000000000000000000e+00,1.500000000000000000e+01
3.044300000000000000e+04,-1.100000000000000039e-04,-4.000000000000000327e-05,5.999999999999999474e-05,-4.700000000000000401e-04,-9.000000000000000567e-05,3.299999999999999982e-04,-2.200000000000000078e-04,-1.499999999999999869e-04,2.000000000000000000e+00,1.500000000000000000e+01
3.044400000000000000e+04,-1.100000000000000039e-04,-4.000000000000000327e-05,5.999999999999999474e-05,-4.700000000000000401e-04,-9.000000000000000567e-05,3.299999999999999982e-04,-2.200000000000000078e-04,-1.499999999999999869e-04,2.000000000000000000e+00,1.500000000000000000e+01
3.044500000000000000e+04,-1.100000000000000039e-04,-4.000000000000000327e-05,5.999999999999999474e-05,-4.700000000000000401e-04,-9.000000000000000567e-05,3.299999999999999982e-04,-2.200000000000000078e-04,-1.499999999999999869e-04,2.000000000000000000e+00,1.500000000000000000e+01
3.044600000000000000e+04,-1.100000000000000039e-04,-4.000000000000000327e-05,5.999999999999999474e-05,-4.700000000000000401e-04,-9.000000000000000567e-05,3.299999999999999982e-04,-2.200000000000000078e-04,-1.499999999999999869e-04,2.000000000000000000e+00,1.500000000000000000e+01
3.044700000000000000e+04,-1.100000000000000039e-04,-4.000000000000000327e-05,5.999999999999999474e-05,-4.700000000000000401e-04,-9.000000000000000567e-05,3.299999999999999982e-04,-2.200000000000000078e-04,-1.499999999999999869e-04,2.000000000000000000e+00,1.500000000000000000e+01
3.044800000000000000e+04,-1.100000000000000039e-04,-4.000000000000000327e-05,5.999999999999999474e-05,-4.700000000000000401e-04,-9.000000000000000567e-05,3.299999999999999982e-04,-2.200000000000000078e-04,-1.499999999999999869e-04,2.000000000000000000e+00,1.500000000000000000e+01
3.044900000000000000e+04,-1.100000000000000039e-04,-4.000000000000000327e-05,5.999999999999999474e-05,-4.700000000000000401e-04,-9.000000000000000567e-05,3.299999999999999982e-04,-2.200000000000000078e-04,-1.499999999999999869e-04,2.000000000000000000e+00,1.500000000000000000e+01
3.045000000000000000e+04,-1.100000000000000039e-04,-4.000000000000000327e-05,5.999999999999999474e-05,-4.700000000000000401e-04,-9.000000000000000567e-05,3.299999999999999982e-04,-2.200000000000000078e-04,-1.499999999999999869e-04,2.000000000000000000e+00,1.500000000000000000e+01
3.045100000000000000e+04,-1.100000000000000039e-04,-4.000000000000000327e-05,5.999999999999999474e-05,-4.700000000000000401e-04,-9.000000000000000567e-05,3.299999999999999982e-04,-2.200000000000000078e-04,-1.499999999999999869e-04,2.000000000000000000e+00,1.500000000000000000e+01
3.045200000000000000e+04,-1.100000000000000039e-04,-4.000000000000000327e-05,5.999999999999999474e-05,-4.700000000000000401e-04,-9.000000000000000567e-05,3.299999999999999982e-04,-2.200000000000000078e-04,-1.499999999999999869e-04,2.000000000000000000e+00,1.500000000000000000e+01
3.045300000000000000e+04,-1.100000000000000039e-04,-4.000000000000000327e-05,5.999999999999999474e-05,-4.700000000000000401e-04,-9.000000000000000567e-05,3.299999999999999982e-04,-2.200000000000000078e-04,-1.499999999999999869e-04,2.000000000000000000e+00,1.500000000000000000e+01
3.045400000000000000e+04,-1.100000000000000039e-04,-4.000000000000000327e-05,5.999999999999999474e-05,-4.700000000000000401e-04,-9.000000000000000567e-05,3.299999999999999982e-04,-2.200000000000000078e-04,-1.499999999999999869e-04,2.000000000000000000e+00,1.500000000000000000e+01
3.045500000000000000e+04,-1.100000000000000039e-04,-4.000000000000000327e-05,5.999999999999999474e-05,-4.700000000000000401e-04,-9.000000000000000567e-05,3.299999999999999982e-04,-2.200000000000000078e-04,-1.499999999999999869e-04,2.000000000000000000e+00,1.500000000000000000e+01
3.045600000000000000e+04,-1.100000000000000039e-04,-4.000000000000000327e-05,5.999999999999999474e-05,-4.700000000000000401e-04,-9.000000000000000567e-05,3.299999999999999982e-04,-2.200000000000000078e-04,-1.499999999999999869e-04,2.000000000000000000e+00,1.500000000000000000e+01
3.045700000000000000e+04,-1.100000000000000039e-04,-4.000000000000000327e-05,5.999999999999999474e-05,-4.700000000000000401e-04,-9.000000000000000567e-05,3.299999999999999982e-04,-2.200000000000000078e-04,-1.499999999999999869e-04,2.000000000000000000e+00,1.500000000000000000e+01
3.045800000000000000e+04,-1.100000000000000039e-04,-4.000000000000000327e-05,5.999999999999999474e-05,-4.700000000000000401e-04,-9.000000000000000567e-05,3.299999999999999982e-04,-2.200000000000000078e-04,-1.499999999999999869e-04,2.000000000000000000e+00,1.500000000000000000e+01
3.045900000000000000e+04,-1.100000000000000039e-04,-4.000000000000000327e-05,5.999999999999999474e-05,-4.700000000000000401e-04,-9.000000000000000567e-05,3.299999999999999982e-04,-2.200000000000000078e-04,-1.499999999999999869e-04,2.000000000000000000e+00,1.500000000000000000e+01
3.046000000000000000e+04,-1.100000000000000039e-04,-4.000000000000000327e-05,5.999999999999999474e-05,-4.700000000000000401e-04,-9.000000000000000567e-05,3.299999999999999982e-04,-2.200000000000000078e-04,-1.499999999999999869e-04,2.000000000000000000e+00,1.500000000000000000e+01
3.046100000000000000e+04,1.100000000000000039e-04,1.300000000000000157e-04,2.399999999999999790e-04,-2.000000000000000164e-05,2.000000000000000164e-05,5.599999999999999509e-04,5.000000000000000104e-04,8.000000000000000654e-05,2.000000000000000000e+00,1.500000000000000000e+01
3.046200000000000000e+04,1.600000000000000131e-04,4.000000000000000327e-05,-2.500000000000000052e-04,-6.799999999999999404e-04,-1.699999999999999851e-04,-3.799999999999999667e-04,2.999999999999999737e-05,4.200000000000000174e-04,2.000000000000000000e+00,1.500000000000000000e+01
3.046300000000000000e+04,1.600000000000000131e-04,4.000000000000000327e-05,-2.500000000000000052e-04,-6.799999999999999404e-04,-1.699999999999999851e-04,-3.799999999999999667e-04,2.999999999999999737e-05,4.200000000000000174e-04,2.000000000000000000e+00,1.500000000000000000e+01
3.046400000000000000e+04,1.600000000000000131e-04,4.000000000000000327e-05,-2.500000000000000052e-04,-6.799999999999999404e-04,-1.699999999999999851e-04,-3.799999999999999667e-04,2.999999999999999737e-05,4.200000000000000174e-04,2.000000000000000000e+00,1.500000000000000000e+01
3.046500000000000000e+04,1.600000000000000131e-04,4.000000000000000327e-05,-2.500000000000000052e-04,-6.799999999999999404e-04,-1.699999999999999851e-04,-3.799999999999999667e-04,2.999999999999999737e-05,4.200000000000000174e-04,2.000000000000000000e+00,1.500000000000000000e+01
3.046600000000000000e+04,1.600000000000000131e-04,4.000000000000000327e-05,-2.500000000000000052e-04,-6.799999999999999404e-04,-1.699999999999999851e-04,-3.799999999999999667e-04,2.999999999999999737e-05,4.200000000000000174e-04,2.000000000000000000e+00,1.500000000000000000e+01
3.046700000000000000e+04,1.600000000000000131e-04,4.000000000000000327e-05,-2.500000000000000052e-04,-6.799999999999999404e-04,-1.699999999999999851e-04,-3.799999999999999667e-04,2.999999999999999737e-05,4.200000000000000174e-04,2.000000000000000000e+00,1.500000000000000000e+01
3.046800000000000000e+04,1.600000000000000131e-04,4.000000000000000327e-05,-2.500000000000000052e-04,-6.799999999999999404e-04,-1.699999999999999851e-04,-3.799999999999999667e-04,2.999999999999999737e-05,4.200000000000000174e-04,2.000000000000000000e+00,1.500000000000000000e+01
3.046900000000000000e+04,1.600000000000000131e-04,4.000000000000000327e-05,-2.500000000000000052e-04,-6.799999999999999404e-04,-1.699999999999999851e-04,-3.799999999999999667e-04,2.999999999999999737e-05,4.200000000000000174e-04,2.000000000000000000e+00,1.500000000000000000e+01
3.047000000000000000e+04,1.600000000000000131e-04,4.000000000000000327e-05,-2.500000000000000052e-04,-6.799999999999999404e-04,-1.699999999999999851e-04,-3.799999999999999667e-04,2.999999999999999737e-05,4.200000000000000174e-04,2.000000000000000000e+00,1.500000000000000000e+01
3.047100000000000000e+04,1.600000000000000131e-04,4.000000000000000327e-05,-2.500000000000000052e-04,-6.799999999999999404e-04,-1.699999999999999851e-04,-3.799999999999999667e-04,2.999999999999999737e-05,4.200000000000000174e-04,2.000000000000000000e+00,1.500000000000000000e+01
3.047200000000000000e+04,1.600000000000000131e-04,4.000000000000000327e-05,-2.500000000000000052e-04,-6.799999999999999404e-04,-1.699999999999999851e-04,-3.799999999999999667e-04,2.999999999999999737e-05,4.200000000000000174e-04,2.000000000000000000e+00,1.500000000000000000e+01
3.047300000000000000e+04,1.600000000000000131e-04,4.000000000000000327e-05,-2.500000000000000052e-04,-6.799999999999999404e-04,-1.699999999999999851e-04,-3.799999999999999667e-04,2.999999999999999737e-05,4.200000000000000174e-04,2.000000000000000000e+00,1.500000000000000000e+01
3.047400000000000000e+04,1.600000000000000131e-04,4.000000000000000327e-05,-2.500000000000000052e-04,-6.799999999999999404e-04,-1.699999999999999851e-04,-3.799999999999999667e-04,2.999999999999999737e-05,4.200000000000000174e-04,2.000000000000000000e+00,1.500000000000000000e+01
3.047500000000000000e+04,1.600000000000000131e-04,4.000000000000000327e-05,-2.500000000000000052e-04,-6.799999999999999404e-04,-1.699999999999999851e-04,-3.799999999999999667e-04,2.999999999999999737e-05,4.200000000000000174e-04,2.000000000000000000e+00,1.500000000000000000e+01
3.047600000000000000e+04,1.600000000000000131e-04,4.000000000000000327e-05,-2.500000000000000052e-04,-6.799999999999999404e-04,-1.699999999999999851e-04,-3.799999999999999667e-04,2.999999999999999737e-05,4.200000000000000174e-04,2.000000000000000000e+00,1.500000000000000000e+01
3.047700000000000000e+04,1.600000000000000131e-04,4.000000000000000327e-05,-2.500000000000000052e-04,-6.799999999999999404e-04,-1.699999999999999851e-04,-3.799999999999999667e-04,2.999999999999999737e-05,4.200000000000000174e-04,2.000000000000000000e+00,1.500000000000000000e+01
3.047800000000000000e+04,1.600000000000000131e-04,4.000000000000000327e-05,-2.500000000000000052e-04,-6.799999999999999404e-04,-1.699999999999999851e-04,-3.799999999999999667e-04,2.999999999999999737e-05,4.200000000000000174e-04,2.000000000000000000e+00,1.500000000000000000e+01
3.047900000000000000e+04,1.600000000000000131e-04,4.000000000000000327e-05,-2.500000000000000052e-04,-6.799999999999999404e-04,-1.699999999999999851e-04,-3.799999999999999667e-04,2.999999999999999737e-05,4.200000000000000174e-04,2.000000000000000000e+00,1.500000000000000000e+01
3.048000000000000000e+04,1.600000000000000131e-04,4.000000000000000327e-05,-2.500000000000000052e-04,-6.799999999999999404e-04,-1.699999999999999851e-04,-3.799999999999999667e-04,2.999999999999999737e-05,4.200000000000000174e-04,2.000000000000000000e+00,1.500000000000000000e+01
3.048100000000000000e+04,1.600000000000000131e-04,4.000000000000000327e-05,-2.500000000000000052e-04,-6.799999999999999404e-04,-1.699999999999999851e-04,-3.799999999999999667e-04,2.999999999999999737e-05,4.200000000000000174e-04,2.000000000000000000e+00,1.500000000000000000e+01
3.048200000000000000e+04,1.600000000000000131e-04,4.000000000000000327e-05,-2.500000000000000052e-04,-6.799999999999999404e-04,-1.699999999999999851e-04,-3.799999999999999667e-04,2.999999999999999737e-05,4.200000000000000174e-04,2.000000000000000000e+00,1.500000000000000000e+01
3.048300000000000000e+04,2.999999999999999737e-05,-4.000000000000000327e-05,-3.099999999999999999e-04,-5.999999999999999474e-05,1.600000000000000131e-04,-2.799999999999999755e-04,1.100000000000000039e-04,4.000000000000000327e-05,2.000000000000000000e+00,1.500000000000000000e+01
3.048400000000000000e+04,2.999999999999999737e-05,-4.000000000000000327e-05,-3.099999999999999999e-04,-5.999999999999999474e-05,1.600000000000000131e-04,-2.799999999999999755e-04,1.100000000000000039e-04,4.000000000000000327e-05,2.000000000000000000e+00,1.500000000000000000e+01
3.048500000000000000e+04,-1.699999999999999851e-04,-2.399999999999999790e-04,-2.900000000000000017e-04,2.900000000000000017e-04,5.000000000000000240e-05,5.400000000000000069e-04,1.199999999999999895e-04,0.000000000000000000e+00,2.000000000000000000e+00,1.500000000000000000e+01
3.048600000000000000e+04,-1.699999999999999851e-04,-2.399999999999999790e-04,-2.900000000000000017e-04,2.900000000000000017e-04,5.000000000000000240e-05,5.400000000000000069e-04,1.199999999999999895e-04,0.000000000000000000e+00,2.000000000000000000e+00,1.500000000000000000e+01
3.048800000000000000e+04,-1.699999999999999851e-04,-2.399999999999999790e-04,-2.900000000000000017e-04,2.900000000000000017e-04,5.000000000000000240e-05,5.400000000000000069e-04,1.199999999999999895e-04,0.000000000000000000e+00,2.000000000000000000e+00,1.500000000000000000e+01
3.048900000000000000e+04,-1.699999999999999851e-04,-2.399999999999999790e-04,-2.900000000000000017e-04,2.900000000000000017e-04,5.000000000000000240e-05,5.400000000000000069e-04,1.199999999999999895e-04,0.000000000000000000e+00,2.000000000000000000e+00,1.500000000000000000e+01
3.049000000000000000e+04,-1.699999999999999851e-04,-2.399999999999999790e-04,-2.900000000000000017e-04,2.900000000000000017e-04,5.000000000000000240e-05,5.400000000000000069e-04,1.199999999999999895e-04,0.000000000000000000e+00,2.000000000000000000e+00,1.500000000000000000e+01
3.049100000000000000e+04,-1.699999999999999851e-04,-2.399999999999999790e-04,-2.900000000000000017e-04,2.900000000000000017e-04,5.000000000000000240e-05,5.400000000000000069e-04,1.199999999999999895e-04,0.000000000000000000e+00,2.000000000000000000e+00,1.500000000000000000e+01
3.049200000000000000e+04,-1.699999999999999851e-04,-2.399999999999999790e-04,-2.900000000000000017e-04,2.900000000000000017e-04,5.000000000000000240e-05,5.400000000000000069e-04,1.199999999999999895e-04,0.000000000000000000e+00,2.000000000000000000e+00,1.500000000000000000e+01
3.049300000000000000e+04,-1.699999999999999851e-04,-2.399999999999999790e-04,-2.900000000000000017e-04,2.900000000000000017e-04,5.000000000000000240e-05,5.400000000000000069e-04,1.199999999999999895e-04,0.000000000000000000e+00,2.000000000000000000e+00,1.500000000000000000e+01
3.049400000000000000e+04,-1.699999999999999851e-04,-2.399999999999999790e-04,-2.900000000000000017e-04,2.900000000000000017e-04,5.000000000000000240e-05,5.400000000000000069e-04,1.199999999999999895e-04,0.000000000000000000e+00,2.000000000000000000e+00,1.500000000000000000e+01
3.049500000000000000e+04,-1.699999999999999851e-04,-2.399999999999999790e-04,-2.900000000000000017e-04,2.900000000000000017e-04,5.000000000000000240e-05,5.400000000000000069e-04,1.199999999999999895e-04,0.000000000000000000e+00,2.000000000000000000e+00,1.500000000000000000e+01
3.049600000000000000e+04,-1.699999999999999851e-04,-2.399999999999999790e-04,-2.900000000000000017e-04,2.900000000000000017e-04,5.000000000000000240e-05,5.400000000000000069e-04,1.199999999999999895e-04,0.000000000000000000e+00,2.000000000000000000e+00,1.500000000000000000e+01
3.049700000000000000e+04,-1.699999999999999851e-04,-2.399999999999999790e-04,-2.900000000000000017e-04,2.900000000000000017e-04,5.000000000000000240e-05,5.400000000000000069e-04,1.199999999999999895e-04,0.000000000000000000e+00,2.000000000000000000e+00,1.500000000000000000e+01
3.049800000000000000e+04,1.100000000000000039e-04,1.000000000000000048e-04,6.999999999999999387e-05,1.000000000000000048e-04,2.000000000000000164e-05,-3.299999999999999982e-04,-2.999999999999999737e-04,3.099999999999999999e-04,2.000000000000000000e+00,1.500000000000000000e+01
3.049900000000000000e+04,1.100000000000000039e-04,1.000000000000000048e-04,6.999999999999999387e-05,1.000000000000000048e-04,2.000000000000000164e-05,-3.299999999999999982e-04,-2.999999999999999737e-04,3.099999999999999999e-04,2.000000000000000000e+00,1.500000000000000000e+01
3.050000000000000000e+04,4.000000000000000327e-05,-5.999999999999999474e-05,-3.299999999999999982e-04,-2.700000000000000035e-04,2.399999999999999790e-04,0.000000000000000000e+00,-2.000000000000000096e-04,1.000000000000000082e-05,2.000000000000000000e+00,1.500000000000000000e+01
3.050100000000000000e+04,4.000000000000000327e-05,-5.999999999999999474e-05,-3.299999999999999982e-04,-2.700000000000000035e-04,2.399999999999999790e-04,0.000000000000000000e+00,-2.000000000000000096e-04,1.000000000000000082e-05,2.000000000000000000e+00,1.500000000000000000e+01
3.050200000000000000e+04,4.000000000000000327e-05,-5.999999999999999474e-05,-3.299999999999999982e-04,-2.700000000000000035e-04,2.399999999999999790e-04,0.000000000000000000e+00,-2.000000000000000096e-04,1.000000000000000082e-05,2.000000000000000000e+00,1.500000000000000000e+01
3.050300000000000000e+04,4.000000000000000327e-05,-5.999999999999999474e-05,-3.299999999999999982e-04,-2.700000000000000035e-04,2.399999999999999790e-04,0.000000000000000000e+00,-2.000000000000000096e-04,1.000000000000000082e-05,2.000000000000000000e+00,1.500000000000000000e+01
3.050400000000000000e+04,4.000000000000000327e-05,-5.999999999999999474e-05,-3.299999999999999982e-04,-2.700000000000000035e-04,2.399999999999999790e-04,0.000000000000000000e+00,-2.000000000000000096e-04,1.000000000000000082e-05,2.000000000000000000e+00,1.500000000000000000e+01
3.050500000000000000e+04,4.000000000000000327e-05,-5.999999999999999474e-05,-3.299999999999999982e-04,-2.700000000000000035e-04,2.399999999999999790e-04,0.000000000000000000e+00,-2.000000000000000096e-04,1.000000000000000082e-05,2.000000000000000000e+00,1.500000000000000000e+01
3.050600000000000000e+04,4.000000000000000327e-05,-5.999999999999999474e-05,-3.299999999999999982e-04,-2.700000000000000035e-04,2.399999999999999790e-04,0.000000000000000000e+00,-2.000000000000000096e-04,1.000000000000000082e-05,2.000000000000000000e+00,1.500000000000000000e+01
3.050700000000000000e+04,4.000000000000000327e-05,-5.999999999999999474e-05,-3.299999999999999982e-04,-2.700000000000000035e-04,2.399999999999999790e-04,0.000000000000000000e+00,-2.000000000000000096e-04,1.000000000000000082e-05,2.000000000000000000e+00,1.500000000000000000e+01
3.050800000000000000e+04,4.000000000000000327e-05,-5.999999999999999474e-05,-3.299999999999999982e-04,-2.700000000000000035e-04,2.399999999999999790e-04,0.000000000000000000e+00,-2.000000000000000096e-04,1.000000000000000082e-05,2.000000000000000000e+00,1.500000000000000000e+01
3.050900000000000000e+04,4.000000000000000327e-05,-5.999999999999999474e-05,-3.299999999999999982e-04,-2.700000000000000035e-04,2.399999999999999790e-04,0.000000000000000000e+00,-2.000000000000000096e-04,1.000000000000000082e-05,2.000000000000000000e+00,1.500000000000000000e+01
3.051000000000000000e+04,4.000000000000000327e-05,-5.999999999999999474e-05,-3.299999999999999982e-04,-2.700000000000000035e-04,2.399999999999999790e-04,0.000000000000000000e+00,-2.000000000000000096e-04,1.000000000000000082e-05,2.000000000000000000e+00,1.500000000000000000e+01
3.051100000000000000e+04,4.000000000000000327e-05,-5.999999999999999474e-05,-3.299999999999999982e-04,-2.700000000000000035e-04,2.399999999999999790e-04,0.000000000000000000e+00,-2.000000000000000096e-04,1.000000000000000082e-05,2.000000000000000000e+00,1.500000000000000000e+01
3.051200000000000000e+04,4.000000000000000327e-05,-5.999999999999999474e-05,-3.299999999999999982e-04,-2.700000000000000035e-04,2.399999999999999790e-04,0.000000000000000000e+00,-2.000000000000000096e-04,1.000000000000000082e-05,2.000000000000000000e+00,1.500000000000000000e+01
3.051300000000000000e+04,4.000000000000000327e-05,-5.999999999999999474e-05,-3.299999999999999982e-04,-2.700000000000000035e-04,2.399999999999999790e-04,0.000000000000000000e+00,-2.000000000000000096e-04,1.000000000000000082e-05,2.000000000000000000e+00,1.500000000000000000e+01
3.051400000000000000e+04,4.000000000000000327e-05,-5.999999999999999474e-05,-3.299999999999999982e-04,-2.700000000000000035e-04,2.399999999999999790e-04,0.000000000000000000e+00,-2.000000000000000096e-04,1.000000000000000082e-05,2.000000000000000000e+00,1.500000000000000000e+01
3.051500000000000000e+04,4.000000000000000327e-05,-5.999999999999999474e-05,-3.299999999999999982e-04,-2.700000000000000035e-04,2.399999999999999790e-04,0.000000000000000000e+00,-2.000000000000000096e-04,1.000000000000000082e-05,2.000000000000000000e+00,1.500000000000000000e+01
3.051600000000000000e+04,4.000000000000000327e-05,-5.999999999999999474e-05,-3.299999999999999982e-04,-2.700000000000000035e-04,2.399999999999999790e-04,0.000000000000000000e+00,-2.000000000000000096e-04,1.000000000000000082e-05,2.000000000000000000e+00,1.500000000000000000e+01
3.051700000000000000e+04,4.000000000000000327e-05,-5.999999999999999474e-05,-3.299999999999999982e-04,-2.700000000000000035e-04,2.399999999999999790e-04,0.000000000000000000e+00,-2.000000000000000096e-04,1.000000000000000082e-05,2.000000000000000000e+00,1.500000000000000000e+01
3.051800000000000000e+04,4.000000000000000327e-05,-5.999999999999999474e-05,-3.299999999999999982e-04,-2.700000000000000035e-04,2.399999999999999790e-04,0.000000000000000000e+00,-2.000000000000000096e-04,1.000000000000000082e-05,2.000000000000000000e+00,1.500000000000000000e+01
3.051900000000000000e+04,4.000000000000000327e-05,-5.999999999999999474e-05,-3.299999999999999982e-04,-2.700000000000000035e-04,2.399999999999999790e-04,0.000000000000000000e+00,-2.000000000000000096e-04,1.000000000000000082e-05,2.000000000000000000e+00,1.500000000000000000e+01
3.052000000000000000e+04,4.000000000000000327e-05,-5.999999999999999474e-05,-3.299999999999999982e-04,-2.700000000000000035e-04,2.399999999999999790e-04,0.000000000000000000e+00,-2.000000000000000096e-04,1.000000000000000082e-05,2.000000000000000000e+00,1.500000000000000000e+01
3.052100000000000000e+04,5.999999999999999474e-05,1.000000000000000082e-05,-4.000000000000000327e-05,-1.199999999999999895e-04,-1.100000000000000039e-04,5.000000000000000104e-04,1.000000000000000048e-04,-5.000000000000000240e-05,2.000000000000000000e+00,1.500000000000000000e+01
3.052200000000000000e+04,5.000000000000000240e-05,1.300000000000000157e-04,4.299999999999999894e-04,4.599999999999999597e-04,-2.299999999999999799e-04,-1.499999999999999869e-04,-4.099999999999999912e-04,-5.999999999999999474e-05,2.000000000000000000e+00,1.500000000000000000e+01
3.052300000000000000e+04,5.000000000000000240e-05,1.300000000000000157e-04,4.299999999999999894e-04,4.599999999999999597e-04,-2.299999999999999799e-04,-1.499999999999999869e-04,-4.099999999999999912e-04,-5.999999999999999474e-05,2.000000000000000000e+00,1.500000000000000000e+01
3.052400000000000000e+04,5.000000000000000240e-05,1.300000000000000157e-04,4.299999999999999894e-04,4.599999999999999597e-04,-2.299999999999999799e-04,-1.499999999999999869e-04,-4.099999999999999912e-04,-5.999999999999999474e-05,2.000000000000000000e+00,1.500000000000000000e+01
3.052500000000000000e+04,5.000000000000000240e-05,1.300000000000000157e-04,4.299999999999999894e-04,4.599999999999999597e-04,-2.299999999999999799e-04,-1.499999999999999869e-04,-4.099999999999999912e-04,-5.999999999999999474e-05,2.000000000000000000e+00,1.500000000000000000e+01
3.052600000000000000e+04,5.000000000000000240e-05,1.300000000000000157e-04,4.299999999999999894e-04,4.599999999999999597e-04,-2.299999999999999799e-04,-1.499999999999999869e-04,-4.099999999999999912e-04,-5.999999999999999474e-05,2.000000000000000000e+00,1.500000000000000000e+01
3.052700000000000000e+04,5.000000000000000240e-05,1.300000000000000157e-04,4.299999999999999894e-04,4.599999999999999597e-04,-2.299999999999999799e-04,-1.499999999999999869e-04,-4.099999999999999912e-04,-5.999999999999999474e-05,2.000000000000000000e+00,1.500000000000000000e+01
3.052800000000000000e+04,5.000000000000000240e-05,1.300000000000000157e-04,4.299999999999999894e-04,4.599999999999999597e-04,-2.299999999999999799e-04,-1.499999999999999869e-04,-4.099999999999999912e-04,-5.999999999999999474e-05,2.000000000000000000e+00,1.500000000000000000e+01
3.052900000000000000e+04,5.000000000000000240e-05,1.300000000000000157e-04,4.299999999999999894e-04,4.599999999999999597e-04,-2.299999999999999799e-04,-1.499999999999999869e-04,-4.099999999999999912e-04,-5.999999999999999474e-05,2.000000000000000000e+00,1.500000000000000000e+01
3.053000000000000000e+04,5.000000000000000240e-05,1.300000000000000157e-04,4.299999999999999894e-04,4.599999999999999597e-04,-2.299999999999999799e-04,-1.499999999999999869e-04,-4.099999999999999912e-04,-5.999999999999999474e-05,2.000000000000000000e+00,1.500000000000000000e+01
3.053100000000000000e+04,5.000000000000000240e-05,1.300000000000000157e-04,4.299999999999999894e-04,4.599999999999999597e-04,-2.299999999999999799e-04,-1.499999999999999869e-04,-4.099999999999999912e-04,-5.999999999999999474e-05,2.000000000000000000e+00,1.500000000000000000e+01
3.053200000000000000e+04,5.000000000000000240e-05,1.300000000000000157e-04,4.299999999999999894e-04,4.599999999999999597e-04,-2.299999999999999799e-04,-1.499999999999999869e-04,-4.099999999999999912e-04,-5.999999999999999474e-05,2.000000000000000000e+00,1.500000000000000000e+01
3.053300000000000000e+04,5.000000000000000240e-05,1.300000000000000157e-04,4.299999999999999894e-04,4.599999999999999597e-04,-2.299999999999999799e-04,-1.499999999999999869e-04,-4.099999999999999912e-04,-5.999999999999999474e-05,2.000000000000000000e+00,1.500000000000000000e+01
3.053400000000000000e+04,5.000000000000000240e-05,1.300000000000000157e-04,4.299999999999999894e-04,4.599999999999999597e-04,-2.299999999999999799e-04,-1.499999999999999869e-04,-4.099999999999999912e-04,-5.999999999999999474e-05,2.000000000000000000e+00,1.500000000000000000e+01
3.053500000000000000e+04,5.000000000000000240e-05,1.300000000000000157e-04,4.299999999999999894e-04,4.599999999999999597e-04,-2.299999999999999799e-04,-1.499999999999999869e-04,-4.099999999999999912e-04,-5.999999999999999474e-05,2.000000000000000000e+00,1.500000000000000000e+01
3.053600000000000000e+04,5.000000000000000240e-05,1.300000000000000157e-04,4.299999999999999894e-04,4.599999999999999597e-04,-2.299999999999999799e-04,-1.499999999999999869e-04,-4.099999999999999912e-04,-5.999999999999999474e-05,2.000000000000000000e+00,1.500000000000000000e+01
3.053800000000000000e+04,5.000000000000000240e-05,1.300000000000000157e-04,4.299999999999999894e-04,4.599999999999999597e-04,-2.299999999999999799e-04,-1.499999999999999869e-04,-4.099999999999999912e-04,-5.999999999999999474e-05,2.000000000000000000e+00,1.500000000000000000e+01
3.053900000000000000e+04,5.000000000000000240e-05,1.300000000000000157e-04,4.299999999999999894e-04,4.599999999999999597e-04,-2.299999999999999799e-04,-1.499999999999999869e-04,-4.099999999999999912e-04,-5.999999999999999474e-05,2.000000000000000000e+00,1.500000000000000000e+01
3.054000000000000000e+04,5.000000000000000240e-05,1.300000000000000157e-04,4.299999999999999894e-04,4.599999999999999597e-04,-2.299999999999999799e-04,-1.499999999999999869e-04,-4.099999999999999912e-04,-5.999999999999999474e-05,2.000000000000000000e+00,1.500000000000000000e+01
3.054100000000000000e+04,5.000000000000000240e-05,1.300000000000000157e-04,4.299999999999999894e-04,4.599999999999999597e-04,-2.299999999999999799e-04,-1.499999999999999869e-04,-4.099999999999999912e-04,-5.999999999999999474e-05,2.000000000000000000e+00,1.500000000000000000e+01
3.054200000000000000e+04,2.000000000000000164e-05,5.999999999999999474e-05,1.499999999999999869e-04,1.800000000000000113e-04,2.999999999999999737e-04,9.899999999999999946e-04,7.799999999999999859e-04,2.999999999999999737e-05,2.000000000000000000e+00,1.500000000000000000e+01
3.054300000000000000e+04,-5.000000000000000240e-05,-5.999999999999999474e-05,-1.100000000000000039e-04,-4.799999999999999580e-04,-2.000000000000000096e-04,-1.000000000000000048e-04,2.999999999999999737e-05,0.000000000000000000e+00,2.000000000000000000e+00,1.500000000000000000e+01
3.054400000000000000e+04,-5.000000000000000240e-05,-5.999999999999999474e-05,-1.100000000000000039e-04,-4.799999999999999580e-04,-2.000000000000000096e-04,-1.000000000000000048e-04,2.999999999999999737e-05,0.000000000000000000e+00,2.000000000000000000e+00,1.500000000000000000e+01
3.054500000000000000e+04,-5.000000000000000240e-05,-5.999999999999999474e-05,-1.100000000000000039e-04,-4.799999999999999580e-04,-2.000000000000000096e-04,-1.000000000000000048e-04,2.999999999999999737e-05,0.000000000000000000e+00,2.000000000000000000e+00,1.500000000000000000e+01
3.054600000000000000e+04,-5.000000000000000240e-05,-5.999999999999999474e-05,-1.100000000000000039e-04,-4.799999999999999580e-04,-2.000000000000000096e-04,-1.000000000000000048e-04,2.999999999999999737e-05,0.000000000000000000e+00,2.000000000000000000e+00,1.500000000000000000e+01
3.054700000000000000e+04,-5.000000000000000240e-05,-5.999999999999999474e-05,-1.100000000000000039e-04,-4.799999999999999580e-04,-2.000000000000000096e-04,-1.000000000000000048e-04,2.999999999999999737e-05,0.000000000000000000e+00,2.000000000000000000e+00,1.500000000000000000e+01
3.054800000000000000e+04,-5.000000000000000240e-05,-5.999999999999999474e-05,-1.100000000000000039e-04,-4.799999999999999580e-04,-2.000000000000000096e-04,-1.000000000000000048e-04,2.999999999999999737e-05,0.000000000000000000e+00,2.000000000000000000e+00,1.500000000000000000e+01
3.054900000000000000e+04,-5.000000000000000240e-05,-5.999999999999999474e-05,-1.100000000000000039e-04,-4.799999999999999580e-04,-2.000000000000000096e-04,-1.000000000000000048e-04,2.999999999999999737e-05,0.000000000000000000e+00,2.000000000000000000e+00,1.500000000000000000e+01
3.055000000000000000e+04,-5.000000000000000240e-05,-5.999999999999999474e-05,-1.100000000000000039e-04,-4.799999999999999580e-04,-2.000000000000000096e-04,-1.000000000000000048e-04,2.999999999999999737e-05,0.000000000000000000e+00,2.000000000000000000e+00,1.500000000000000000e+01
3.055100000000000000e+04,-5.000000000000000240e-05,-6.999999999999999387e-05,-8.000000000000000654e-05,-2.999999999999999737e-05,-9.000000000000000567e-05,-7.700000000000000681e-04,-1.199999999999999895e-04,8.000000000000000654e-05,2.000000000000000000e+00,1.500000000000000000e+01
3.055200000000000000e+04,-5.000000000000000240e-05,-6.999999999999999387e-05,-8.000000000000000654e-05,-2.999999999999999737e-05,-9.000000000000000567e-05,-7.700000000000000681e-04,-1.199999999999999895e-04,8.000000000000000654e-05,2.000000000000000000e+00,1.500000000000000000e+01
3.055300000000000000e+04,-5.000000000000000240e-05,-6.999999999999999387e-05,-8.000000000000000654e-05,-2.999999999999999737e-05,-9.000000000000000567e-05,-7.700000000000000681e-04,-1.199999999999999895e-04,8.000000000000000654e-05,2.000000000000000000e+00,1.500000000000000000e+01
3.055400000000000000e+04,-5.000000000000000240e-05,-6.999999999999999387e-05,-8.000000000000000654e-05,-2.999999999999999737e-05,-9.000000000000000567e-05,-7.700000000000000681e-04,-1.199999999999999895e-04,8.000000000000000654e-05,2.000000000000000000e+00,1.500000000000000000e+01
3.055500000000000000e+04,-5.000000000000000240e-05,-6.999999999999999387e-05,-8.000000000000000654e-05,-2.999999999999999737e-05,-9.000000000000000567e-05,-7.700000000000000681e-04,-1.199999999999999895e-04,8.000000000000000654e-05,2.000000000000000000e+00,1.500000000000000000e+01
3.055600000000000000e+04,-5.000000000000000240e-05,-6.999999999999999387e-05,-8.000000000000000654e-05,-2.999999999999999737e-05,-9.000000000000000567e-05,-7.700000000000000681e-04,-1.199999999999999895e-04,8.000000000000000654e-05,2.000000000000000000e+00,1.500000000000000000e+01
3.055700000000000000e+04,-5.000000000000000240e-05,-6.999999999999999387e-05,-8.000000000000000654e-05,-2.999999999999999737e-05,-9.000000000000000567e-05,-7.700000000000000681e-04,-1.199999999999999895e-04,8.000000000000000654e-05,2.000000000000000000e+00,1.500000000000000000e+01
3.055800000000000000e+04,-8.000000000000000654e-05,-5.000000000000000240e-05,-6.999999999999999387e-05,-1.899999999999999834e-04,2.000000000000000164e-05,2.000000000000000096e-04,2.999999999999999737e-04,1.800000000000000113e-04,2.000000000000000000e+00,1.500000000000000000e+01
3.055900000000000000e+04,-8.000000000000000654e-05,-5.000000000000000240e-05,-6.999999999999999387e-05,-1.899999999999999834e-04,2.000000000000000164e-05,2.000000000000000096e-04,2.999999999999999737e-04,1.800000000000000113e-04,2.000000000000000000e+00,1.500000000000000000e+01
3.056000000000000000e+04,-8.000000000000000654e-05,-5.000000000000000240e-05,-6.999999999999999387e-05,-1.899999999999999834e-04,2.000000000000000164e-05,2.000000000000000096e-04,2.999999999999999737e-04,1.800000000000000113e-04,2.000000000000000000e+00,1.500000000000000000e+01
3.056100000000000000e+04,-8.000000000000000654e-05,-5.999999999999999474e-05,1.000000000000000048e-04,-3.899999999999999929e-04,-3.799999999999999667e-04,-8.800000000000000313e-04,-4.000000000000000192e-04,-1.699999999999999851e-04,2.000000000000000000e+00,1.500000000000000000e+01
3.056200000000000000e+04,-8.000000000000000654e-05,-5.999999999999999474e-05,1.000000000000000048e-04,-3.899999999999999929e-04,-3.799999999999999667e-04,-8.800000000000000313e-04,-4.000000000000000192e-04,-1.699999999999999851e-04,2.000000000000000000e+00,1.500000000000000000e+01
3.056300000000000000e+04,-8.000000000000000654e-05,-5.999999999999999474e-05,1.000000000000000048e-04,-3.899999999999999929e-04,-3.799999999999999667e-04,-8.800000000000000313e-04,-4.000000000000000192e-04,-1.699999999999999851e-04,2.000000000000000000e+00,1.500000000000000000e+01
3.056400000000000000e+04,-8.000000000000000654e-05,-5.999999999999999474e-05,1.000000000000000048e-04,-3.899999999999999929e-04,-3.799999999999999667e-04,-8.800000000000000313e-04,-4.000000000000000192e-04,-1.699999999999999851e-04,2.000000000000000000e+00,1.500000000000000000e+01
3.056500000000000000e+04,-8.000000000000000654e-05,-5.999999999999999474e-05,1.000000000000000048e-04,-3.899999999999999929e-04,-3.799999999999999667e-04,-8.800000000000000313e-04,-4.000000000000000192e-04,-1.699999999999999851e-04,2.000000000000000000e+00,1.500000000000000000e+01
3.056600000000000000e+04,-8.000000000000000654e-05,-5.999999999999999474e-05,1.000000000000000048e-04,-3.899999999999999929e-04,-3.799999999999999667e-04,-8.800000000000000313e-04,-4.000000000000000192e-04,-1.699999999999999851e-04,2.000000000000000000e+00,1.500000000000000000e+01
3.056700000000000000e+04,-8.000000000000000654e-05,-5.999999999999999474e-05,1.000000000000000048e-04,-3.899999999999999929e-04,-3.799999999999999667e-04,-8.800000000000000313e-04,-4.000000000000000192e-04,-1.699999999999999851e-04,2.000000000000000000e+00,1.500000000000000000e+01
3.056800000000000000e+04,-8.000000000000000654e-05,-5.999999999999999474e-05,1.000000000000000048e-04,-3.899999999999999929e-04,-3.799999999999999667e-04,-8.800000000000000313e-04,-4.000000000000000192e-04,-1.699999999999999851e-04,2.000000000000000000e+00,1.500000000000000000e+01
3.056900000000000000e+04,-8.000000000000000654e-05,-5.999999999999999474e-05,1.000000000000000048e-04,-3.899999999999999929e-04,-3.799999999999999667e-04,-8.800000000000000313e-04,-4.000000000000000192e-04,-1.699999999999999851e-04,2.000000000000000000e+00,1.500000000000000000e+01
3.057000000000000000e+04,-8.000000000000000654e-05,-5.999999999999999474e-05,1.000000000000000048e-04,-3.899999999999999929e-04,-3.799999999999999667e-04,-8.800000000000000313e-04,-4.000000000000000192e-04,-1.699999999999999851e-04,2.000000000000000000e+00,1.500000000000000000e+01
3.057100000000000000e+04,-8.000000000000000654e-05,-5.999999999999999474e-05,1.000000000000000048e-04,-3.899999999999999929e-04,-3.799999999999999667e-04,-8.800000000000000313e-04,-4.000000000000000192e-04,-1.699999999999999851e-04,2.000000000000000000e+00,1.500000000000000000e+01
3.057200000000000000e+04,-8.000000000000000654e-05,-5.999999999999999474e-05,1.000000000000000048e-04,-3.899999999999999929e-04,-3.799999999999999667e-04,-8.800000000000000313e-04,-4.000000000000000192e-04,-1.699999999999999851e-04,2.000000000000000000e+00,1.500000000000000000e+01
3.057300000000000000e+04,-8.000000000000000654e-05,-5.999999999999999474e-05,1.000000000000000048e-04,-3.899999999999999929e-04,-3.799999999999999667e-04,-8.800000000000000313e-04,-4.000000000000000192e-04,-1.699999999999999851e-04,2.000000000000000000e+00,1.500000000000000000e+01
3.057400000000000000e+04,-8.000000000000000654e-05,-5.999999999999999474e-05,1.000000000000000048e-04,-3.899999999999999929e-04,-3.799999999999999667e-04,-8.800000000000000313e-04,-4.000000000000000192e-04,-1.699999999999999851e-04,2.000000000000000000e+00,1.500000000000000000e+01
3.057500000000000000e+04,-8.000000000000000654e-05,-5.999999999999999474e-05,1.000000000000000048e-04,-3.899999999999999929e-04,-3.799999999999999667e-04,-8.800000000000000313e-04,-4.000000000000000192e-04,-1.699999999999999851e-04,2.000000000000000000e+00,1.500000000000000000e+01
3.057600000000000000e+04,-8.000000000000000654e-05,-5.999999999999999474e-05,1.000000000000000048e-04,-3.899999999999999929e-04,-3.799999999999999667e-04,-8.800000000000000313e-04,-4.000000000000000192e-04,-1.699999999999999851e-04,2.000000000000000000e+00,1.500000000000000000e+01
3.057700000000000000e+04,-8.000000000000000654e-05,-5.999999999999999474e-05,1.000000000000000048e-04,-3.899999999999999929e-04,-3.799999999999999667e-04,-8.800000000000000313e-04,-4.000000000000000192e-04,-1.699999999999999851e-04,2.000000000000000000e+00,1.500000000000000000e+01
3.057800000000000000e+04,-8.000000000000000654e-05,-5.999999999999999474e-05,1.000000000000000048e-04,-3.899999999999999929e-04,-3.799999999999999667e-04,-8.800000000000000313e-04,-4.000000000000000192e-04,-1.699999999999999851e-04,2.000000000000000000e+00,1.500000000000000000e+01
3.057900000000000000e+04,-8.000000000000000654e-05,-5.999999999999999474e-05,1.000000000000000048e-04,-3.899999999999999929e-04,-3.799999999999999667e-04,-8.800000000000000313e-04,-4.000000000000000192e-04,-1.699999999999999851e-04,2.000000000000000000e+00,1.500000000000000000e+01
3.058000000000000000e+04,-8.000000000000000654e-05,-5.999999999999999474e-05,1.000000000000000048e-04,-3.899999999999999929e-04,-3.799999999999999667e-04,-8.800000000000000313e-04,-4.000000000000000192e-04,-1.699999999999999851e-04,2.000000000000000000e+00,1.500000000000000000e+01
3.058100000000000000e+04,-1.100000000000000039e-04,4.000000000000000327e-05,1.899999999999999834e-04,1.199999999999999895e-04,0.000000000000000000e+00,-1.100000000000000039e-04,-6.999999999999999387e-05,-1.899999999999999834e-04,2.000000000000000000e+00,1.500000000000000000e+01
3.058200000000000000e+04,1.699999999999999851e-04,1.399999999999999877e-04,-4.000000000000000327e-05,-2.000000000000000164e-05,2.399999999999999790e-04,6.700000000000000226e-04,4.099999999999999912e-04,9.000000000000000567e-05,2.000000000000000000e+00,1.500000000000000000e+01
3.058300000000000000e+04,1.699999999999999851e-04,1.399999999999999877e-04,-4.000000000000000327e-05,-2.000000000000000164e-05,2.399999999999999790e-04,6.700000000000000226e-04,4.099999999999999912e-04,9.000000000000000567e-05,2.000000000000000000e+00,1.500000000000000000e+01
3.058400000000000000e+04,1.699999999999999851e-04,1.399999999999999877e-04,-4.000000000000000327e-05,-2.000000000000000164e-05,2.399999999999999790e-04,6.700000000000000226e-04,4.099999999999999912e-04,9.000000000000000567e-05,2.000000000000000000e+00,1.500000000000000000e+01
3.058500000000000000e+04,1.699999999999999851e-04,1.399999999999999877e-04,-4.000000000000000327e-05,-2.000000000000000164e-05,2.399999999999999790e-04,6.700000000000000226e-04,4.099999999999999912e-04,9.000000000000000567e-05,2.000000000000000000e+00,1.500000000000000000e+01
3.058600000000000000e+04,1.699999999999999851e-04,1.399999999999999877e-04,-4.000000000000000327e-05,-2.000000000000000164e-05,2.399999999999999790e-04,6.700000000000000226e-04,4.099999999999999912e-04,9.000000000000000567e-05,2.000000000000000000e+00,1.500000000000000000e+01
3.058800000000000000e+04,1.699999999999999851e-04,1.399999999999999877e-04,-4.000000000000000327e-05,-2.000000000000000164e-05,2.399999999999999790e-04,6.700000000000000226e-04,4.099999999999999912e-04,9.000000000000000567e-05,2.000000000000000000e+00,1.500000000000000000e+01
3.058900000000000000e+04,1.699999999999999851e-04,1.399999999999999877e-04,-4.000000000000000327e-05,-2.000000000000000164e-05,2.399999999999999790e-04,6.700000000000000226e-04,4.099999999999999912e-04,9.000000000000000567e-05,2.000000000000000000e+00,1.500000000000000000e+01
3.059000000000000000e+04,1.699999999999999851e-04,1.399999999999999877e-04,-4.000000000000000327e-05,-2.000000000000000164e-05,2.399999999999999790e-04,6.700000000000000226e-04,4.099999999999999912e-04,9.000000000000000567e-05,2.000000000000000000e+00,1.500000000000000000e+01
3.059100000000000000e+04,1.699999999999999851e-04,1.399999999999999877e-04,-4.000000000000000327e-05,-2.000000000000000164e-05,2.399999999999999790e-04,6.700000000000000226e-04,4.099999999999999912e-04,9.000000000000000567e-05,2.000000000000000000e+00,1.500000000000000000e+01
3.059200000000000000e+04,1.699999999999999851e-04,1.399999999999999877e-04,-4.000000000000000327e-05,-2.000000000000000164e-05,2.399999999999999790e-04,6.700000000000000226e-04,4.099999999999999912e-04,9.000000000000000567e-05,2.000000000000000000e+00,1.500000000000000000e+01
3.059300000000000000e+04,1.699999999999999851e-04,1.399999999999999877e-04,-4.000000000000000327e-05,-2.000000000000000164e-05,2.399999999999999790e-04,6.700000000000000226e-04,4.099999999999999912e-04,9.000000000000000567e-05,2.000000000000000000e+00,1.500000000000000000e+01
3.059400000000000000e+04,1.699999999999999851e-04,1.399999999999999877e-04,-4.000000000000000327e-05,-2.000000000000000164e-05,2.399999999999999790e-04,6.700000000000000226e-04,4.099999999999999912e-04,9.000000000000000567e-05,2.000000000000000000e+00,1.500000000000000000e+01
3.059500000000000000e+04,1.699999999999999851e-04,1.399999999999999877e-04,-4.000000000000000327e-05,-2.000000000000000164e-05,2.399999999999999790e-04,6.700000000000000226e-04,4.099999999999999912e-04,9.000000000000000567e-05,2.000000000000000000e+00,1.500000000000000000e+01
3.059600000000000000e+04,1.699999999999999851e-04,1.399999999999999877e-04,-4.000000000000000327e-05,-2.000000000000000164e-05,2.399999999999999790e-04,6.700000000000000226e-04,4.099999999999999912e-04,9.000000000000000567e-05,2.000000000000000000e+00,1.500000000000000000e+01
3.059700000000000000e+04,1.699999999999999851e-04,1.399999999999999877e-04,-4.000000000000000327e-05,-2.000000000000000164e-05,2.399999999999999790e-04,6.700000000000000226e-04,4.099999999999999912e-04,9.000000000000000567e-05,2.000000000000000000e+00,1.500000000000000000e+01
3.059800000000000000e+04,1.699999999999999851e-04,1.399999999999999877e-04,-4.000000000000000327e-05,-2.000000000000000164e-05,2.399999999999999790e-04,6.700000000000000226e-04,4.099999999999999912e-04,9.000000000000000567e-05,2.000000000000000000e+00,1.500000000000000000e+01
3.059900000000000000e+04,1.699999999999999851e-04,1.399999999999999877e-04,-4.000000000000000327e-05,-2.000000000000000164e-05,2.399999999999999790e-04,6.700000000000000226e-04,4.099999999999999912e-04,9.000000000000000567e-05,2.000000000000000000e+00,1.500000000000000000e+01
3.060000000000000000e+04,1.699999999999999851e-04,1.399999999999999877e-04,-4.000000000000000327e-05,-2.000000000000000164e-05,2.399999999999999790e-04,6.700000000000000226e-04,4.099999999999999912e-04,9.000000000000000567e-05,2.000000000000000000e+00,1.500000000000000000e+01
3.060100000000000000e+04,1.699999999999999851e-04,1.399999999999999877e-04,-4.000000000000000327e-05,-2.000000000000000164e-05,2.399999999999999790e-04,6.700000000000000226e-04,4.099999999999999912e-04,9.000000000000000567e-05,2.000000000000000000e+00,1.500000000000000000e+01
3.060200000000000000e+04,1.699999999999999851e-04,1.399999999999999877e-04,-4.000000000000000327e-05,-2.000000000000000164e-05,2.399999999999999790e-04,6.700000000000000226e-04,4.099999999999999912e-04,9.000000000000000567e-05,2.000000000000000000e+00,1.500000000000000000e+01
3.060300000000000000e+04,1.000000000000000082e-05,-2.299999999999999799e-04,-6.799999999999999404e-04,-4.899999999999999842e-04,4.000000000000000327e-05,0.000000000000000000e+00,-1.199999999999999895e-04,-1.699999999999999851e-04,2.000000000000000000e+00,1.500000000000000000e+01
3.060400000000000000e+04,1.000000000000000082e-05,-2.299999999999999799e-04,-6.799999999999999404e-04,-4.899999999999999842e-04,4.000000000000000327e-05,0.000000000000000000e+00,-1.199999999999999895e-04,-1.699999999999999851e-04,2.000000000000000000e+00,1.500000000000000000e+01
3.060500000000000000e+04,2.999999999999999737e-05,6.999999999999999387e-05,3.399999999999999702e-04,3.799999999999999667e-04,4.700000000000000401e-04,4.799999999999999580e-04,-3.099999999999999999e-04,-9.000000000000000567e-05,2.000000000000000000e+00,1.500000000000000000e+01
3.060600000000000000e+04,2.999999999999999737e-05,6.999999999999999387e-05,3.399999999999999702e-04,3.799999999999999667e-04,4.700000000000000401e-04,4.799999999999999580e-04,-3.099999999999999999e-04,-9.000000000000000567e-05,2.000000000000000000e+00,1.500000000000000000e+01
3.060700000000000000e+04,2.999999999999999737e-05,6.999999999999999387e-05,3.399999999999999702e-04,3.799999999999999667e-04,4.700000000000000401e-04,4.799999999999999580e-04,-3.099999999999999999e-04,-9.000000000000000567e-05,2.000000000000000000e+00,1.500000000000000000e+01
3.060800000000000000e+04,2.999999999999999737e-05,6.999999999999999387e-05,3.399999999999999702e-04,3.799999999999999667e-04,4.700000000000000401e-04,4.799999999999999580e-04,-3.099999999999999999e-04,-9.000000000000000567e-05,2.000000000000000000e+00,1.500000000000000000e+01
3.060900000000000000e+04,2.999999999999999737e-05,6.999999999999999387e-05,3.399999999999999702e-04,3.799999999999999667e-04,4.700000000000000401e-04,4.799999999999999580e-04,-3.099999999999999999e-04,-9.000000000000000567e-05,2.000000000000000000e+00,1.500000000000000000e+01
3.061000000000000000e+04,2.999999999999999737e-05,6.999999999999999387e-05,3.399999999999999702e-04,3.799999999999999667e-04,4.700000000000000401e-04,4.799999999999999580e-04,-3.099999999999999999e-04,-9.000000000000000567e-05,2.000000000000000000e+00,1.500000000000000000e+01
3.061100000000000000e+04,2.999999999999999737e-05,6.999999999999999387e-05,3.399999999999999702e-04,3.799999999999999667e-04,4.700000000000000401e-04,4.799999999999999580e-04,-3.099999999999999999e-04,-9.000000000000000567e-05,2.000000000000000000e+00,1.500000000000000000e+01
3.061200000000000000e+04,2.999999999999999737e-05,6.999999999999999387e-05,3.399999999999999702e-04,3.799999999999999667e-04,4.700000000000000401e-04,4.799999999999999580e-04,-3.099999999999999999e-04,-9.000000000000000567e-05,2.000000000000000000e+00,1.500000000000000000e+01
3.061300000000000000e+04,2.999999999999999737e-05,6.999999999999999387e-05,3.399999999999999702e-04,3.799999999999999667e-04,4.700000000000000401e-04,4.799999999999999580e-04,-3.099999999999999999e-04,-9.000000000000000567e-05,2.000000000000000000e+00,1.500000000000000000e+01
3.061400000000000000e+04,2.999999999999999737e-05,6.999999999999999387e-05,3.399999999999999702e-04,3.799999999999999667e-04,4.700000000000000401e-04,4.799999999999999580e-04,-3.099999999999999999e-04,-9.000000000000000567e-05,2.000000000000000000e+00,1.500000000000000000e+01
3.061500000000000000e+04,2.999999999999999737e-05,6.999999999999999387e-05,3.399999999999999702e-04,3.799999999999999667e-04,4.700000000000000401e-04,4.799999999999999580e-04,-3.099999999999999999e-04,-9.000000000000000567e-05,2.000000000000000000e+00,1.500000000000000000e+01
3.061600000000000000e+04,2.999999999999999737e-05,6.999999999999999387e-05,3.399999999999999702e-04,3.799999999999999667e-04,4.700000000000000401e-04,4.799999999999999580e-04,-3.099999999999999999e-04,-9.000000000000000567e-05,2.000000000000000000e+00,1.500000000000000000e+01
3.061700000000000000e+04,-1.800000000000000113e-04,-1.000000000000000048e-04,-2.900000000000000017e-04,-4.200000000000000174e-04,-4.000000000000000327e-05,2.100000000000000087e-04,2.399999999999999790e-04,-1.699999999999999851e-04,2.000000000000000000e+00,1.500000000000000000e+01
3.061800000000000000e+04,4.000000000000000327e-05,-6.999999999999999387e-05,-1.300000000000000157e-04,2.299999999999999799e-04,4.000000000000000327e-05,1.300000000000000157e-04,2.399999999999999790e-04,2.200000000000000078e-04,2.000000000000000000e+00,1.500000000000000000e+01
3.061900000000000000e+04,4.000000000000000327e-05,-6.999999999999999387e-05,-1.300000000000000157e-04,2.299999999999999799e-04,4.000000000000000327e-05,1.300000000000000157e-04,2.399999999999999790e-04,2.200000000000000078e-04,2.000000000000000000e+00,1.500000000000000000e+01
3.062000000000000000e+04,4.000000000000000327e-05,-6.999999999999999387e-05,-1.300000000000000157e-04,2.299999999999999799e-04,4.000000000000000327e-05,1.300000000000000157e-04,2.399999999999999790e-04,2.200000000000000078e-04,2.000000000000000000e+00,1.500000000000000000e+01
3.062100000000000000e+04,4.000000000000000327e-05,-6.999999999999999387e-05,-1.300000000000000157e-04,2.299999999999999799e-04,4.000000000000000327e-05,1.300000000000000157e-04,2.399999999999999790e-04,2.200000000000000078e-04,2.000000000000000000e+00,1.500000000000000000e+01
3.062200000000000000e+04,4.000000000000000327e-05,-6.999999999999999387e-05,-1.300000000000000157e-04,2.299999999999999799e-04,4.000000000000000327e-05,1.300000000000000157e-04,2.399999999999999790e-04,2.200000000000000078e-04,2.000000000000000000e+00,1.500000000000000000e+01
3.062300000000000000e+04,4.000000000000000327e-05,-6.999999999999999387e-05,-1.300000000000000157e-04,2.299999999999999799e-04,4.000000000000000327e-05,1.300000000000000157e-04,2.399999999999999790e-04,2.200000000000000078e-04,2.000000000000000000e+00,1.500000000000000000e+01
3.062400000000000000e+04,-1.300000000000000157e-04,-1.100000000000000039e-04,-2.999999999999999737e-04,-1.600000000000000131e-04,2.000000000000000164e-05,3.099999999999999999e-04,2.299999999999999799e-04,-6.999999999999999387e-05,2.000000000000000000e+00,1.500000000000000000e+01
3.062500000000000000e+04,-1.300000000000000157e-04,-1.100000000000000039e-04,-2.999999999999999737e-04,-1.600000000000000131e-04,2.000000000000000164e-05,3.099999999999999999e-04,2.299999999999999799e-04,-6.999999999999999387e-05,2.000000000000000000e+00,1.500000000000000000e+01
3.062600000000000000e+04,-1.300000000000000157e-04,-1.100000000000000039e-04,-2.999999999999999737e-04,-1.600000000000000131e-04,2.000000000000000164e-05,3.099999999999999999e-04,2.299999999999999799e-04,-6.999999999999999387e-05,2.000000000000000000e+00,1.500000000000000000e+01
3.062700000000000000e+04,-1.300000000000000157e-04,-1.100000000000000039e-04,-2.999999999999999737e-04,-1.600000000000000131e-04,2.000000000000000164e-05,3.099999999999999999e-04,2.299999999999999799e-04,-6.999999999999999387e-05,2.000000000000000000e+00,1.500000000000000000e+01
3.062800000000000000e+04,-1.300000000000000157e-04,-1.100000000000000039e-04,-2.999999999999999737e-04,-1.600000000000000131e-04,2.000000000000000164e-05,3.099999999999999999e-04,2.299999999999999799e-04,-6.999999999999999387e-05,2.000000000000000000e+00,1.500000000000000000e+01
3.062900000000000000e+04,-1.300000000000000157e-04,-1.100000000000000039e-04,-2.999999999999999737e-04,-1.600000000000000131e-04,2.000000000000000164e-05,3.099999999999999999e-04,2.299999999999999799e-04,-6.999999999999999387e-05,2.000000000000000000e+00,1.500000000000000000e+01
3.063000000000000000e+04,-1.300000000000000157e-04,-1.100000000000000039e-04,-2.999999999999999737e-04,-1.600000000000000131e-04,2.000000000000000164e-05,3.099999999999999999e-04,2.299999999999999799e-04,-6.999999999999999387e-05,2.000000000000000000e+00,1.500000000000000000e+01
3.063100000000000000e+04,-1.300000000000000157e-04,-1.100000000000000039e-04,-2.999999999999999737e-04,-1.600000000000000131e-04,2.000000000000000164e-05,3.099999999999999999e-04,2.299999999999999799e-04,-6.999999999999999387e-05,2.000000000000000000e+00,1.500000000000000000e+01
3.063200000000000000e+04,-1.300000000000000157e-04,-1.100000000000000039e-04,-2.999999999999999737e-04,-1.600000000000000131e-04,2.000000000000000164e-05,3.099999999999999999e-04,2.299999999999999799e-04,-6.999999999999999387e-05,2.000000000000000000e+00,1.500000000000000000e+01
3.063300000000000000e+04,-1.300000000000000157e-04,-1.100000000000000039e-04,-2.999999999999999737e-04,-1.600000000000000131e-04,2.000000000000000164e-05,3.099999999999999999e-04,2.299999999999999799e-04,-6.999999999999999387e-05,2.000000000000000000e+00,1.500000000000000000e+01
3.063400000000000000e+04,-1.300000000000000157e-04,-1.100000000000000039e-04,-2.999999999999999737e-04,-1.600000000000000131e-04,2.000000000000000164e-05,3.099999999999999999e-04,2.299999999999999799e-04,-6.999999999999999387e-05,2.000000000000000000e+00,1.500000000000000000e+01
3.063500000000000000e+04,-1.300000000000000157e-04,-1.100000000000000039e-04,-2.999999999999999737e-04,-1.600000000000000131e-04,2.000000000000000164e-05,3.099999999999999999e-04,2.299999999999999799e-04,-6.999999999999999387e-05,2.000000000000000000e+00,1.500000000000000000e+01
3.063600000000000000e+04,-1.300000000000000157e-04,-1.100000000000000039e-04,-2.999999999999999737e-04,-1.600000000000000131e-04,2.000000000000000164e-05,3.099999999999999999e-04,2.299999999999999799e-04,-6.999999999999999387e-05,2.000000000000000000e+00,1.500000000000000000e+01
3.063800000000000000e+04,-1.300000000000000157e-04,-1.100000000000000039e-04,-2.999999999999999737e-04,-1.600000000000000131e-04,2.000000000000000164e-05,3.099999999999999999e-04,2.299999999999999799e-04,-6.999999999999999387e-05,2.000000000000000000e+00,1.500000000000000000e+01
3.063900000000000000e+04,-1.300000000000000157e-04,-1.100000000000000039e-04,-2.999999999999999737e-04,-1.600000000000000131e-04,2.000000000000000164e-05,3.099999999999999999e-04,2.299999999999999799e-04,-6.999999999999999387e-05,2.000000000000000000e+00,1.500000000000000000e+01
3.064000000000000000e+04,-1.300000000000000157e-04,0.000000000000000000e+00,2.100000000000000087e-04,2.200000000000000078e-04,4.000000000000000327e-05,5.599999999999999509e-04,5.999999999999999474e-05,-6.999999999999999387e-05,2.000000000000000000e+00,1.500000000000000000e+01
3.064100000000000000e+04,-1.300000000000000157e-04,0.000000000000000000e+00,2.100000000000000087e-04,2.200000000000000078e-04,4.000000000000000327e-05,5.599999999999999509e-04,5.999999999999999474e-05,-6.999999999999999387e-05,2.000000000000000000e+00,1.500000000000000000e+01
3.064200000000000000e+04,-1.000000000000000082e-05,1.000000000000000082e-05,5.999999999999999474e-05,-1.499999999999999869e-04,-2.100000000000000087e-04,1.399999999999999877e-04,1.100000000000000039e-04,-4.000000000000000327e-05,2.000000000000000000e+00,1.500000000000000000e+01
3.064300000000000000e+04,4.000000000000000327e-05,8.000000000000000654e-05,3.099999999999999999e-04,2.500000000000000052e-04,-1.300000000000000157e-04,-5.699999999999999772e-04,-2.999999999999999737e-04,-5.000000000000000240e-05,2.000000000000000000e+00,1.500000000000000000e+01
3.064400000000000000e+04,4.000000000000000327e-05,8.000000000000000654e-05,3.099999999999999999e-04,2.500000000000000052e-04,-1.300000000000000157e-04,-5.699999999999999772e-04,-2.999999999999999737e-04,-5.000000000000000240e-05,2.000000000000000000e+00,1.500000000000000000e+01
3.064500000000000000e+04,4.000000000000000327e-05,8.000000000000000654e-05,3.099999999999999999e-04,2.500000000000000052e-04,-1.300000000000000157e-04,-5.699999999999999772e-04,-2.999999999999999737e-04,-5.000000000000000240e-05,2.000000000000000000e+00,1.500000000000000000e+01
3.064600000000000000e+04,4.000000000000000327e-05,8.000000000000000654e-05,3.099999999999999999e-04,2.500000000000000052e-04,-1.300000000000000157e-04,-5.699999999999999772e-04,-2.999999999999999737e-04,-5.000000000000000240e-05,2.000000000000000000e+00,1.500000000000000000e+01
3.064700000000000000e+04,4.000000000000000327e-05,8.000000000000000654e-05,3.099999999999999999e-04,2.500000000000000052e-04,-1.300000000000000157e-04,-5.699999999999999772e-04,-2.999999999999999737e-04,-5.000000000000000240e-05,2.000000000000000000e+00,1.500000000000000000e+01
3.064800000000000000e+04,4.000000000000000327e-05,8.000000000000000654e-05,3.099999999999999999e-04,2.500000000000000052e-04,-1.300000000000000157e-04,-5.699999999999999772e-04,-2.999999999999999737e-04,-5.000000000000000240e-05,2.000000000000000000e+00,1.500000000000000000e+01
3.064900000000000000e+04,4.000000000000000327e-05,8.000000000000000654e-05,3.099999999999999999e-04,2.500000000000000052e-04,-1.300000000000000157e-04,-5.699999999999999772e-04,-2.999999999999999737e-04,-5.000000000000000240e-05,2.000000000000000000e+00,1.500000000000000000e+01
3.065000000000000000e+04,4.000000000000000327e-05,8.000000000000000654e-05,3.099999999999999999e-04,2.500000000000000052e-04,-1.300000000000000157e-04,-5.699999999999999772e-04,-2.999999999999999737e-04,-5.000000000000000240e-05,2.000000000000000000e+00,1.500000000000000000e+01
3.065100000000000000e+04,4.000000000000000327e-05,8.000000000000000654e-05,3.099999999999999999e-04,2.500000000000000052e-04,-1.300000000000000157e-04,-5.699999999999999772e-04,-2.999999999999999737e-04,-5.000000000000000240e-05,2.000000000000000000e+00,1.500000000000000000e+01
3.065200000000000000e+04,4.000000000000000327e-05,8.000000000000000654e-05,3.099999999999999999e-04,2.500000000000000052e-04,-1.300000000000000157e-04,-5.699999999999999772e-04,-2.999999999999999737e-04,-5.000000000000000240e-05,2.000000000000000000e+00,1.500000000000000000e+01
3.065300000000000000e+04,4.000000000000000327e-05,8.000000000000000654e-05,3.099999999999999999e-04,2.500000000000000052e-04,-1.300000000000000157e-04,-5.699999999999999772e-04,-2.999999999999999737e-04,-5.000000000000000240e-05,2.000000000000000000e+00,1.500000000000000000e+01
3.065400000000000000e+04,4.000000000000000327e-05,8.000000000000000654e-05,3.099999999999999999e-04,2.500000000000000052e-04,-1.300000000000000157e-04,-5.699999999999999772e-04,-2.999999999999999737e-04,-5.000000000000000240e-05,2.000000000000000000e+00,1.500000000000000000e+01
3.065500000000000000e+04,4.000000000000000327e-05,8.000000000000000654e-05,3.099999999999999999e-04,2.500000000000000052e-04,-1.300000000000000157e-04,-5.699999999999999772e-04,-2.999999999999999737e-04,-5.000000000000000240e-05,2.000000000000000000e+00,1.500000000000000000e+01
3.065600000000000000e+04,4.000000000000000327e-05,8.000000000000000654e-05,3.099999999999999999e-04,2.500000000000000052e-04,-1.300000000000000157e-04,-5.699999999999999772e-04,-2.999999999999999737e-04,-5.000000000000000240e-05,2.000000000000000000e+00,1.500000000000000000e+01
3.065700000000000000e+04,4.000000000000000327e-05,8.000000000000000654e-05,3.099999999999999999e-04,2.500000000000000052e-04,-1.300000000000000157e-04,-5.699999999999999772e-04,-2.999999999999999737e-04,-5.000000000000000240e-05,2.000000000000000000e+00,1.500000000000000000e+01
3.065800000000000000e+04,4.000000000000000327e-05,8.000000000000000654e-05,3.099999999999999999e-04,2.500000000000000052e-04,-1.300000000000000157e-04,-5.699999999999999772e-04,-2.999999999999999737e-04,-5.000000000000000240e-05,2.000000000000000000e+00,1.500000000000000000e+01
3.065900000000000000e+04,4.000000000000000327e-05,8.000000000000000654e-05,3.099999999999999999e-04,2.500000000000000052e-04,-1.300000000000000157e-04,-5.699999999999999772e-04,-2.999999999999999737e-04,-5.000000000000000240e-05,2.000000000000000000e+00,1.500000000000000000e+01
3.066000000000000000e+04,4.000000000000000327e-05,8.000000000000000654e-05,3.099999999999999999e-04,2.500000000000000052e-04,-1.300000000000000157e-04,-5.699999999999999772e-04,-2.999999999999999737e-04,-5.000000000000000240e-05,2.000000000000000000e+00,1.500000000000000000e+01
3.066100000000000000e+04,4.000000000000000327e-05,8.000000000000000654e-05,3.099999999999999999e-04,2.500000000000000052e-04,-1.300000000000000157e-04,-5.699999999999999772e-04,-2.999999999999999737e-04,-5.000000000000000240e-05,2.000000000000000000e+00,1.500000000000000000e+01
3.066200000000000000e+04,4.000000000000000327e-05,8.000000000000000654e-05,3.099999999999999999e-04,2.500000000000000052e-04,-1.300000000000000157e-04,-5.699999999999999772e-04,-2.999999999999999737e-04,-5.000000000000000240e-05,2.000000000000000000e+00,1.500000000000000000e+01
3.066300000000000000e+04,4.000000000000000327e-05,8.000000000000000654e-05,3.099999999999999999e-04,2.500000000000000052e-04,-1.300000000000000157e-04,-5.699999999999999772e-04,-2.999999999999999737e-04,-5.000000000000000240e-05,2.000000000000000000e+00,1.500000000000000000e+01
3.066400000000000000e+04,4.000000000000000327e-05,8.000000000000000654e-05,3.099999999999999999e-04,2.500000000000000052e-04,-1.300000000000000157e-04,-5.699999999999999772e-04,-2.999999999999999737e-04,-5.000000000000000240e-05,2.000000000000000000e+00,1.500000000000000000e+01
3.066500000000000000e+04,4.000000000000000327e-05,8.000000000000000654e-05,3.099999999999999999e-04,2.500000000000000052e-04,-1.300000000000000157e-04,-5.699999999999999772e-04,-2.999999999999999737e-04,-5.000000000000000240e-05,2.000000000000000000e+00,1.500000000000000000e+01
3.066600000000000000e+04,4.000000000000000327e-05,8.000000000000000654e-05,3.099999999999999999e-04,2.500000000000000052e-04,-1.300000000000000157e-04,-5.699999999999999772e-04,-2.999999999999999737e-04,-5.000000000000000240e-05,2.000000000000000000e+00,1.500000000000000000e+01
3.066700000000000000e+04,4.000000000000000327e-05,8.000000000000000654e-05,3.099999999999999999e-04,2.500000000000000052e-04,-1.300000000000000157e-04,-5.699999999999999772e-04,-2.999999999999999737e-04,-5.000000000000000240e-05,2.000000000000000000e+00,1.500000000000000000e+01
3.066800000000000000e+04,4.000000000000000327e-05,8.000000000000000654e-05,3.099999999999999999e-04,2.500000000000000052e-04,-1.300000000000000157e-04,-5.699999999999999772e-04,-2.999999999999999737e-04,-5.000000000000000240e-05,2.000000000000000000e+00,1.500000000000000000e+01
3.066900000000000000e+04,4.000000000000000327e-05,8.000000000000000654e-05,3.099999999999999999e-04,2.500000000000000052e-04,-1.300000000000000157e-04,-5.699999999999999772e-04,-2.999999999999999737e-04,-5.000000000000000240e-05,2.000000000000000000e+00,1.500000000000000000e+01
3.067000000000000000e+04,4.000000000000000327e-05,8.000000000000000654e-05,3.099999999999999999e-04,2.500000000000000052e-04,-1.300000000000000157e-04,-5.699999999999999772e-04,-2.999999999999999737e-04,-5.000000000000000240e-05,2.000000000000000000e+00,1.500000000000000000e+01
3.067100000000000000e+04,-1.000000000000000082e-05,-2.999999999999999737e-05,-5.999999999999999474e-05,2.000000000000000164e-05,-1.300000000000000157e-04,-7.399999999999999894e-04,-2.999999999999999737e-04,-9.000000000000000567e-05,2.000000000000000000e+00,1.500000000000000000e+01
3.067200000000000000e+04,4.000000000000000327e-05,1.000000000000000082e-05,1.000000000000000048e-04,2.600000000000000314e-04,2.200000000000000078e-04,7.399999999999999894e-04,8.000000000000000654e-05,-4.000000000000000327e-05,2.000000000000000000e+00,1.500000000000000000e+01
3.067300000000000000e+04,4.000000000000000327e-05,1.000000000000000082e-05,1.000000000000000048e-04,2.600000000000000314e-04,2.200000000000000078e-04,7.399999999999999894e-04,8.000000000000000654e-05,-4.000000000000000327e-05,2.000000000000000000e+00,1.500000000000000000e+01
3.067400000000000000e+04,4.000000000000000327e-05,1.000000000000000082e-05,1.000000000000000048e-04,2.600000000000000314e-04,2.200000000000000078e-04,7.399999999999999894e-04,8.000000000000000654e-05,-4.000000000000000327e-05,2.000000000000000000e+00,1.500000000000000000e+01
3.067500000000000000e+04,4.000000000000000327e-05,1.000000000000000082e-05,1.000000000000000048e-04,2.600000000000000314e-04,2.200000000000000078e-04,7.399999999999999894e-04,8.000000000000000654e-05,-4.000000000000000327e-05,2.000000000000000000e+00,1.500000000000000000e+01
3.067600000000000000e+04,4.000000000000000327e-05,1.000000000000000082e-05,1.000000000000000048e-04,2.600000000000000314e-04,2.200000000000000078e-04,7.399999999999999894e-04,8.000000000000000654e-05,-4.000000000000000327e-05,2.000000000000000000e+00,1.500000000000000000e+01
3.067700000000000000e+04,1.000000000000000048e-04,1.000000000000000048e-04,2.600000000000000314e-04,2.399999999999999790e-04,1.800000000000000113e-04,-2.999999999999999737e-05,-2.999999999999999737e-05,2.200000000000000078e-04,2.000000000000000000e+00,1.500000000000000000e+01
3.067800000000000000e+04,-1.100000000000000039e-04,-6.999999999999999387e-05,1.000000000000000048e-04,-3.499999999999999964e-04,-3.200000000000000262e-04,-7.099999999999999107e-04,-1.899999999999999834e-04,-1.000000000000000048e-04,2.000000000000000000e+00,1.500000000000000000e+01
3.067900000000000000e+04,-1.100000000000000039e-04,-6.999999999999999387e-05,1.000000000000000048e-04,-3.499999999999999964e-04,-3.200000000000000262e-04,-7.099999999999999107e-04,-1.899999999999999834e-04,-1.000000000000000048e-04,2.000000000000000000e+00,1.500000000000000000e+01
3.068000000000000000e+04,-1.100000000000000039e-04,-6.999999999999999387e-05,1.000000000000000048e-04,-3.499999999999999964e-04,-3.200000000000000262e-04,-7.099999999999999107e-04,-1.899999999999999834e-04,-1.000000000000000048e-04,2.000000000000000000e+00,1.500000000000000000e+01
3.068100000000000000e+04,-1.100000000000000039e-04,-6.999999999999999387e-05,1.000000000000000048e-04,-3.499999999999999964e-04,-3.200000000000000262e-04,-7.099999999999999107e-04,-1.899999999999999834e-04,-1.000000000000000048e-04,2.000000000000000000e+00,1.500000000000000000e+01
3.068200000000000000e+04,-1.100000000000000039e-04,-6.999999999999999387e-05,1.000000000000000048e-04,-3.499999999999999964e-04,-3.200000000000000262e-04,-7.099999999999999107e-04,-1.899999999999999834e-04,-1.000000000000000048e-04,2.000000000000000000e+00,1.500000000000000000e+01
3.068300000000000000e+04,-1.100000000000000039e-04,-6.999999999999999387e-05,1.000000000000000048e-04,-3.499999999999999964e-04,-3.200000000000000262e-04,-7.099999999999999107e-04,-1.899999999999999834e-04,-1.000000000000000048e-04,2.000000000000000000e+00,1.500000000000000000e+01
3.068400000000000000e+04,2.999999999999999737e-05,9.000000000000000567e-05,9.000000000000000567e-05,-1.399999999999999877e-04,-2.399999999999999790e-04,8.000000000000000654e-05,3.699999999999999947e-04,1.000000000000000082e-05,2.000000000000000000e+00,1.500000000000000000e+01
3.068500000000000000e+04,2.999999999999999737e-05,9.000000000000000567e-05,9.000000000000000567e-05,-1.399999999999999877e-04,-2.399999999999999790e-04,8.000000000000000654e-05,3.699999999999999947e-04,1.000000000000000082e-05,2.000000000000000000e+00,1.500000000000000000e+01
3.068600000000000000e+04,2.999999999999999737e-05,9.000000000000000567e-05,9.000000000000000567e-05,-1.399999999999999877e-04,-2.399999999999999790e-04,8.000000000000000654e-05,3.699999999999999947e-04,1.000000000000000082e-05,2.000000000000000000e+00,1.500000000000000000e+01
3.068800000000000000e+04,2.999999999999999737e-05,9.000000000000000567e-05,9.000000000000000567e-05,-1.399999999999999877e-04,-2.399999999999999790e-04,8.000000000000000654e-05,3.699999999999999947e-04,1.000000000000000082e-05,2.000000000000000000e+00,1.500000000000000000e+01
3.069000000000000000e+04,2.999999999999999737e-05,9.000000000000000567e-05,9.000000000000000567e-05,-1.399999999999999877e-04,-2.399999999999999790e-04,8.000000000000000654e-05,3.699999999999999947e-04,1.000000000000000082e-05,2.000000000000000000e+00,1.500000000000000000e+01
3.069100000000000000e+04,2.999999999999999737e-05,9.000000000000000567e-05,9.000000000000000567e-05,-1.399999999999999877e-04,-2.399999999999999790e-04,8.000000000000000654e-05,3.699999999999999947e-04,1.000000000000000082e-05,2.000000000000000000e+00,1.500000000000000000e+01
3.069200000000000000e+04,2.999999999999999737e-05,9.000000000000000567e-05,9.000000000000000567e-05,-1.399999999999999877e-04,-2.399999999999999790e-04,8.000000000000000654e-05,3.699999999999999947e-04,1.000000000000000082e-05,2.000000000000000000e+00,1.500000000000000000e+01
3.069300000000000000e+04,2.999999999999999737e-05,9.000000000000000567e-05,9.000000000000000567e-05,-1.399999999999999877e-04,-2.399999999999999790e-04,8.000000000000000654e-05,3.699999999999999947e-04,1.000000000000000082e-05,2.000000000000000000e+00,1.500000000000000000e+01
3.069400000000000000e+04,2.999999999999999737e-05,9.000000000000000567e-05,9.000000000000000567e-05,-1.399999999999999877e-04,-2.399999999999999790e-04,8.000000000000000654e-05,3.699999999999999947e-04,1.000000000000000082e-05,2.000000000000000000e+00,1.500000000000000000e+01
3.069500000000000000e+04,2.999999999999999737e-05,9.000000000000000567e-05,9.000000000000000567e-05,-1.399999999999999877e-04,-2.399999999999999790e-04,8.000000000000000654e-05,3.699999999999999947e-04,1.000000000000000082e-05,2.000000000000000000e+00,1.500000000000000000e+01
3.069600000000000000e+04,2.999999999999999737e-05,9.000000000000000567e-05,9.000000000000000567e-05,-1.399999999999999877e-04,-2.399999999999999790e-04,8.000000000000000654e-05,3.699999999999999947e-04,1.000000000000000082e-05,2.000000000000000000e+00,1.500000000000000000e+01
3.069700000000000000e+04,2.999999999999999737e-05,9.000000000000000567e-05,9.000000000000000567e-05,-1.399999999999999877e-04,-2.399999999999999790e-04,8.000000000000000654e-05,3.699999999999999947e-04,1.000000000000000082e-05,2.000000000000000000e+00,1.500000000000000000e+01
3.069800000000000000e+04,2.999999999999999737e-05,9.000000000000000567e-05,9.000000000000000567e-05,-1.399999999999999877e-04,-2.399999999999999790e-04,8.000000000000000654e-05,3.699999999999999947e-04,1.000000000000000082e-05,2.000000000000000000e+00,1.500000000000000000e+01
3.069900000000000000e+04,2.999999999999999737e-05,9.000000000000000567e-05,9.000000000000000567e-05,-1.399999999999999877e-04,-2.399999999999999790e-04,8.000000000000000654e-05,3.699999999999999947e-04,1.000000000000000082e-05,2.000000000000000000e+00,1.500000000000000000e+01
3.070000000000000000e+04,2.999999999999999737e-05,9.000000000000000567e-05,9.000000000000000567e-05,-1.399999999999999877e-04,-2.399999999999999790e-04,8.000000000000000654e-05,3.699999999999999947e-04,1.000000000000000082e-05,2.000000000000000000e+00,1.500000000000000000e+01
3.070100000000000000e+04,2.399999999999999790e-04,1.600000000000000131e-04,4.000000000000000327e-05,-1.000000000000000082e-05,-1.600000000000000131e-04,-5.200000000000000629e-04,-9.000000000000000567e-05,2.100000000000000087e-04,2.000000000000000000e+00,1.500000000000000000e+01
3.070200000000000000e+04,0.000000000000000000e+00,-5.000000000000000240e-05,-1.600000000000000131e-04,-1.199999999999999895e-04,2.700000000000000035e-04,8.599999999999999789e-04,6.099999999999999737e-04,1.899999999999999834e-04,2.000000000000000000e+00,1.500000000000000000e+01
3.070300000000000000e+04,0.000000000000000000e+00,-5.000000000000000240e-05,-1.600000000000000131e-04,-1.199999999999999895e-04,2.700000000000000035e-04,8.599999999999999789e-04,6.099999999999999737e-04,1.899999999999999834e-04,2.000000000000000000e+00,1.500000000000000000e+01
3.070400000000000000e+04,0.000000000000000000e+00,-5.000000000000000240e-05,-1.600000000000000131e-04,-1.199999999999999895e-04,2.700000000000000035e-04,8.599999999999999789e-04,6.099999999999999737e-04,1.899999999999999834e-04,2.000000000000000000e+00,1.500000000000000000e+01
3.070500000000000000e+04,0.000000000000000000e+00,-5.000000000000000240e-05,-1.600000000000000131e-04,-1.199999999999999895e-04,2.700000000000000035e-04,8.599999999999999789e-04,6.099999999999999737e-04,1.899999999999999834e-04,2.000000000000000000e+00,1.500000000000000000e+01
3.070600000000000000e+04,0.000000000000000000e+00,-5.000000000000000240e-05,-1.600000000000000131e-04,-1.199999999999999895e-04,2.700000000000000035e-04,8.599999999999999789e-04,6.099999999999999737e-04,1.899999999999999834e-04,2.000000000000000000e+00,1.500000000000000000e+01
3.070700000000000000e+04,0.000000000000000000e+00,-5.000000000000000240e-05,-1.600000000000000131e-04,-1.199999999999999895e-04,2.700000000000000035e-04,8.599999999999999789e-04,6.099999999999999737e-04,1.899999999999999834e-04,2.000000000000000000e+00,1.500000000000000000e+01
3.070800000000000000e+04,0.000000000000000000e+00,-5.000000000000000240e-05,-1.600000000000000131e-04,-1.199999999999999895e-04,2.700000000000000035e-04,8.599999999999999789e-04,6.099999999999999737e-04,1.899999999999999834e-04,2.000000000000000000e+00,1.500000000000000000e+01
3.070900000000000000e+04,0.000000000000000000e+00,-5.000000000000000240e-05,-1.600000000000000131e-04,-1.199999999999999895e-04,2.700000000000000035e-04,8.599999999999999789e-04,6.099999999999999737e-04,1.899999999999999834e-04,2.000000000000000000e+00,1.500000000000000000e+01
3.071000000000000000e+04,0.000000000000000000e+00,-5.000000000000000240e-05,-1.600000000000000131e-04,-1.199999999999999895e-04,2.700000000000000035e-04,8.599999999999999789e-04,6.099999999999999737e-04,1.899999999999999834e-04,2.000000000000000000e+00,1.500000000000000000e+01
3.071100000000000000e+04,0.000000000000000000e+00,-5.000000000000000240e-05,-1.600000000000000131e-04,-1.199999999999999895e-04,2.700000000000000035e-04,8.599999999999999789e-04,6.099999999999999737e-04,1.899999999999999834e-04,2.000000000000000000e+00,1.500000000000000000e+01
3.071200000000000000e+04,0.000000000000000000e+00,-5.000000000000000240e-05,-1.600000000000000131e-04,-1.199999999999999895e-04,2.700000000000000035e-04,8.599999999999999789e-04,6.099999999999999737e-04,1.899999999999999834e-04,2.000000000000000000e+00,1.500000000000000000e+01
3.071300000000000000e+04,0.000000000000000000e+00,-5.000000000000000240e-05,-1.600000000000000131e-04,-1.199999999999999895e-04,2.700000000000000035e-04,8.599999999999999789e-04,6.099999999999999737e-04,1.899999999999999834e-04,2.000000000000000000e+00,1.500000000000000000e+01
3.071400000000000000e+04,0.000000000000000000e+00,-5.000000000000000240e-05,-1.600000000000000131e-04,-1.199999999999999895e-04,2.700000000000000035e-04,8.599999999999999789e-04,6.099999999999999737e-04,1.899999999999999834e-04,2.000000000000000000e+00,1.500000000000000000e+01
3.071500000000000000e+04,0.000000000000000000e+00,-5.000000000000000240e-05,-1.600000000000000131e-04,-1.199999999999999895e-04,2.700000000000000035e-04,8.599999999999999789e-04,6.099999999999999737e-04,1.899999999999999834e-04,2.000000000000000000e+00,1.500000000000000000e+01
3.071600000000000000e+04,0.000000000000000000e+00,-5.000000000000000240e-05,-1.600000000000000131e-04,-1.199999999999999895e-04,2.700000000000000035e-04,8.599999999999999789e-04,6.099999999999999737e-04,1.899999999999999834e-04,2.000000000000000000e+00,1.500000000000000000e+01
3.071700000000000000e+04,0.000000000000000000e+00,-5.000000000000000240e-05,-1.600000000000000131e-04,-1.199999999999999895e-04,2.700000000000000035e-04,8.599999999999999789e-04,6.099999999999999737e-04,1.899999999999999834e-04,2.000000000000000000e+00,1.500000000000000000e+01
