4.226200000000000000e+04,6.999999999999999387e-05,1.000000000000000082e-05,4.000000000000000327e-05,5.999999999999999474e-05,2.999999999999999737e-05,-1.800000000000000113e-04,5.999999999999999474e-05,6.999999999999999387e-05,3.000000000000000000e+00,1.700000000000000000e+01
4.226300000000000000e+04,6.999999999999999387e-05,1.000000000000000082e-05,4.000000000000000327e-05,5.999999999999999474e-05,2.999999999999999737e-05,-1.800000000000000113e-04,5.999999999999999474e-05,6.999999999999999387e-05,3.000000000000000000e+00,1.700000000000000000e+01
4.226400000000000000e+04,6.999999999999999387e-05,1.000000000000000082e-05,4.000000000000000327e-05,5.999999999999999474e-05,2.999999999999999737e-05,-1.800000000000000113e-04,5.999999999999999474e-05,6.999999999999999387e-05,3.000000000000000000e+00,1.700000000000000000e+01
4.226500000000000000e+04,6.999999999999999387e-05,1.000000000000000082e-05,4.000000000000000327e-05,5.999999999999999474e-05,2.999999999999999737e-05,-1.800000000000000113e-04,5.999999999999999474e-05,6.999999999999999387e-05,3.000000000000000000e+00,1.700000000000000000e+01
4.226600000000000000e+04,-1.000000000000000048e-04,-8.000000000000000654e-05,-9.000000000000000567e-05,-1.100000000000000039e-04,-1.899999999999999834e-04,-1.600000000000000131e-04,1.499999999999999869e-04,2.999999999999999737e-05,3.000000000000000000e+00,1.700000000000000000e+01
4.226700000000000000e+04,-1.000000000000000048e-04,-8.000000000000000654e-05,-9.000000000000000567e-05,-1.100000000000000039e-04,-1.899999999999999834e-04,-1.600000000000000131e-04,1.499999999999999869e-04,2.999999999999999737e-05,3.000000000000000000e+00,1.700000000000000000e+01
4.226800000000000000e+04,-1.000000000000000048e-04,-8.000000000000000654e-05,-9.000000000000000567e-05,-1.100000000000000039e-04,-1.899999999999999834e-04,-1.600000000000000131e-04,1.499999999999999869e-04,2.999999999999999737e-05,3.000000000000000000e+00,1.700000000000000000e+01
4.226900000000000000e+04,-1.000000000000000048e-04,-8.000000000000000654e-05,-9.000000000000000567e-05,-1.100000000000000039e-04,-1.899999999999999834e-04,-1.600000000000000131e-04,1.499999999999999869e-04,2.999999999999999737e-05,3.000000000000000000e+00,1.700000000000000000e+01
4.227000000000000000e+04,-1.000000000000000048e-04,-8.000000000000000654e-05,-9.000000000000000567e-05,-1.100000000000000039e-04,-1.899999999999999834e-04,-1.600000000000000131e-04,1.499999999999999869e-04,2.999999999999999737e-05,3.000000000000000000e+00,1.700000000000000000e+01
4.227100000000000000e+04,-1.000000000000000048e-04,-8.000000000000000654e-05,-9.000000000000000567e-05,-1.100000000000000039e-04,-1.899999999999999834e-04,-1.600000000000000131e-04,1.499999999999999869e-04,2.999999999999999737e-05,3.000000000000000000e+00,1.700000000000000000e+01
4.227200000000000000e+04,-1.000000000000000048e-04,-8.000000000000000654e-05,-9.000000000000000567e-05,-1.100000000000000039e-04,-1.899999999999999834e-04,-1.600000000000000131e-04,1.499999999999999869e-04,2.999999999999999737e-05,3.000000000000000000e+00,1.700000000000000000e+01
4.227300000000000000e+04,-1.000000000000000048e-04,-8.000000000000000654e-05,-9.000000000000000567e-05,-1.100000000000000039e-04,-1.899999999999999834e-04,-1.600000000000000131e-04,1.499999999999999869e-04,2.999999999999999737e-05,3.000000000000000000e+00,1.700000000000000000e+01
4.227400000000000000e+04,-1.000000000000000048e-04,-8.000000000000000654e-05,-9.000000000000000567e-05,-1.100000000000000039e-04,-1.899999999999999834e-04,-1.600000000000000131e-04,1.499999999999999869e-04,2.999999999999999737e-05,3.000000000000000000e+00,1.700000000000000000e+01
4.227500000000000000e+04,-1.000000000000000048e-04,-8.000000000000000654e-05,-9.000000000000000567e-05,-1.100000000000000039e-04,-1.899999999999999834e-04,-1.600000000000000131e-04,1.499999999999999869e-04,2.999999999999999737e-05,3.000000000000000000e+00,1.700000000000000000e+01
4.227600000000000000e+04,-1.000000000000000048e-04,-8.000000000000000654e-05,-9.000000000000000567e-05,-1.100000000000000039e-04,-1.899999999999999834e-04,-1.600000000000000131e-04,1.499999999999999869e-04,2.999999999999999737e-05,3.000000000000000000e+00,1.700000000000000000e+01
4.227700000000000000e+04,-1.000000000000000048e-04,-8.000000000000000654e-05,-9.000000000000000567e-05,-1.100000000000000039e-04,-1.899999999999999834e-04,-1.600000000000000131e-04,1.499999999999999869e-04,2.999999999999999737e-05,3.000000000000000000e+00,1.700000000000000000e+01
4.227800000000000000e+04,-1.000000000000000048e-04,-8.000000000000000654e-05,-9.000000000000000567e-05,-1.100000000000000039e-04,-1.899999999999999834e-04,-1.600000000000000131e-04,1.499999999999999869e-04,2.999999999999999737e-05,3.000000000000000000e+00,1.700000000000000000e+01
4.227900000000000000e+04,-1.000000000000000048e-04,-8.000000000000000654e-05,-9.000000000000000567e-05,-1.100000000000000039e-04,-1.899999999999999834e-04,-1.600000000000000131e-04,1.499999999999999869e-04,2.999999999999999737e-05,3.000000000000000000e+00,1.700000000000000000e+01
4.228000000000000000e+04,-1.000000000000000048e-04,-8.000000000000000654e-05,-9.000000000000000567e-05,-1.100000000000000039e-04,-1.899999999999999834e-04,-1.600000000000000131e-04,1.499999999999999869e-04,2.999999999999999737e-05,3.000000000000000000e+00,1.700000000000000000e+01
4.228100000000000000e+04,-5.000000000000000240e-05,-2.000000000000000164e-05,-5.000000000000000240e-05,-1.399999999999999877e-04,-2.100000000000000087e-04,8.000000000000000654e-05,-2.200000000000000078e-04,-5.999999999999999474e-05,3.000000000000000000e+00,1.700000000000000000e+01
4.228200000000000000e+04,-1.300000000000000157e-04,-5.000000000000000240e-05,-6.999999999999999387e-05,-5.000000000000000240e-05,-2.200000000000000078e-04,-2.000000000000000096e-04,1.300000000000000157e-04,-5.000000000000000240e-05,3.000000000000000000e+00,1.700000000000000000e+01
4.228300000000000000e+04,9.000000000000000567e-05,4.000000000000000327e-05,5.000000000000000240e-05,9.000000000000000567e-05,1.399999999999999877e-04,-1.499999999999999869e-04,-1.000000000000000082e-05,2.999999999999999737e-05,3.000000000000000000e+00,1.700000000000000000e+01
4.228400000000000000e+04,9.000000000000000567e-05,4.000000000000000327e-05,5.000000000000000240e-05,9.000000000000000567e-05,1.399999999999999877e-04,-1.499999999999999869e-04,-1.000000000000000082e-05,2.999999999999999737e-05,3.000000000000000000e+00,1.700000000000000000e+01
4.228500000000000000e+04,9.000000000000000567e-05,4.000000000000000327e-05,5.000000000000000240e-05,9.000000000000000567e-05,1.399999999999999877e-04,-1.499999999999999869e-04,-1.000000000000000082e-05,2.999999999999999737e-05,3.000000000000000000e+00,1.700000000000000000e+01
4.228700000000000000e+04,9.000000000000000567e-05,4.000000000000000327e-05,5.000000000000000240e-05,9.000000000000000567e-05,1.399999999999999877e-04,-1.499999999999999869e-04,-1.000000000000000082e-05,2.999999999999999737e-05,3.000000000000000000e+00,1.700000000000000000e+01
4.228900000000000000e+04,9.000000000000000567e-05,4.000000000000000327e-05,5.000000000000000240e-05,9.000000000000000567e-05,1.399999999999999877e-04,-1.499999999999999869e-04,-1.000000000000000082e-05,2.999999999999999737e-05,3.000000000000000000e+00,1.700000000000000000e+01
4.229000000000000000e+04,9.000000000000000567e-05,4.000000000000000327e-05,5.000000000000000240e-05,9.000000000000000567e-05,1.399999999999999877e-04,-1.499999999999999869e-04,-1.000000000000000082e-05,2.999999999999999737e-05,3.000000000000000000e+00,1.700000000000000000e+01
4.229100000000000000e+04,9.000000000000000567e-05,4.000000000000000327e-05,5.000000000000000240e-05,9.000000000000000567e-05,1.399999999999999877e-04,-1.499999999999999869e-04,-1.000000000000000082e-05,2.999999999999999737e-05,3.000000000000000000e+00,1.700000000000000000e+01
4.229200000000000000e+04,9.000000000000000567e-05,4.000000000000000327e-05,5.000000000000000240e-05,9.000000000000000567e-05,1.399999999999999877e-04,-1.499999999999999869e-04,-1.000000000000000082e-05,2.999999999999999737e-05,3.000000000000000000e+00,1.700000000000000000e+01
4.229300000000000000e+04,9.000000000000000567e-05,4.000000000000000327e-05,5.000000000000000240e-05,9.000000000000000567e-05,1.399999999999999877e-04,-1.499999999999999869e-04,-1.000000000000000082e-05,2.999999999999999737e-05,3.000000000000000000e+00,1.700000000000000000e+01
4.229400000000000000e+04,9.000000000000000567e-05,4.000000000000000327e-05,5.000000000000000240e-05,9.000000000000000567e-05,1.399999999999999877e-04,-1.499999999999999869e-04,-1.000000000000000082e-05,2.999999999999999737e-05,3.000000000000000000e+00,1.700000000000000000e+01
4.229500000000000000e+04,9.000000000000000567e-05,4.000000000000000327e-05,5.000000000000000240e-05,9.000000000000000567e-05,1.399999999999999877e-04,-1.499999999999999869e-04,-1.000000000000000082e-05,2.999999999999999737e-05,3.000000000000000000e+00,1.700000000000000000e+01
4.229600000000000000e+04,9.000000000000000567e-05,4.000000000000000327e-05,5.000000000000000240e-05,9.000000000000000567e-05,1.399999999999999877e-04,-1.499999999999999869e-04,-1.000000000000000082e-05,2.999999999999999737e-05,3.000000000000000000e+00,1.700000000000000000e+01
4.229700000000000000e+04,9.000000000000000567e-05,4.000000000000000327e-05,5.000000000000000240e-05,9.000000000000000567e-05,1.399999999999999877e-04,-1.499999999999999869e-04,-1.000000000000000082e-05,2.999999999999999737e-05,3.000000000000000000e+00,1.700000000000000000e+01
4.229800000000000000e+04,9.000000000000000567e-05,4.000000000000000327e-05,5.000000000000000240e-05,9.000000000000000567e-05,1.399999999999999877e-04,-1.499999999999999869e-04,-1.000000000000000082e-05,2.999999999999999737e-05,3.000000000000000000e+00,1.700000000000000000e+01
4.229900000000000000e+04,9.000000000000000567e-05,4.000000000000000327e-05,5.000000000000000240e-05,9.000000000000000567e-05,1.399999999999999877e-04,-1.499999999999999869e-04,-1.000000000000000082e-05,2.999999999999999737e-05,3.000000000000000000e+00,1.700000000000000000e+01
4.230000000000000000e+04,9.000000000000000567e-05,4.000000000000000327e-05,5.000000000000000240e-05,9.000000000000000567e-05,1.399999999999999877e-04,-1.499999999999999869e-04,-1.000000000000000082e-05,2.999999999999999737e-05,3.000000000000000000e+00,1.700000000000000000e+01
4.230100000000000000e+04,9.000000000000000567e-05,4.000000000000000327e-05,5.000000000000000240e-05,9.000000000000000567e-05,1.399999999999999877e-04,-1.499999999999999869e-04,-1.000000000000000082e-05,2.999999999999999737e-05,3.000000000000000000e+00,1.700000000000000000e+01
4.230200000000000000e+04,9.000000000000000567e-05,4.000000000000000327e-05,5.000000000000000240e-05,9.000000000000000567e-05,1.399999999999999877e-04,-1.499999999999999869e-04,-1.000000000000000082e-05,2.999999999999999737e-05,3.000000000000000000e+00,1.700000000000000000e+01
4.230400000000000000e+04,-1.399999999999999877e-04,-4.000000000000000327e-05,-6.999999999999999387e-05,-1.100000000000000039e-04,-9.000000000000000567e-05,-5.000000000000000240e-05,1.000000000000000048e-04,1.000000000000000082e-05,3.000000000000000000e+00,1.700000000000000000e+01
4.230500000000000000e+04,-8.000000000000000654e-05,0.000000000000000000e+00,1.000000000000000082e-05,1.300000000000000157e-04,2.500000000000000052e-04,1.399999999999999877e-04,-3.499999999999999964e-04,-1.100000000000000039e-04,3.000000000000000000e+00,1.700000000000000000e+01
4.230600000000000000e+04,-8.000000000000000654e-05,0.000000000000000000e+00,1.000000000000000082e-05,1.300000000000000157e-04,2.500000000000000052e-04,1.399999999999999877e-04,-3.499999999999999964e-04,-1.100000000000000039e-04,3.000000000000000000e+00,1.700000000000000000e+01
4.230700000000000000e+04,-8.000000000000000654e-05,0.000000000000000000e+00,1.000000000000000082e-05,1.300000000000000157e-04,2.500000000000000052e-04,1.399999999999999877e-04,-3.499999999999999964e-04,-1.100000000000000039e-04,3.000000000000000000e+00,1.700000000000000000e+01
4.230800000000000000e+04,-8.000000000000000654e-05,0.000000000000000000e+00,1.000000000000000082e-05,1.300000000000000157e-04,2.500000000000000052e-04,1.399999999999999877e-04,-3.499999999999999964e-04,-1.100000000000000039e-04,3.000000000000000000e+00,1.700000000000000000e+01
4.230900000000000000e+04,-8.000000000000000654e-05,0.000000000000000000e+00,1.000000000000000082e-05,1.300000000000000157e-04,2.500000000000000052e-04,1.399999999999999877e-04,-3.499999999999999964e-04,-1.100000000000000039e-04,3.000000000000000000e+00,1.700000000000000000e+01
4.231000000000000000e+04,-8.000000000000000654e-05,0.000000000000000000e+00,1.000000000000000082e-05,1.300000000000000157e-04,2.500000000000000052e-04,1.399999999999999877e-04,-3.499999999999999964e-04,-1.100000000000000039e-04,3.000000000000000000e+00,1.700000000000000000e+01
4.231100000000000000e+04,-8.000000000000000654e-05,0.000000000000000000e+00,1.000000000000000082e-05,1.300000000000000157e-04,2.500000000000000052e-04,1.399999999999999877e-04,-3.499999999999999964e-04,-1.100000000000000039e-04,3.000000000000000000e+00,1.700000000000000000e+01
4.231200000000000000e+04,-8.000000000000000654e-05,0.000000000000000000e+00,1.000000000000000082e-05,1.300000000000000157e-04,2.500000000000000052e-04,1.399999999999999877e-04,-3.499999999999999964e-04,-1.100000000000000039e-04,3.000000000000000000e+00,1.700000000000000000e+01
4.231300000000000000e+04,-8.000000000000000654e-05,0.000000000000000000e+00,1.000000000000000082e-05,1.300000000000000157e-04,2.500000000000000052e-04,1.399999999999999877e-04,-3.499999999999999964e-04,-1.100000000000000039e-04,3.000000000000000000e+00,1.700000000000000000e+01
4.231400000000000000e+04,-8.000000000000000654e-05,0.000000000000000000e+00,1.000000000000000082e-05,1.300000000000000157e-04,2.500000000000000052e-04,1.399999999999999877e-04,-3.499999999999999964e-04,-1.100000000000000039e-04,3.000000000000000000e+00,1.700000000000000000e+01
4.231500000000000000e+04,-8.000000000000000654e-05,0.000000000000000000e+00,1.000000000000000082e-05,1.300000000000000157e-04,2.500000000000000052e-04,1.399999999999999877e-04,-3.499999999999999964e-04,-1.100000000000000039e-04,3.000000000000000000e+00,1.700000000000000000e+01
4.231600000000000000e+04,-8.000000000000000654e-05,0.000000000000000000e+00,1.000000000000000082e-05,1.300000000000000157e-04,2.500000000000000052e-04,1.399999999999999877e-04,-3.499999999999999964e-04,-1.100000000000000039e-04,3.000000000000000000e+00,1.700000000000000000e+01
4.231700000000000000e+04,-8.000000000000000654e-05,0.000000000000000000e+00,1.000000000000000082e-05,1.300000000000000157e-04,2.500000000000000052e-04,1.399999999999999877e-04,-3.499999999999999964e-04,-1.100000000000000039e-04,3.000000000000000000e+00,1.700000000000000000e+01
4.231800000000000000e+04,-8.000000000000000654e-05,0.000000000000000000e+00,1.000000000000000082e-05,1.300000000000000157e-04,2.500000000000000052e-04,1.399999999999999877e-04,-3.499999999999999964e-04,-1.100000000000000039e-04,3.000000000000000000e+00,1.700000000000000000e+01
4.231900000000000000e+04,-8.000000000000000654e-05,0.000000000000000000e+00,1.000000000000000082e-05,1.300000000000000157e-04,2.500000000000000052e-04,1.399999999999999877e-04,-3.499999999999999964e-04,-1.100000000000000039e-04,3.000000000000000000e+00,1.700000000000000000e+01
4.232000000000000000e+04,-8.000000000000000654e-05,0.000000000000000000e+00,1.000000000000000082e-05,1.300000000000000157e-04,2.500000000000000052e-04,1.399999999999999877e-04,-3.499999999999999964e-04,-1.100000000000000039e-04,3.000000000000000000e+00,1.700000000000000000e+01
4.232100000000000000e+04,-8.000000000000000654e-05,0.000000000000000000e+00,1.000000000000000082e-05,1.300000000000000157e-04,2.500000000000000052e-04,1.399999999999999877e-04,-3.499999999999999964e-04,-1.100000000000000039e-04,3.000000000000000000e+00,1.700000000000000000e+01
4.232200000000000000e+04,-8.000000000000000654e-05,0.000000000000000000e+00,1.000000000000000082e-05,1.300000000000000157e-04,2.500000000000000052e-04,1.399999999999999877e-04,-3.499999999999999964e-04,-1.100000000000000039e-04,3.000000000000000000e+00,1.700000000000000000e+01
4.232300000000000000e+04,-8.000000000000000654e-05,0.000000000000000000e+00,1.000000000000000082e-05,1.300000000000000157e-04,2.500000000000000052e-04,1.399999999999999877e-04,-3.499999999999999964e-04,-1.100000000000000039e-04,3.000000000000000000e+00,1.700000000000000000e+01
4.232400000000000000e+04,-8.000000000000000654e-05,0.000000000000000000e+00,1.000000000000000082e-05,1.300000000000000157e-04,2.500000000000000052e-04,1.399999999999999877e-04,-3.499999999999999964e-04,-1.100000000000000039e-04,3.000000000000000000e+00,1.700000000000000000e+01
4.232500000000000000e+04,-8.000000000000000654e-05,0.000000000000000000e+00,1.000000000000000082e-05,1.300000000000000157e-04,2.500000000000000052e-04,1.399999999999999877e-04,-3.499999999999999964e-04,-1.100000000000000039e-04,3.000000000000000000e+00,1.700000000000000000e+01
4.232600000000000000e+04,-8.000000000000000654e-05,0.000000000000000000e+00,1.000000000000000082e-05,1.300000000000000157e-04,2.500000000000000052e-04,1.399999999999999877e-04,-3.499999999999999964e-04,-1.100000000000000039e-04,3.000000000000000000e+00,1.700000000000000000e+01
4.232700000000000000e+04,-8.000000000000000654e-05,0.000000000000000000e+00,1.000000000000000082e-05,1.300000000000000157e-04,2.500000000000000052e-04,1.399999999999999877e-04,-3.499999999999999964e-04,-1.100000000000000039e-04,3.000000000000000000e+00,1.700000000000000000e+01
4.232800000000000000e+04,-8.000000000000000654e-05,0.000000000000000000e+00,1.000000000000000082e-05,1.300000000000000157e-04,2.500000000000000052e-04,1.399999999999999877e-04,-3.499999999999999964e-04,-1.100000000000000039e-04,3.000000000000000000e+00,1.700000000000000000e+01
4.232900000000000000e+04,-8.000000000000000654e-05,0.000000000000000000e+00,1.000000000000000082e-05,1.300000000000000157e-04,2.500000000000000052e-04,1.399999999999999877e-04,-3.499999999999999964e-04,-1.100000000000000039e-04,3.000000000000000000e+00,1.700000000000000000e+01
4.233000000000000000e+04,-8.000000000000000654e-05,0.000000000000000000e+00,1.000000000000000082e-05,1.300000000000000157e-04,2.500000000000000052e-04,1.399999999999999877e-04,-3.499999999999999964e-04,-1.100000000000000039e-04,3.000000000000000000e+00,1.700000000000000000e+01
4.233100000000000000e+04,-8.000000000000000654e-05,0.000000000000000000e+00,1.000000000000000082e-05,1.300000000000000157e-04,2.500000000000000052e-04,1.399999999999999877e-04,-3.499999999999999964e-04,-1.100000000000000039e-04,3.000000000000000000e+00,1.700000000000000000e+01
4.233200000000000000e+04,-8.000000000000000654e-05,0.000000000000000000e+00,1.000000000000000082e-05,1.300000000000000157e-04,2.500000000000000052e-04,1.399999999999999877e-04,-3.499999999999999964e-04,-1.100000000000000039e-04,3.000000000000000000e+00,1.700000000000000000e+01
4.233300000000000000e+04,-1.100000000000000039e-04,2.999999999999999737e-05,2.000000000000000164e-05,-6.999999999999999387e-05,-3.099999999999999999e-04,-1.499999999999999869e-04,6.499999999999999702e-04,1.000000000000000082e-05,3.000000000000000000e+00,1.700000000000000000e+01
4.233400000000000000e+04,1.000000000000000082e-05,-2.999999999999999737e-05,-1.000000000000000082e-05,1.199999999999999895e-04,4.200000000000000174e-04,2.000000000000000096e-04,-1.499999999999999869e-04,-4.000000000000000327e-05,3.000000000000000000e+00,1.700000000000000000e+01
4.233500000000000000e+04,1.000000000000000082e-05,-4.000000000000000327e-05,-2.000000000000000164e-05,-5.999999999999999474e-05,-1.600000000000000131e-04,-3.499999999999999964e-04,-2.299999999999999799e-04,-5.999999999999999474e-05,3.000000000000000000e+00,1.700000000000000000e+01
4.233700000000000000e+04,1.000000000000000082e-05,-4.000000000000000327e-05,-2.000000000000000164e-05,-5.999999999999999474e-05,-1.600000000000000131e-04,-3.499999999999999964e-04,-2.299999999999999799e-04,-5.999999999999999474e-05,3.000000000000000000e+00,1.700000000000000000e+01
4.233900000000000000e+04,1.000000000000000082e-05,-4.000000000000000327e-05,-2.000000000000000164e-05,-5.999999999999999474e-05,-1.600000000000000131e-04,-3.499999999999999964e-04,-2.299999999999999799e-04,-5.999999999999999474e-05,3.000000000000000000e+00,1.700000000000000000e+01
4.234000000000000000e+04,-5.999999999999999474e-05,5.000000000000000240e-05,4.000000000000000327e-05,0.000000000000000000e+00,-1.100000000000000039e-04,-1.000000000000000048e-04,-1.699999999999999851e-04,-2.000000000000000164e-05,3.000000000000000000e+00,1.700000000000000000e+01
4.234100000000000000e+04,-5.999999999999999474e-05,5.000000000000000240e-05,4.000000000000000327e-05,0.000000000000000000e+00,-1.100000000000000039e-04,-1.000000000000000048e-04,-1.699999999999999851e-04,-2.000000000000000164e-05,3.000000000000000000e+00,1.700000000000000000e+01
4.234200000000000000e+04,-5.999999999999999474e-05,5.000000000000000240e-05,4.000000000000000327e-05,0.000000000000000000e+00,-1.100000000000000039e-04,-1.000000000000000048e-04,-1.699999999999999851e-04,-2.000000000000000164e-05,3.000000000000000000e+00,1.700000000000000000e+01
4.234300000000000000e+04,-5.999999999999999474e-05,5.000000000000000240e-05,4.000000000000000327e-05,0.000000000000000000e+00,-1.100000000000000039e-04,-1.000000000000000048e-04,-1.699999999999999851e-04,-2.000000000000000164e-05,3.000000000000000000e+00,1.700000000000000000e+01
4.234400000000000000e+04,-5.999999999999999474e-05,5.000000000000000240e-05,4.000000000000000327e-05,0.000000000000000000e+00,-1.100000000000000039e-04,-1.000000000000000048e-04,-1.699999999999999851e-04,-2.000000000000000164e-05,3.000000000000000000e+00,1.700000000000000000e+01
4.234500000000000000e+04,-5.999999999999999474e-05,5.000000000000000240e-05,4.000000000000000327e-05,0.000000000000000000e+00,-1.100000000000000039e-04,-1.000000000000000048e-04,-1.699999999999999851e-04,-2.000000000000000164e-05,3.000000000000000000e+00,1.700000000000000000e+01
4.234600000000000000e+04,-5.999999999999999474e-05,5.000000000000000240e-05,4.000000000000000327e-05,0.000000000000000000e+00,-1.100000000000000039e-04,-1.000000000000000048e-04,-1.699999999999999851e-04,-2.000000000000000164e-05,3.000000000000000000e+00,1.700000000000000000e+01
4.234700000000000000e+04,2.399999999999999790e-04,1.000000000000000082e-05,0.000000000000000000e+00,5.999999999999999474e-05,2.000000000000000096e-04,1.000000000000000048e-04,2.900000000000000017e-04,-5.000000000000000240e-05,3.000000000000000000e+00,1.700000000000000000e+01
4.234800000000000000e+04,2.399999999999999790e-04,1.000000000000000082e-05,0.000000000000000000e+00,5.999999999999999474e-05,2.000000000000000096e-04,1.000000000000000048e-04,2.900000000000000017e-04,-5.000000000000000240e-05,3.000000000000000000e+00,1.700000000000000000e+01
4.234900000000000000e+04,2.399999999999999790e-04,1.000000000000000082e-05,0.000000000000000000e+00,5.999999999999999474e-05,2.000000000000000096e-04,1.000000000000000048e-04,2.900000000000000017e-04,-5.000000000000000240e-05,3.000000000000000000e+00,1.700000000000000000e+01
4.235000000000000000e+04,2.399999999999999790e-04,1.000000000000000082e-05,0.000000000000000000e+00,5.999999999999999474e-05,2.000000000000000096e-04,1.000000000000000048e-04,2.900000000000000017e-04,-5.000000000000000240e-05,3.000000000000000000e+00,1.700000000000000000e+01
4.235100000000000000e+04,2.399999999999999790e-04,1.000000000000000082e-05,0.000000000000000000e+00,5.999999999999999474e-05,2.000000000000000096e-04,1.000000000000000048e-04,2.900000000000000017e-04,-5.000000000000000240e-05,3.000000000000000000e+00,1.700000000000000000e+01
4.235200000000000000e+04,2.399999999999999790e-04,1.000000000000000082e-05,0.000000000000000000e+00,5.999999999999999474e-05,2.000000000000000096e-04,1.000000000000000048e-04,2.900000000000000017e-04,-5.000000000000000240e-05,3.000000000000000000e+00,1.700000000000000000e+01
4.235400000000000000e+04,2.399999999999999790e-04,1.000000000000000082e-05,0.000000000000000000e+00,5.999999999999999474e-05,2.000000000000000096e-04,1.000000000000000048e-04,2.900000000000000017e-04,-5.000000000000000240e-05,3.000000000000000000e+00,1.700000000000000000e+01
4.235500000000000000e+04,2.399999999999999790e-04,1.000000000000000082e-05,0.000000000000000000e+00,5.999999999999999474e-05,2.000000000000000096e-04,1.000000000000000048e-04,2.900000000000000017e-04,-5.000000000000000240e-05,3.000000000000000000e+00,1.700000000000000000e+01
4.235600000000000000e+04,2.399999999999999790e-04,1.000000000000000082e-05,0.000000000000000000e+00,5.999999999999999474e-05,2.000000000000000096e-04,1.000000000000000048e-04,2.900000000000000017e-04,-5.000000000000000240e-05,3.000000000000000000e+00,1.700000000000000000e+01
4.235700000000000000e+04,2.399999999999999790e-04,1.000000000000000082e-05,0.000000000000000000e+00,5.999999999999999474e-05,2.000000000000000096e-04,1.000000000000000048e-04,2.900000000000000017e-04,-5.000000000000000240e-05,3.000000000000000000e+00,1.700000000000000000e+01
4.235800000000000000e+04,2.399999999999999790e-04,1.000000000000000082e-05,0.000000000000000000e+00,5.999999999999999474e-05,2.000000000000000096e-04,1.000000000000000048e-04,2.900000000000000017e-04,-5.000000000000000240e-05,3.000000000000000000e+00,1.700000000000000000e+01
4.235900000000000000e+04,2.399999999999999790e-04,1.000000000000000082e-05,0.000000000000000000e+00,5.999999999999999474e-05,2.000000000000000096e-04,1.000000000000000048e-04,2.900000000000000017e-04,-5.000000000000000240e-05,3.000000000000000000e+00,1.700000000000000000e+01
4.236000000000000000e+04,2.399999999999999790e-04,1.000000000000000082e-05,0.000000000000000000e+00,5.999999999999999474e-05,2.000000000000000096e-04,1.000000000000000048e-04,2.900000000000000017e-04,-5.000000000000000240e-05,3.000000000000000000e+00,1.700000000000000000e+01
4.236100000000000000e+04,2.399999999999999790e-04,1.000000000000000082e-05,0.000000000000000000e+00,5.999999999999999474e-05,2.000000000000000096e-04,1.000000000000000048e-04,2.900000000000000017e-04,-5.000000000000000240e-05,3.000000000000000000e+00,1.700000000000000000e+01
4.236200000000000000e+04,2.399999999999999790e-04,1.000000000000000082e-05,0.000000000000000000e+00,5.999999999999999474e-05,2.000000000000000096e-04,1.000000000000000048e-04,2.900000000000000017e-04,-5.000000000000000240e-05,3.000000000000000000e+00,1.700000000000000000e+01
4.236300000000000000e+04,-1.199999999999999895e-04,-5.000000000000000240e-05,-6.999999999999999387e-05,-1.899999999999999834e-04,-2.999999999999999737e-04,-5.999999999999999474e-05,-1.000000000000000048e-04,1.000000000000000082e-05,3.000000000000000000e+00,1.700000000000000000e+01
4.236400000000000000e+04,8.000000000000000654e-05,-5.999999999999999474e-05,-2.000000000000000164e-05,4.000000000000000327e-05,1.399999999999999877e-04,-6.999999999999999387e-05,-1.100000000000000039e-04,-2.999999999999999737e-05,3.000000000000000000e+00,1.700000000000000000e+01
4.236500000000000000e+04,-1.800000000000000113e-04,-1.000000000000000082e-05,-2.999999999999999737e-05,-8.000000000000000654e-05,-1.399999999999999877e-04,-1.000000000000000082e-05,1.399999999999999877e-04,5.999999999999999474e-05,3.000000000000000000e+00,1.700000000000000000e+01
4.236600000000000000e+04,-1.800000000000000113e-04,-1.000000000000000082e-05,-2.999999999999999737e-05,-8.000000000000000654e-05,-1.399999999999999877e-04,-1.000000000000000082e-05,1.399999999999999877e-04,5.999999999999999474e-05,3.000000000000000000e+00,1.700000000000000000e+01
4.236700000000000000e+04,-1.800000000000000113e-04,-1.000000000000000082e-05,-2.999999999999999737e-05,-8.000000000000000654e-05,-1.399999999999999877e-04,-1.000000000000000082e-05,1.399999999999999877e-04,5.999999999999999474e-05,3.000000000000000000e+00,1.700000000000000000e+01
4.236800000000000000e+04,-1.800000000000000113e-04,-1.000000000000000082e-05,-2.999999999999999737e-05,-8.000000000000000654e-05,-1.399999999999999877e-04,-1.000000000000000082e-05,1.399999999999999877e-04,5.999999999999999474e-05,3.000000000000000000e+00,1.700000000000000000e+01
4.236900000000000000e+04,-1.800000000000000113e-04,-1.000000000000000082e-05,-2.999999999999999737e-05,-8.000000000000000654e-05,-1.399999999999999877e-04,-1.000000000000000082e-05,1.399999999999999877e-04,5.999999999999999474e-05,3.000000000000000000e+00,1.700000000000000000e+01
4.237000000000000000e+04,-1.800000000000000113e-04,-1.000000000000000082e-05,-2.999999999999999737e-05,-8.000000000000000654e-05,-1.399999999999999877e-04,-1.000000000000000082e-05,1.399999999999999877e-04,5.999999999999999474e-05,3.000000000000000000e+00,1.700000000000000000e+01
4.237100000000000000e+04,-1.800000000000000113e-04,-1.000000000000000082e-05,-2.999999999999999737e-05,-8.000000000000000654e-05,-1.399999999999999877e-04,-1.000000000000000082e-05,1.399999999999999877e-04,5.999999999999999474e-05,3.000000000000000000e+00,1.700000000000000000e+01
4.237200000000000000e+04,-1.800000000000000113e-04,-1.000000000000000082e-05,-2.999999999999999737e-05,-8.000000000000000654e-05,-1.399999999999999877e-04,-1.000000000000000082e-05,1.399999999999999877e-04,5.999999999999999474e-05,3.000000000000000000e+00,1.700000000000000000e+01
4.237300000000000000e+04,-1.800000000000000113e-04,-1.000000000000000082e-05,-2.999999999999999737e-05,-8.000000000000000654e-05,-1.399999999999999877e-04,-1.000000000000000082e-05,1.399999999999999877e-04,5.999999999999999474e-05,3.000000000000000000e+00,1.700000000000000000e+01
4.237400000000000000e+04,-1.800000000000000113e-04,-1.000000000000000082e-05,-2.999999999999999737e-05,-8.000000000000000654e-05,-1.399999999999999877e-04,-1.000000000000000082e-05,1.399999999999999877e-04,5.999999999999999474e-05,3.000000000000000000e+00,1.700000000000000000e+01
4.237500000000000000e+04,-1.800000000000000113e-04,-1.000000000000000082e-05,-2.999999999999999737e-05,-8.000000000000000654e-05,-1.399999999999999877e-04,-1.000000000000000082e-05,1.399999999999999877e-04,5.999999999999999474e-05,3.000000000000000000e+00,1.700000000000000000e+01
4.237600000000000000e+04,-1.800000000000000113e-04,-1.000000000000000082e-05,-2.999999999999999737e-05,-8.000000000000000654e-05,-1.399999999999999877e-04,-1.000000000000000082e-05,1.399999999999999877e-04,5.999999999999999474e-05,3.000000000000000000e+00,1.700000000000000000e+01
4.237700000000000000e+04,-1.800000000000000113e-04,-1.000000000000000082e-05,-2.999999999999999737e-05,-8.000000000000000654e-05,-1.399999999999999877e-04,-1.000000000000000082e-05,1.399999999999999877e-04,5.999999999999999474e-05,3.000000000000000000e+00,1.700000000000000000e+01
4.237800000000000000e+04,-1.800000000000000113e-04,-1.000000000000000082e-05,-2.999999999999999737e-05,-8.000000000000000654e-05,-1.399999999999999877e-04,-1.000000000000000082e-05,1.399999999999999877e-04,5.999999999999999474e-05,3.000000000000000000e+00,1.700000000000000000e+01
4.237900000000000000e+04,-1.800000000000000113e-04,-1.000000000000000082e-05,-2.999999999999999737e-05,-8.000000000000000654e-05,-1.399999999999999877e-04,-1.000000000000000082e-05,1.399999999999999877e-04,5.999999999999999474e-05,3.000000000000000000e+00,1.700000000000000000e+01
4.238000000000000000e+04,-1.800000000000000113e-04,-1.000000000000000082e-05,-2.999999999999999737e-05,-8.000000000000000654e-05,-1.399999999999999877e-04,-1.000000000000000082e-05,1.399999999999999877e-04,5.999999999999999474e-05,3.000000000000000000e+00,1.700000000000000000e+01
4.238100000000000000e+04,-1.800000000000000113e-04,-1.000000000000000082e-05,-2.999999999999999737e-05,-8.000000000000000654e-05,-1.399999999999999877e-04,-1.000000000000000082e-05,1.399999999999999877e-04,5.999999999999999474e-05,3.000000000000000000e+00,1.700000000000000000e+01
4.238200000000000000e+04,-1.800000000000000113e-04,-1.000000000000000082e-05,-2.999999999999999737e-05,-8.000000000000000654e-05,-1.399999999999999877e-04,-1.000000000000000082e-05,1.399999999999999877e-04,5.999999999999999474e-05,3.000000000000000000e+00,1.700000000000000000e+01
4.238300000000000000e+04,-1.800000000000000113e-04,-1.000000000000000082e-05,-2.999999999999999737e-05,-8.000000000000000654e-05,-1.399999999999999877e-04,-1.000000000000000082e-05,1.399999999999999877e-04,5.999999999999999474e-05,3.000000000000000000e+00,1.700000000000000000e+01
4.238400000000000000e+04,-1.800000000000000113e-04,-1.000000000000000082e-05,-2.999999999999999737e-05,-8.000000000000000654e-05,-1.399999999999999877e-04,-1.000000000000000082e-05,1.399999999999999877e-04,5.999999999999999474e-05,3.000000000000000000e+00,1.700000000000000000e+01
4.238500000000000000e+04,-1.800000000000000113e-04,-1.000000000000000082e-05,-2.999999999999999737e-05,-8.000000000000000654e-05,-1.399999999999999877e-04,-1.000000000000000082e-05,1.399999999999999877e-04,5.999999999999999474e-05,3.000000000000000000e+00,1.700000000000000000e+01
4.238700000000000000e+04,-1.499999999999999869e-04,1.000000000000000082e-05,6.999999999999999387e-05,1.000000000000000048e-04,-5.999999999999999474e-05,1.399999999999999877e-04,1.300000000000000157e-04,1.000000000000000082e-05,3.000000000000000000e+00,1.700000000000000000e+01
4.238900000000000000e+04,-5.000000000000000240e-05,-2.999999999999999737e-05,-5.999999999999999474e-05,-2.200000000000000078e-04,-3.499999999999999964e-04,-1.800000000000000113e-04,-6.999999999999999387e-05,-4.000000000000000327e-05,3.000000000000000000e+00,1.700000000000000000e+01
4.239000000000000000e+04,-5.000000000000000240e-05,-2.999999999999999737e-05,-5.999999999999999474e-05,-2.200000000000000078e-04,-3.499999999999999964e-04,-1.800000000000000113e-04,-6.999999999999999387e-05,-4.000000000000000327e-05,3.000000000000000000e+00,1.700000000000000000e+01
4.239100000000000000e+04,-5.000000000000000240e-05,-2.999999999999999737e-05,-5.999999999999999474e-05,-2.200000000000000078e-04,-3.499999999999999964e-04,-1.800000000000000113e-04,-6.999999999999999387e-05,-4.000000000000000327e-05,3.000000000000000000e+00,1.700000000000000000e+01
4.239200000000000000e+04,-5.000000000000000240e-05,-2.999999999999999737e-05,-5.999999999999999474e-05,-2.200000000000000078e-04,-3.499999999999999964e-04,-1.800000000000000113e-04,-6.999999999999999387e-05,-4.000000000000000327e-05,3.000000000000000000e+00,1.700000000000000000e+01
4.239300000000000000e+04,-5.000000000000000240e-05,-2.999999999999999737e-05,-5.999999999999999474e-05,-2.200000000000000078e-04,-3.499999999999999964e-04,-1.800000000000000113e-04,-6.999999999999999387e-05,-4.000000000000000327e-05,3.000000000000000000e+00,1.700000000000000000e+01
4.239400000000000000e+04,-5.000000000000000240e-05,-2.999999999999999737e-05,-5.999999999999999474e-05,-2.200000000000000078e-04,-3.499999999999999964e-04,-1.800000000000000113e-04,-6.999999999999999387e-05,-4.000000000000000327e-05,3.000000000000000000e+00,1.700000000000000000e+01
4.239500000000000000e+04,-5.000000000000000240e-05,-2.999999999999999737e-05,-5.999999999999999474e-05,-2.200000000000000078e-04,-3.499999999999999964e-04,-1.800000000000000113e-04,-6.999999999999999387e-05,-4.000000000000000327e-05,3.000000000000000000e+00,1.700000000000000000e+01
4.239600000000000000e+04,-5.000000000000000240e-05,-2.999999999999999737e-05,-5.999999999999999474e-05,-2.200000000000000078e-04,-3.499999999999999964e-04,-1.800000000000000113e-04,-6.999999999999999387e-05,-4.000000000000000327e-05,3.000000000000000000e+00,1.700000000000000000e+01
4.239700000000000000e+04,-5.000000000000000240e-05,-2.999999999999999737e-05,-5.999999999999999474e-05,-2.200000000000000078e-04,-3.499999999999999964e-04,-1.800000000000000113e-04,-6.999999999999999387e-05,-4.000000000000000327e-05,3.000000000000000000e+00,1.700000000000000000e+01
4.239800000000000000e+04,-5.000000000000000240e-05,-2.999999999999999737e-05,-5.999999999999999474e-05,-2.200000000000000078e-04,-3.499999999999999964e-04,-1.800000000000000113e-04,-6.999999999999999387e-05,-4.000000000000000327e-05,3.000000000000000000e+00,1.700000000000000000e+01
4.239900000000000000e+04,-5.000000000000000240e-05,-2.999999999999999737e-05,-5.999999999999999474e-05,-2.200000000000000078e-04,-3.499999999999999964e-04,-1.800000000000000113e-04,-6.999999999999999387e-05,-4.000000000000000327e-05,3.000000000000000000e+00,1.700000000000000000e+01
4.240000000000000000e+04,-5.000000000000000240e-05,-2.999999999999999737e-05,-5.999999999999999474e-05,-2.200000000000000078e-04,-3.499999999999999964e-04,-1.800000000000000113e-04,-6.999999999999999387e-05,-4.000000000000000327e-05,3.000000000000000000e+00,1.700000000000000000e+01
4.240100000000000000e+04,-8.000000000000000654e-05,1.000000000000000082e-05,4.000000000000000327e-05,-1.000000000000000082e-05,-3.099999999999999999e-04,-2.000000000000000164e-05,-4.000000000000000327e-05,-1.000000000000000082e-05,3.000000000000000000e+00,1.700000000000000000e+01
4.240200000000000000e+04,-8.000000000000000654e-05,1.000000000000000082e-05,4.000000000000000327e-05,-1.000000000000000082e-05,-3.099999999999999999e-04,-2.000000000000000164e-05,-4.000000000000000327e-05,-1.000000000000000082e-05,3.000000000000000000e+00,1.700000000000000000e+01
4.240400000000000000e+04,-2.200000000000000078e-04,-2.000000000000000164e-05,-2.999999999999999737e-05,-1.100000000000000039e-04,-2.900000000000000017e-04,-2.999999999999999737e-05,6.199999999999999999e-04,2.999999999999999737e-05,3.000000000000000000e+00,1.700000000000000000e+01
4.240500000000000000e+04,-2.200000000000000078e-04,-2.000000000000000164e-05,-2.999999999999999737e-05,-1.100000000000000039e-04,-2.900000000000000017e-04,-2.999999999999999737e-05,6.199999999999999999e-04,2.999999999999999737e-05,3.000000000000000000e+00,1.700000000000000000e+01
4.240600000000000000e+04,-2.200000000000000078e-04,-2.000000000000000164e-05,-2.999999999999999737e-05,-1.100000000000000039e-04,-2.900000000000000017e-04,-2.999999999999999737e-05,6.199999999999999999e-04,2.999999999999999737e-05,3.000000000000000000e+00,1.700000000000000000e+01
4.240700000000000000e+04,-2.200000000000000078e-04,-2.000000000000000164e-05,-2.999999999999999737e-05,-1.100000000000000039e-04,-2.900000000000000017e-04,-2.999999999999999737e-05,6.199999999999999999e-04,2.999999999999999737e-05,3.000000000000000000e+00,1.700000000000000000e+01
4.240800000000000000e+04,-2.200000000000000078e-04,-2.000000000000000164e-05,-2.999999999999999737e-05,-1.100000000000000039e-04,-2.900000000000000017e-04,-2.999999999999999737e-05,6.199999999999999999e-04,2.999999999999999737e-05,3.000000000000000000e+00,1.700000000000000000e+01
4.240900000000000000e+04,-2.200000000000000078e-04,-2.000000000000000164e-05,-2.999999999999999737e-05,-1.100000000000000039e-04,-2.900000000000000017e-04,-2.999999999999999737e-05,6.199999999999999999e-04,2.999999999999999737e-05,3.000000000000000000e+00,1.700000000000000000e+01
4.241000000000000000e+04,-2.200000000000000078e-04,-2.000000000000000164e-05,-2.999999999999999737e-05,-1.100000000000000039e-04,-2.900000000000000017e-04,-2.999999999999999737e-05,6.199999999999999999e-04,2.999999999999999737e-05,3.000000000000000000e+00,1.700000000000000000e+01
4.241100000000000000e+04,-2.200000000000000078e-04,-2.000000000000000164e-05,-2.999999999999999737e-05,-1.100000000000000039e-04,-2.900000000000000017e-04,-2.999999999999999737e-05,6.199999999999999999e-04,2.999999999999999737e-05,3.000000000000000000e+00,1.700000000000000000e+01
4.241200000000000000e+04,-2.200000000000000078e-04,-2.000000000000000164e-05,-2.999999999999999737e-05,-1.100000000000000039e-04,-2.900000000000000017e-04,-2.999999999999999737e-05,6.199999999999999999e-04,2.999999999999999737e-05,3.000000000000000000e+00,1.700000000000000000e+01
4.241300000000000000e+04,-2.200000000000000078e-04,-2.000000000000000164e-05,-2.999999999999999737e-05,-1.100000000000000039e-04,-2.900000000000000017e-04,-2.999999999999999737e-05,6.199999999999999999e-04,2.999999999999999737e-05,3.000000000000000000e+00,1.700000000000000000e+01
4.241400000000000000e+04,-2.200000000000000078e-04,-2.000000000000000164e-05,-2.999999999999999737e-05,-1.100000000000000039e-04,-2.900000000000000017e-04,-2.999999999999999737e-05,6.199999999999999999e-04,2.999999999999999737e-05,3.000000000000000000e+00,1.700000000000000000e+01
4.241500000000000000e+04,-2.200000000000000078e-04,-2.000000000000000164e-05,-2.999999999999999737e-05,-1.100000000000000039e-04,-2.900000000000000017e-04,-2.999999999999999737e-05,6.199999999999999999e-04,2.999999999999999737e-05,3.000000000000000000e+00,1.700000000000000000e+01
4.241600000000000000e+04,-2.200000000000000078e-04,-2.000000000000000164e-05,-2.999999999999999737e-05,-1.100000000000000039e-04,-2.900000000000000017e-04,-2.999999999999999737e-05,6.199999999999999999e-04,2.999999999999999737e-05,3.000000000000000000e+00,1.700000000000000000e+01
4.241700000000000000e+04,-2.200000000000000078e-04,-2.000000000000000164e-05,-2.999999999999999737e-05,-1.100000000000000039e-04,-2.900000000000000017e-04,-2.999999999999999737e-05,6.199999999999999999e-04,2.999999999999999737e-05,3.000000000000000000e+00,1.700000000000000000e+01
4.241800000000000000e+04,-2.200000000000000078e-04,-2.000000000000000164e-05,-2.999999999999999737e-05,-1.100000000000000039e-04,-2.900000000000000017e-04,-2.999999999999999737e-05,6.199999999999999999e-04,2.999999999999999737e-05,3.000000000000000000e+00,1.700000000000000000e+01
4.241900000000000000e+04,-2.200000000000000078e-04,-2.000000000000000164e-05,-2.999999999999999737e-05,-1.100000000000000039e-04,-2.900000000000000017e-04,-2.999999999999999737e-05,6.199999999999999999e-04,2.999999999999999737e-05,3.000000000000000000e+00,1.700000000000000000e+01
4.242000000000000000e+04,-2.200000000000000078e-04,-2.000000000000000164e-05,-2.999999999999999737e-05,-1.100000000000000039e-04,-2.900000000000000017e-04,-2.999999999999999737e-05,6.199999999999999999e-04,2.999999999999999737e-05,3.000000000000000000e+00,1.700000000000000000e+01
4.242100000000000000e+04,-2.200000000000000078e-04,-2.000000000000000164e-05,-2.999999999999999737e-05,-1.100000000000000039e-04,-2.900000000000000017e-04,-2.999999999999999737e-05,6.199999999999999999e-04,2.999999999999999737e-05,3.000000000000000000e+00,1.700000000000000000e+01
4.242200000000000000e+04,-2.200000000000000078e-04,-2.000000000000000164e-05,-2.999999999999999737e-05,-1.100000000000000039e-04,-2.900000000000000017e-04,-2.999999999999999737e-05,6.199999999999999999e-04,2.999999999999999737e-05,3.000000000000000000e+00,1.700000000000000000e+01
4.242300000000000000e+04,1.499999999999999869e-04,5.000000000000000240e-05,5.999999999999999474e-05,1.000000000000000048e-04,1.000000000000000082e-05,9.000000000000000567e-05,-1.399999999999999877e-04,-6.999999999999999387e-05,3.000000000000000000e+00,1.700000000000000000e+01
4.242400000000000000e+04,5.999999999999999474e-05,-4.000000000000000327e-05,-6.999999999999999387e-05,-1.199999999999999895e-04,-2.799999999999999755e-04,-1.300000000000000157e-04,-1.699999999999999851e-04,-1.000000000000000082e-05,3.000000000000000000e+00,1.700000000000000000e+01
4.242500000000000000e+04,4.000000000000000327e-05,-1.000000000000000082e-05,2.000000000000000164e-05,6.999999999999999387e-05,-5.999999999999999474e-05,3.099999999999999999e-04,-1.199999999999999895e-04,-2.000000000000000164e-05,3.000000000000000000e+00,1.700000000000000000e+01
4.242600000000000000e+04,4.000000000000000327e-05,-1.000000000000000082e-05,2.000000000000000164e-05,6.999999999999999387e-05,-5.999999999999999474e-05,3.099999999999999999e-04,-1.199999999999999895e-04,-2.000000000000000164e-05,3.000000000000000000e+00,1.700000000000000000e+01
4.242700000000000000e+04,4.000000000000000327e-05,-1.000000000000000082e-05,2.000000000000000164e-05,6.999999999999999387e-05,-5.999999999999999474e-05,3.099999999999999999e-04,-1.199999999999999895e-04,-2.000000000000000164e-05,3.000000000000000000e+00,1.700000000000000000e+01
4.242800000000000000e+04,4.000000000000000327e-05,-1.000000000000000082e-05,2.000000000000000164e-05,6.999999999999999387e-05,-5.999999999999999474e-05,3.099999999999999999e-04,-1.199999999999999895e-04,-2.000000000000000164e-05,3.000000000000000000e+00,1.700000000000000000e+01
4.242900000000000000e+04,4.000000000000000327e-05,-1.000000000000000082e-05,2.000000000000000164e-05,6.999999999999999387e-05,-5.999999999999999474e-05,3.099999999999999999e-04,-1.199999999999999895e-04,-2.000000000000000164e-05,3.000000000000000000e+00,1.700000000000000000e+01
4.243000000000000000e+04,4.000000000000000327e-05,-1.000000000000000082e-05,2.000000000000000164e-05,6.999999999999999387e-05,-5.999999999999999474e-05,3.099999999999999999e-04,-1.199999999999999895e-04,-2.000000000000000164e-05,3.000000000000000000e+00,1.700000000000000000e+01
4.243100000000000000e+04,4.000000000000000327e-05,-1.000000000000000082e-05,2.000000000000000164e-05,6.999999999999999387e-05,-5.999999999999999474e-05,3.099999999999999999e-04,-1.199999999999999895e-04,-2.000000000000000164e-05,3.000000000000000000e+00,1.700000000000000000e+01
4.243200000000000000e+04,4.000000000000000327e-05,-1.000000000000000082e-05,2.000000000000000164e-05,6.999999999999999387e-05,-5.999999999999999474e-05,3.099999999999999999e-04,-1.199999999999999895e-04,-2.000000000000000164e-05,3.000000000000000000e+00,1.700000000000000000e+01
4.243300000000000000e+04,4.000000000000000327e-05,-1.000000000000000082e-05,2.000000000000000164e-05,6.999999999999999387e-05,-5.999999999999999474e-05,3.099999999999999999e-04,-1.199999999999999895e-04,-2.000000000000000164e-05,3.000000000000000000e+00,1.700000000000000000e+01
4.243400000000000000e+04,4.000000000000000327e-05,-1.000000000000000082e-05,2.000000000000000164e-05,6.999999999999999387e-05,-5.999999999999999474e-05,3.099999999999999999e-04,-1.199999999999999895e-04,-2.000000000000000164e-05,3.000000000000000000e+00,1.700000000000000000e+01
4.243500000000000000e+04,4.000000000000000327e-05,-1.000000000000000082e-05,2.000000000000000164e-05,6.999999999999999387e-05,-5.999999999999999474e-05,3.099999999999999999e-04,-1.199999999999999895e-04,-2.000000000000000164e-05,3.000000000000000000e+00,1.700000000000000000e+01
4.243700000000000000e+04,4.000000000000000327e-05,-1.000000000000000082e-05,2.000000000000000164e-05,6.999999999999999387e-05,-5.999999999999999474e-05,3.099999999999999999e-04,-1.199999999999999895e-04,-2.000000000000000164e-05,3.000000000000000000e+00,1.700000000000000000e+01
4.243900000000000000e+04,4.000000000000000327e-05,-1.000000000000000082e-05,2.000000000000000164e-05,6.999999999999999387e-05,-5.999999999999999474e-05,3.099999999999999999e-04,-1.199999999999999895e-04,-2.000000000000000164e-05,3.000000000000000000e+00,1.700000000000000000e+01
4.244000000000000000e+04,4.000000000000000327e-05,-1.000000000000000082e-05,2.000000000000000164e-05,6.999999999999999387e-05,-5.999999999999999474e-05,3.099999999999999999e-04,-1.199999999999999895e-04,-2.000000000000000164e-05,3.000000000000000000e+00,1.700000000000000000e+01
4.244100000000000000e+04,4.000000000000000327e-05,-1.000000000000000082e-05,2.000000000000000164e-05,6.999999999999999387e-05,-5.999999999999999474e-05,3.099999999999999999e-04,-1.199999999999999895e-04,-2.000000000000000164e-05,3.000000000000000000e+00,1.700000000000000000e+01
4.244200000000000000e+04,4.000000000000000327e-05,-1.000000000000000082e-05,2.000000000000000164e-05,6.999999999999999387e-05,-5.999999999999999474e-05,3.099999999999999999e-04,-1.199999999999999895e-04,-2.000000000000000164e-05,3.000000000000000000e+00,1.700000000000000000e+01
4.244300000000000000e+04,4.000000000000000327e-05,-1.000000000000000082e-05,2.000000000000000164e-05,6.999999999999999387e-05,-5.999999999999999474e-05,3.099999999999999999e-04,-1.199999999999999895e-04,-2.000000000000000164e-05,3.000000000000000000e+00,1.700000000000000000e+01
4.244400000000000000e+04,4.000000000000000327e-05,-1.000000000000000082e-05,2.000000000000000164e-05,6.999999999999999387e-05,-5.999999999999999474e-05,3.099999999999999999e-04,-1.199999999999999895e-04,-2.000000000000000164e-05,3.000000000000000000e+00,1.700000000000000000e+01
4.244500000000000000e+04,4.000000000000000327e-05,-1.000000000000000082e-05,2.000000000000000164e-05,6.999999999999999387e-05,-5.999999999999999474e-05,3.099999999999999999e-04,-1.199999999999999895e-04,-2.000000000000000164e-05,3.000000000000000000e+00,1.700000000000000000e+01
4.244600000000000000e+04,-8.000000000000000654e-05,-2.000000000000000164e-05,-1.000000000000000082e-05,2.000000000000000164e-05,1.800000000000000113e-04,5.400000000000000069e-04,2.299999999999999799e-04,1.000000000000000082e-05,3.000000000000000000e+00,1.700000000000000000e+01
4.244700000000000000e+04,4.799999999999999580e-04,-1.000000000000000082e-05,-2.000000000000000164e-05,-5.000000000000000240e-05,-1.300000000000000157e-04,-1.600000000000000131e-04,1.000000000000000048e-04,5.000000000000000240e-05,3.000000000000000000e+00,1.700000000000000000e+01
4.244800000000000000e+04,-2.000000000000000096e-04,1.000000000000000082e-05,2.999999999999999737e-05,9.000000000000000567e-05,2.799999999999999755e-04,6.999999999999999387e-05,-2.100000000000000087e-04,-5.999999999999999474e-05,3.000000000000000000e+00,1.700000000000000000e+01
4.244900000000000000e+04,-2.000000000000000096e-04,1.000000000000000082e-05,2.999999999999999737e-05,9.000000000000000567e-05,2.799999999999999755e-04,6.999999999999999387e-05,-2.100000000000000087e-04,-5.999999999999999474e-05,3.000000000000000000e+00,1.700000000000000000e+01
4.245000000000000000e+04,-2.000000000000000096e-04,1.000000000000000082e-05,2.999999999999999737e-05,9.000000000000000567e-05,2.799999999999999755e-04,6.999999999999999387e-05,-2.100000000000000087e-04,-5.999999999999999474e-05,3.000000000000000000e+00,1.700000000000000000e+01
4.245100000000000000e+04,-2.000000000000000096e-04,1.000000000000000082e-05,2.999999999999999737e-05,9.000000000000000567e-05,2.799999999999999755e-04,6.999999999999999387e-05,-2.100000000000000087e-04,-5.999999999999999474e-05,3.000000000000000000e+00,1.700000000000000000e+01
4.245200000000000000e+04,-2.000000000000000096e-04,1.000000000000000082e-05,2.999999999999999737e-05,9.000000000000000567e-05,2.799999999999999755e-04,6.999999999999999387e-05,-2.100000000000000087e-04,-5.999999999999999474e-05,3.000000000000000000e+00,1.700000000000000000e+01
4.245400000000000000e+04,-2.000000000000000096e-04,1.000000000000000082e-05,2.999999999999999737e-05,9.000000000000000567e-05,2.799999999999999755e-04,6.999999999999999387e-05,-2.100000000000000087e-04,-5.999999999999999474e-05,3.000000000000000000e+00,1.700000000000000000e+01
4.245500000000000000e+04,-2.000000000000000096e-04,1.000000000000000082e-05,2.999999999999999737e-05,9.000000000000000567e-05,2.799999999999999755e-04,6.999999999999999387e-05,-2.100000000000000087e-04,-5.999999999999999474e-05,3.000000000000000000e+00,1.700000000000000000e+01
4.245600000000000000e+04,-2.000000000000000096e-04,1.000000000000000082e-05,2.999999999999999737e-05,9.000000000000000567e-05,2.799999999999999755e-04,6.999999999999999387e-05,-2.100000000000000087e-04,-5.999999999999999474e-05,3.000000000000000000e+00,1.700000000000000000e+01
4.245700000000000000e+04,-2.000000000000000096e-04,1.000000000000000082e-05,2.999999999999999737e-05,9.000000000000000567e-05,2.799999999999999755e-04,6.999999999999999387e-05,-2.100000000000000087e-04,-5.999999999999999474e-05,3.000000000000000000e+00,1.700000000000000000e+01
4.245800000000000000e+04,-2.000000000000000096e-04,1.000000000000000082e-05,2.999999999999999737e-05,9.000000000000000567e-05,2.799999999999999755e-04,6.999999999999999387e-05,-2.100000000000000087e-04,-5.999999999999999474e-05,3.000000000000000000e+00,1.700000000000000000e+01
4.245900000000000000e+04,-2.000000000000000096e-04,1.000000000000000082e-05,2.999999999999999737e-05,9.000000000000000567e-05,2.799999999999999755e-04,6.999999999999999387e-05,-2.100000000000000087e-04,-5.999999999999999474e-05,3.000000000000000000e+00,1.700000000000000000e+01
4.246000000000000000e+04,6.999999999999999387e-05,-2.000000000000000164e-05,-9.000000000000000567e-05,-1.199999999999999895e-04,5.000000000000000240e-05,2.000000000000000164e-05,1.199999999999999895e-04,0.000000000000000000e+00,3.000000000000000000e+00,1.700000000000000000e+01
4.246100000000000000e+04,6.999999999999999387e-05,-2.000000000000000164e-05,-9.000000000000000567e-05,-1.199999999999999895e-04,5.000000000000000240e-05,2.000000000000000164e-05,1.199999999999999895e-04,0.000000000000000000e+00,3.000000000000000000e+00,1.700000000000000000e+01
4.246200000000000000e+04,6.999999999999999387e-05,-2.000000000000000164e-05,-9.000000000000000567e-05,-1.199999999999999895e-04,5.000000000000000240e-05,2.000000000000000164e-05,1.199999999999999895e-04,0.000000000000000000e+00,3.000000000000000000e+00,1.700000000000000000e+01
4.246300000000000000e+04,6.999999999999999387e-05,-2.000000000000000164e-05,-9.000000000000000567e-05,-1.199999999999999895e-04,5.000000000000000240e-05,2.000000000000000164e-05,1.199999999999999895e-04,0.000000000000000000e+00,3.000000000000000000e+00,1.700000000000000000e+01
4.246400000000000000e+04,6.999999999999999387e-05,-2.000000000000000164e-05,-9.000000000000000567e-05,-1.199999999999999895e-04,5.000000000000000240e-05,2.000000000000000164e-05,1.199999999999999895e-04,0.000000000000000000e+00,3.000000000000000000e+00,1.700000000000000000e+01
4.246500000000000000e+04,6.999999999999999387e-05,-2.000000000000000164e-05,-9.000000000000000567e-05,-1.199999999999999895e-04,5.000000000000000240e-05,2.000000000000000164e-05,1.199999999999999895e-04,0.000000000000000000e+00,3.000000000000000000e+00,1.700000000000000000e+01
4.246600000000000000e+04,6.999999999999999387e-05,-2.000000000000000164e-05,-9.000000000000000567e-05,-1.199999999999999895e-04,5.000000000000000240e-05,2.000000000000000164e-05,1.199999999999999895e-04,0.000000000000000000e+00,3.000000000000000000e+00,1.700000000000000000e+01
4.246700000000000000e+04,8.000000000000000654e-05,-1.000000000000000082e-05,2.999999999999999737e-05,0.000000000000000000e+00,-1.199999999999999895e-04,4.000000000000000327e-05,1.100000000000000039e-04,2.000000000000000164e-05,3.000000000000000000e+00,1.700000000000000000e+01
4.246800000000000000e+04,8.000000000000000654e-05,-1.000000000000000082e-05,2.999999999999999737e-05,0.000000000000000000e+00,-1.199999999999999895e-04,4.000000000000000327e-05,1.100000000000000039e-04,2.000000000000000164e-05,3.000000000000000000e+00,1.700000000000000000e+01
4.246900000000000000e+04,8.000000000000000654e-05,-1.000000000000000082e-05,2.999999999999999737e-05,0.000000000000000000e+00,-1.199999999999999895e-04,4.000000000000000327e-05,1.100000000000000039e-04,2.000000000000000164e-05,3.000000000000000000e+00,1.700000000000000000e+01
4.247000000000000000e+04,8.000000000000000654e-05,-1.000000000000000082e-05,2.999999999999999737e-05,0.000000000000000000e+00,-1.199999999999999895e-04,4.000000000000000327e-05,1.100000000000000039e-04,2.000000000000000164e-05,3.000000000000000000e+00,1.700000000000000000e+01
4.247100000000000000e+04,8.000000000000000654e-05,-1.000000000000000082e-05,2.999999999999999737e-05,0.000000000000000000e+00,-1.199999999999999895e-04,4.000000000000000327e-05,1.100000000000000039e-04,2.000000000000000164e-05,3.000000000000000000e+00,1.700000000000000000e+01
4.247200000000000000e+04,8.000000000000000654e-05,-1.000000000000000082e-05,2.999999999999999737e-05,0.000000000000000000e+00,-1.199999999999999895e-04,4.000000000000000327e-05,1.100000000000000039e-04,2.000000000000000164e-05,3.000000000000000000e+00,1.700000000000000000e+01
4.247300000000000000e+04,8.000000000000000654e-05,-1.000000000000000082e-05,2.999999999999999737e-05,0.000000000000000000e+00,-1.199999999999999895e-04,4.000000000000000327e-05,1.100000000000000039e-04,2.000000000000000164e-05,3.000000000000000000e+00,1.700000000000000000e+01
4.247400000000000000e+04,8.000000000000000654e-05,-1.000000000000000082e-05,2.999999999999999737e-05,0.000000000000000000e+00,-1.199999999999999895e-04,4.000000000000000327e-05,1.100000000000000039e-04,2.000000000000000164e-05,3.000000000000000000e+00,1.700000000000000000e+01
4.247500000000000000e+04,8.000000000000000654e-05,-1.000000000000000082e-05,2.999999999999999737e-05,0.000000000000000000e+00,-1.199999999999999895e-04,4.000000000000000327e-05,1.100000000000000039e-04,2.000000000000000164e-05,3.000000000000000000e+00,1.700000000000000000e+01
4.247600000000000000e+04,8.000000000000000654e-05,-1.000000000000000082e-05,2.999999999999999737e-05,0.000000000000000000e+00,-1.199999999999999895e-04,4.000000000000000327e-05,1.100000000000000039e-04,2.000000000000000164e-05,3.000000000000000000e+00,1.700000000000000000e+01
4.247700000000000000e+04,8.000000000000000654e-05,-1.000000000000000082e-05,2.999999999999999737e-05,0.000000000000000000e+00,-1.199999999999999895e-04,4.000000000000000327e-05,1.100000000000000039e-04,2.000000000000000164e-05,3.000000000000000000e+00,1.700000000000000000e+01
4.247800000000000000e+04,8.000000000000000654e-05,-1.000000000000000082e-05,2.999999999999999737e-05,0.000000000000000000e+00,-1.199999999999999895e-04,4.000000000000000327e-05,1.100000000000000039e-04,2.000000000000000164e-05,3.000000000000000000e+00,1.700000000000000000e+01
4.247900000000000000e+04,8.000000000000000654e-05,-1.000000000000000082e-05,2.999999999999999737e-05,0.000000000000000000e+00,-1.199999999999999895e-04,4.000000000000000327e-05,1.100000000000000039e-04,2.000000000000000164e-05,3.000000000000000000e+00,1.700000000000000000e+01
4.248000000000000000e+04,8.000000000000000654e-05,-1.000000000000000082e-05,2.999999999999999737e-05,0.000000000000000000e+00,-1.199999999999999895e-04,4.000000000000000327e-05,1.100000000000000039e-04,2.000000000000000164e-05,3.000000000000000000e+00,1.700000000000000000e+01
4.248100000000000000e+04,8.000000000000000654e-05,-1.000000000000000082e-05,2.999999999999999737e-05,0.000000000000000000e+00,-1.199999999999999895e-04,4.000000000000000327e-05,1.100000000000000039e-04,2.000000000000000164e-05,3.000000000000000000e+00,1.700000000000000000e+01
4.248200000000000000e+04,8.000000000000000654e-05,-1.000000000000000082e-05,2.999999999999999737e-05,0.000000000000000000e+00,-1.199999999999999895e-04,4.000000000000000327e-05,1.100000000000000039e-04,2.000000000000000164e-05,3.000000000000000000e+00,1.700000000000000000e+01
4.248300000000000000e+04,2.999999999999999737e-05,-1.000000000000000082e-05,-1.000000000000000082e-05,-1.399999999999999877e-04,-1.899999999999999834e-04,-2.399999999999999790e-04,-1.000000000000000082e-05,5.999999999999999474e-05,3.000000000000000000e+00,1.700000000000000000e+01
4.248400000000000000e+04,2.999999999999999737e-05,-1.000000000000000082e-05,-1.000000000000000082e-05,-1.399999999999999877e-04,-1.899999999999999834e-04,-2.399999999999999790e-04,-1.000000000000000082e-05,5.999999999999999474e-05,3.000000000000000000e+00,1.700000000000000000e+01
4.248500000000000000e+04,2.000000000000000164e-05,-2.000000000000000164e-05,-2.999999999999999737e-05,4.000000000000000327e-05,1.899999999999999834e-04,-2.700000000000000035e-04,-1.300000000000000157e-04,-4.000000000000000327e-05,3.000000000000000000e+00,1.700000000000000000e+01
4.248700000000000000e+04,2.000000000000000164e-05,-2.000000000000000164e-05,-2.999999999999999737e-05,4.000000000000000327e-05,1.899999999999999834e-04,-2.700000000000000035e-04,-1.300000000000000157e-04,-4.000000000000000327e-05,3.000000000000000000e+00,1.700000000000000000e+01
4.248900000000000000e+04,2.000000000000000164e-05,-2.000000000000000164e-05,-2.999999999999999737e-05,4.000000000000000327e-05,1.899999999999999834e-04,-2.700000000000000035e-04,-1.300000000000000157e-04,-4.000000000000000327e-05,3.000000000000000000e+00,1.700000000000000000e+01
4.249000000000000000e+04,2.000000000000000164e-05,-2.000000000000000164e-05,-2.999999999999999737e-05,4.000000000000000327e-05,1.899999999999999834e-04,-2.700000000000000035e-04,-1.300000000000000157e-04,-4.000000000000000327e-05,3.000000000000000000e+00,1.700000000000000000e+01
4.249100000000000000e+04,2.000000000000000164e-05,-2.000000000000000164e-05,-2.999999999999999737e-05,4.000000000000000327e-05,1.899999999999999834e-04,-2.700000000000000035e-04,-1.300000000000000157e-04,-4.000000000000000327e-05,3.000000000000000000e+00,1.700000000000000000e+01
4.249200000000000000e+04,2.000000000000000164e-05,-2.000000000000000164e-05,-2.999999999999999737e-05,4.000000000000000327e-05,1.899999999999999834e-04,-2.700000000000000035e-04,-1.300000000000000157e-04,-4.000000000000000327e-05,3.000000000000000000e+00,1.700000000000000000e+01
4.249300000000000000e+04,2.000000000000000164e-05,-2.000000000000000164e-05,-2.999999999999999737e-05,4.000000000000000327e-05,1.899999999999999834e-04,-2.700000000000000035e-04,-1.300000000000000157e-04,-4.000000000000000327e-05,3.000000000000000000e+00,1.700000000000000000e+01
4.249400000000000000e+04,2.000000000000000164e-05,-2.000000000000000164e-05,-2.999999999999999737e-05,4.000000000000000327e-05,1.899999999999999834e-04,-2.700000000000000035e-04,-1.300000000000000157e-04,-4.000000000000000327e-05,3.000000000000000000e+00,1.700000000000000000e+01
4.249500000000000000e+04,2.000000000000000164e-05,-2.000000000000000164e-05,-2.999999999999999737e-05,4.000000000000000327e-05,1.899999999999999834e-04,-2.700000000000000035e-04,-1.300000000000000157e-04,-4.000000000000000327e-05,3.000000000000000000e+00,1.700000000000000000e+01
4.249600000000000000e+04,2.000000000000000164e-05,-2.000000000000000164e-05,-2.999999999999999737e-05,4.000000000000000327e-05,1.899999999999999834e-04,-2.700000000000000035e-04,-1.300000000000000157e-04,-4.000000000000000327e-05,3.000000000000000000e+00,1.700000000000000000e+01
4.249700000000000000e+04,2.000000000000000164e-05,-2.000000000000000164e-05,-2.999999999999999737e-05,4.000000000000000327e-05,1.899999999999999834e-04,-2.700000000000000035e-04,-1.300000000000000157e-04,-4.000000000000000327e-05,3.000000000000000000e+00,1.700000000000000000e+01
4.249800000000000000e+04,2.000000000000000164e-05,-2.000000000000000164e-05,-2.999999999999999737e-05,4.000000000000000327e-05,1.899999999999999834e-04,-2.700000000000000035e-04,-1.300000000000000157e-04,-4.000000000000000327e-05,3.000000000000000000e+00,1.700000000000000000e+01
4.249900000000000000e+04,2.000000000000000164e-05,-2.000000000000000164e-05,-2.999999999999999737e-05,4.000000000000000327e-05,1.899999999999999834e-04,-2.700000000000000035e-04,-1.300000000000000157e-04,-4.000000000000000327e-05,3.000000000000000000e+00,1.700000000000000000e+01
4.250000000000000000e+04,2.000000000000000164e-05,-2.000000000000000164e-05,-2.999999999999999737e-05,4.000000000000000327e-05,1.899999999999999834e-04,-2.700000000000000035e-04,-1.300000000000000157e-04,-4.000000000000000327e-05,3.000000000000000000e+00,1.700000000000000000e+01
4.250100000000000000e+04,2.000000000000000164e-05,-2.000000000000000164e-05,-2.999999999999999737e-05,4.000000000000000327e-05,1.899999999999999834e-04,-2.700000000000000035e-04,-1.300000000000000157e-04,-4.000000000000000327e-05,3.000000000000000000e+00,1.700000000000000000e+01
4.250200000000000000e+04,2.000000000000000164e-05,-2.000000000000000164e-05,-2.999999999999999737e-05,4.000000000000000327e-05,1.899999999999999834e-04,-2.700000000000000035e-04,-1.300000000000000157e-04,-4.000000000000000327e-05,3.000000000000000000e+00,1.700000000000000000e+01
4.250400000000000000e+04,2.000000000000000164e-05,-2.000000000000000164e-05,-2.999999999999999737e-05,4.000000000000000327e-05,1.899999999999999834e-04,-2.700000000000000035e-04,-1.300000000000000157e-04,-4.000000000000000327e-05,3.000000000000000000e+00,1.700000000000000000e+01
4.250500000000000000e+04,2.000000000000000164e-05,-2.000000000000000164e-05,-2.999999999999999737e-05,4.000000000000000327e-05,1.899999999999999834e-04,-2.700000000000000035e-04,-1.300000000000000157e-04,-4.000000000000000327e-05,3.000000000000000000e+00,1.700000000000000000e+01
4.250600000000000000e+04,2.399999999999999790e-04,2.999999999999999737e-05,-1.000000000000000082e-05,4.000000000000000327e-05,1.300000000000000157e-04,1.300000000000000157e-04,-3.899999999999999929e-04,-2.999999999999999737e-05,3.000000000000000000e+00,1.700000000000000000e+01
4.250700000000000000e+04,2.399999999999999790e-04,2.999999999999999737e-05,-1.000000000000000082e-05,4.000000000000000327e-05,1.300000000000000157e-04,1.300000000000000157e-04,-3.899999999999999929e-04,-2.999999999999999737e-05,3.000000000000000000e+00,1.700000000000000000e+01
4.250800000000000000e+04,2.399999999999999790e-04,2.999999999999999737e-05,-1.000000000000000082e-05,4.000000000000000327e-05,1.300000000000000157e-04,1.300000000000000157e-04,-3.899999999999999929e-04,-2.999999999999999737e-05,3.000000000000000000e+00,1.700000000000000000e+01
4.250900000000000000e+04,2.399999999999999790e-04,2.999999999999999737e-05,-1.000000000000000082e-05,4.000000000000000327e-05,1.300000000000000157e-04,1.300000000000000157e-04,-3.899999999999999929e-04,-2.999999999999999737e-05,3.000000000000000000e+00,1.700000000000000000e+01
4.251000000000000000e+04,2.399999999999999790e-04,2.999999999999999737e-05,-1.000000000000000082e-05,4.000000000000000327e-05,1.300000000000000157e-04,1.300000000000000157e-04,-3.899999999999999929e-04,-2.999999999999999737e-05,3.000000000000000000e+00,1.700000000000000000e+01
4.251100000000000000e+04,2.399999999999999790e-04,2.999999999999999737e-05,-1.000000000000000082e-05,4.000000000000000327e-05,1.300000000000000157e-04,1.300000000000000157e-04,-3.899999999999999929e-04,-2.999999999999999737e-05,3.000000000000000000e+00,1.700000000000000000e+01
4.251200000000000000e+04,2.399999999999999790e-04,2.999999999999999737e-05,-1.000000000000000082e-05,4.000000000000000327e-05,1.300000000000000157e-04,1.300000000000000157e-04,-3.899999999999999929e-04,-2.999999999999999737e-05,3.000000000000000000e+00,1.700000000000000000e+01
4.251300000000000000e+04,2.399999999999999790e-04,2.999999999999999737e-05,-1.000000000000000082e-05,4.000000000000000327e-05,1.300000000000000157e-04,1.300000000000000157e-04,-3.899999999999999929e-04,-2.999999999999999737e-05,3.000000000000000000e+00,1.700000000000000000e+01
4.251400000000000000e+04,1.399999999999999877e-04,-4.000000000000000327e-05,-2.000000000000000164e-05,-2.999999999999999737e-05,-1.100000000000000039e-04,1.699999999999999851e-04,-1.100000000000000039e-04,1.000000000000000082e-05,3.000000000000000000e+00,1.700000000000000000e+01
4.251500000000000000e+04,1.399999999999999877e-04,-4.000000000000000327e-05,-2.000000000000000164e-05,-2.999999999999999737e-05,-1.100000000000000039e-04,1.699999999999999851e-04,-1.100000000000000039e-04,1.000000000000000082e-05,3.000000000000000000e+00,1.700000000000000000e+01
4.251600000000000000e+04,1.399999999999999877e-04,-4.000000000000000327e-05,-2.000000000000000164e-05,-2.999999999999999737e-05,-1.100000000000000039e-04,1.699999999999999851e-04,-1.100000000000000039e-04,1.000000000000000082e-05,3.000000000000000000e+00,1.700000000000000000e+01
4.251700000000000000e+04,1.399999999999999877e-04,-4.000000000000000327e-05,-2.000000000000000164e-05,-2.999999999999999737e-05,-1.100000000000000039e-04,1.699999999999999851e-04,-1.100000000000000039e-04,1.000000000000000082e-05,3.000000000000000000e+00,1.700000000000000000e+01
4.251800000000000000e+04,1.399999999999999877e-04,-4.000000000000000327e-05,-2.000000000000000164e-05,-2.999999999999999737e-05,-1.100000000000000039e-04,1.699999999999999851e-04,-1.100000000000000039e-04,1.000000000000000082e-05,3.000000000000000000e+00,1.700000000000000000e+01
4.251900000000000000e+04,1.399999999999999877e-04,-4.000000000000000327e-05,-2.000000000000000164e-05,-2.999999999999999737e-05,-1.100000000000000039e-04,1.699999999999999851e-04,-1.100000000000000039e-04,1.000000000000000082e-05,3.000000000000000000e+00,1.700000000000000000e+01
4.252000000000000000e+04,-8.000000000000000654e-05,0.000000000000000000e+00,1.000000000000000082e-05,5.999999999999999474e-05,2.000000000000000164e-05,4.099999999999999912e-04,5.999999999999999474e-05,-5.999999999999999474e-05,3.000000000000000000e+00,1.700000000000000000e+01
4.252100000000000000e+04,-8.000000000000000654e-05,0.000000000000000000e+00,1.000000000000000082e-05,5.999999999999999474e-05,2.000000000000000164e-05,4.099999999999999912e-04,5.999999999999999474e-05,-5.999999999999999474e-05,3.000000000000000000e+00,1.700000000000000000e+01
4.252200000000000000e+04,-8.000000000000000654e-05,0.000000000000000000e+00,1.000000000000000082e-05,5.999999999999999474e-05,2.000000000000000164e-05,4.099999999999999912e-04,5.999999999999999474e-05,-5.999999999999999474e-05,3.000000000000000000e+00,1.700000000000000000e+01
4.252300000000000000e+04,-8.000000000000000654e-05,0.000000000000000000e+00,1.000000000000000082e-05,5.999999999999999474e-05,2.000000000000000164e-05,4.099999999999999912e-04,5.999999999999999474e-05,-5.999999999999999474e-05,3.000000000000000000e+00,1.700000000000000000e+01
4.252400000000000000e+04,-8.000000000000000654e-05,0.000000000000000000e+00,1.000000000000000082e-05,5.999999999999999474e-05,2.000000000000000164e-05,4.099999999999999912e-04,5.999999999999999474e-05,-5.999999999999999474e-05,3.000000000000000000e+00,1.700000000000000000e+01
4.252500000000000000e+04,-8.000000000000000654e-05,0.000000000000000000e+00,1.000000000000000082e-05,5.999999999999999474e-05,2.000000000000000164e-05,4.099999999999999912e-04,5.999999999999999474e-05,-5.999999999999999474e-05,3.000000000000000000e+00,1.700000000000000000e+01
4.252600000000000000e+04,-8.000000000000000654e-05,0.000000000000000000e+00,1.000000000000000082e-05,5.999999999999999474e-05,2.000000000000000164e-05,4.099999999999999912e-04,5.999999999999999474e-05,-5.999999999999999474e-05,3.000000000000000000e+00,1.700000000000000000e+01
4.252700000000000000e+04,-9.000000000000000567e-05,-2.000000000000000164e-05,-4.000000000000000327e-05,-1.300000000000000157e-04,-1.100000000000000039e-04,-1.800000000000000113e-04,2.999999999999999737e-05,-1.000000000000000082e-05,3.000000000000000000e+00,1.700000000000000000e+01
4.252800000000000000e+04,-9.000000000000000567e-05,-2.000000000000000164e-05,-4.000000000000000327e-05,-1.300000000000000157e-04,-1.100000000000000039e-04,-1.800000000000000113e-04,2.999999999999999737e-05,-1.000000000000000082e-05,3.000000000000000000e+00,1.700000000000000000e+01
4.252900000000000000e+04,-9.000000000000000567e-05,-2.000000000000000164e-05,-4.000000000000000327e-05,-1.300000000000000157e-04,-1.100000000000000039e-04,-1.800000000000000113e-04,2.999999999999999737e-05,-1.000000000000000082e-05,3.000000000000000000e+00,1.700000000000000000e+01
4.253000000000000000e+04,-9.000000000000000567e-05,-2.000000000000000164e-05,-4.000000000000000327e-05,-1.300000000000000157e-04,-1.100000000000000039e-04,-1.800000000000000113e-04,2.999999999999999737e-05,-1.000000000000000082e-05,3.000000000000000000e+00,1.700000000000000000e+01
4.253100000000000000e+04,-9.000000000000000567e-05,-2.000000000000000164e-05,-4.000000000000000327e-05,-1.300000000000000157e-04,-1.100000000000000039e-04,-1.800000000000000113e-04,2.999999999999999737e-05,-1.000000000000000082e-05,3.000000000000000000e+00,1.700000000000000000e+01
4.253200000000000000e+04,-9.000000000000000567e-05,-2.000000000000000164e-05,-4.000000000000000327e-05,-1.300000000000000157e-04,-1.100000000000000039e-04,-1.800000000000000113e-04,2.999999999999999737e-05,-1.000000000000000082e-05,3.000000000000000000e+00,1.700000000000000000e+01
4.253300000000000000e+04,-9.000000000000000567e-05,-2.000000000000000164e-05,-4.000000000000000327e-05,-1.300000000000000157e-04,-1.100000000000000039e-04,-1.800000000000000113e-04,2.999999999999999737e-05,-1.000000000000000082e-05,3.000000000000000000e+00,1.700000000000000000e+01
4.253400000000000000e+04,-9.000000000000000567e-05,-2.000000000000000164e-05,-4.000000000000000327e-05,-1.300000000000000157e-04,-1.100000000000000039e-04,-1.800000000000000113e-04,2.999999999999999737e-05,-1.000000000000000082e-05,3.000000000000000000e+00,1.700000000000000000e+01
4.253500000000000000e+04,-9.000000000000000567e-05,-2.000000000000000164e-05,-4.000000000000000327e-05,-1.300000000000000157e-04,-1.100000000000000039e-04,-1.800000000000000113e-04,2.999999999999999737e-05,-1.000000000000000082e-05,3.000000000000000000e+00,1.700000000000000000e+01
4.253600000000000000e+04,-9.000000000000000567e-05,-2.000000000000000164e-05,-4.000000000000000327e-05,-1.300000000000000157e-04,-1.100000000000000039e-04,-1.800000000000000113e-04,2.999999999999999737e-05,-1.000000000000000082e-05,3.000000000000000000e+00,1.700000000000000000e+01
4.253800000000000000e+04,-9.000000000000000567e-05,-2.000000000000000164e-05,-4.000000000000000327e-05,-1.300000000000000157e-04,-1.100000000000000039e-04,-1.800000000000000113e-04,2.999999999999999737e-05,-1.000000000000000082e-05,3.000000000000000000e+00,1.700000000000000000e+01
4.253900000000000000e+04,-9.000000000000000567e-05,-2.000000000000000164e-05,-4.000000000000000327e-05,-1.300000000000000157e-04,-1.100000000000000039e-04,-1.800000000000000113e-04,2.999999999999999737e-05,-1.000000000000000082e-05,3.000000000000000000e+00,1.700000000000000000e+01
4.254000000000000000e+04,-9.000000000000000567e-05,-2.000000000000000164e-05,-4.000000000000000327e-05,-1.300000000000000157e-04,-1.100000000000000039e-04,-1.800000000000000113e-04,2.999999999999999737e-05,-1.000000000000000082e-05,3.000000000000000000e+00,1.700000000000000000e+01
4.254100000000000000e+04,-9.000000000000000567e-05,-2.000000000000000164e-05,-4.000000000000000327e-05,-1.300000000000000157e-04,-1.100000000000000039e-04,-1.800000000000000113e-04,2.999999999999999737e-05,-1.000000000000000082e-05,3.000000000000000000e+00,1.700000000000000000e+01
4.254200000000000000e+04,-9.000000000000000567e-05,-2.000000000000000164e-05,-4.000000000000000327e-05,-1.300000000000000157e-04,-1.100000000000000039e-04,-1.800000000000000113e-04,2.999999999999999737e-05,-1.000000000000000082e-05,3.000000000000000000e+00,1.700000000000000000e+01
4.254300000000000000e+04,0.000000000000000000e+00,-2.000000000000000164e-05,-1.000000000000000082e-05,8.000000000000000654e-05,2.600000000000000314e-04,1.600000000000000131e-04,4.000000000000000327e-05,0.000000000000000000e+00,3.000000000000000000e+00,1.700000000000000000e+01
4.254400000000000000e+04,-1.699999999999999851e-04,-1.000000000000000082e-05,2.999999999999999737e-05,6.999999999999999387e-05,-2.000000000000000096e-04,-1.899999999999999834e-04,2.000000000000000164e-05,-5.000000000000000240e-05,3.000000000000000000e+00,1.700000000000000000e+01
4.254500000000000000e+04,2.999999999999999737e-05,-1.000000000000000082e-05,-5.999999999999999474e-05,-5.999999999999999474e-05,8.000000000000000654e-05,0.000000000000000000e+00,2.999999999999999737e-05,1.000000000000000082e-05,3.000000000000000000e+00,1.700000000000000000e+01
4.254600000000000000e+04,2.999999999999999737e-05,-1.000000000000000082e-05,-5.999999999999999474e-05,-5.999999999999999474e-05,8.000000000000000654e-05,0.000000000000000000e+00,2.999999999999999737e-05,1.000000000000000082e-05,3.000000000000000000e+00,1.700000000000000000e+01
4.254700000000000000e+04,2.999999999999999737e-05,-1.000000000000000082e-05,-5.999999999999999474e-05,-5.999999999999999474e-05,8.000000000000000654e-05,0.000000000000000000e+00,2.999999999999999737e-05,1.000000000000000082e-05,3.000000000000000000e+00,1.700000000000000000e+01
4.254800000000000000e+04,2.999999999999999737e-05,-1.000000000000000082e-05,-5.999999999999999474e-05,-5.999999999999999474e-05,8.000000000000000654e-05,0.000000000000000000e+00,2.999999999999999737e-05,1.000000000000000082e-05,3.000000000000000000e+00,1.700000000000000000e+01
4.254900000000000000e+04,2.999999999999999737e-05,-1.000000000000000082e-05,-5.999999999999999474e-05,-5.999999999999999474e-05,8.000000000000000654e-05,0.000000000000000000e+00,2.999999999999999737e-05,1.000000000000000082e-05,3.000000000000000000e+00,1.700000000000000000e+01
4.255000000000000000e+04,2.999999999999999737e-05,-1.000000000000000082e-05,-5.999999999999999474e-05,-5.999999999999999474e-05,8.000000000000000654e-05,0.000000000000000000e+00,2.999999999999999737e-05,1.000000000000000082e-05,3.000000000000000000e+00,1.700000000000000000e+01
4.255100000000000000e+04,2.999999999999999737e-05,-1.000000000000000082e-05,-5.999999999999999474e-05,-5.999999999999999474e-05,8.000000000000000654e-05,0.000000000000000000e+00,2.999999999999999737e-05,1.000000000000000082e-05,3.000000000000000000e+00,1.700000000000000000e+01
4.255200000000000000e+04,2.999999999999999737e-05,-1.000000000000000082e-05,-5.999999999999999474e-05,-5.999999999999999474e-05,8.000000000000000654e-05,0.000000000000000000e+00,2.999999999999999737e-05,1.000000000000000082e-05,3.000000000000000000e+00,1.700000000000000000e+01
4.255400000000000000e+04,2.999999999999999737e-05,-1.000000000000000082e-05,-5.999999999999999474e-05,-5.999999999999999474e-05,8.000000000000000654e-05,0.000000000000000000e+00,2.999999999999999737e-05,1.000000000000000082e-05,3.000000000000000000e+00,1.700000000000000000e+01
4.255500000000000000e+04,2.999999999999999737e-05,-1.000000000000000082e-05,-5.999999999999999474e-05,-5.999999999999999474e-05,8.000000000000000654e-05,0.000000000000000000e+00,2.999999999999999737e-05,1.000000000000000082e-05,3.000000000000000000e+00,1.700000000000000000e+01
4.255600000000000000e+04,2.999999999999999737e-05,-1.000000000000000082e-05,-5.999999999999999474e-05,-5.999999999999999474e-05,8.000000000000000654e-05,0.000000000000000000e+00,2.999999999999999737e-05,1.000000000000000082e-05,3.000000000000000000e+00,1.700000000000000000e+01
4.255700000000000000e+04,2.999999999999999737e-05,-1.000000000000000082e-05,-5.999999999999999474e-05,-5.999999999999999474e-05,8.000000000000000654e-05,0.000000000000000000e+00,2.999999999999999737e-05,1.000000000000000082e-05,3.000000000000000000e+00,1.700000000000000000e+01
4.255800000000000000e+04,2.999999999999999737e-05,-1.000000000000000082e-05,-5.999999999999999474e-05,-5.999999999999999474e-05,8.000000000000000654e-05,0.000000000000000000e+00,2.999999999999999737e-05,1.000000000000000082e-05,3.000000000000000000e+00,1.700000000000000000e+01
4.255900000000000000e+04,2.999999999999999737e-05,-1.000000000000000082e-05,-5.999999999999999474e-05,-5.999999999999999474e-05,8.000000000000000654e-05,0.000000000000000000e+00,2.999999999999999737e-05,1.000000000000000082e-05,3.000000000000000000e+00,1.700000000000000000e+01
4.256000000000000000e+04,2.999999999999999737e-05,-1.000000000000000082e-05,-5.999999999999999474e-05,-5.999999999999999474e-05,8.000000000000000654e-05,0.000000000000000000e+00,2.999999999999999737e-05,1.000000000000000082e-05,3.000000000000000000e+00,1.700000000000000000e+01
4.256100000000000000e+04,2.999999999999999737e-05,-1.000000000000000082e-05,-5.999999999999999474e-05,-5.999999999999999474e-05,8.000000000000000654e-05,0.000000000000000000e+00,2.999999999999999737e-05,1.000000000000000082e-05,3.000000000000000000e+00,1.700000000000000000e+01
4.256200000000000000e+04,2.999999999999999737e-05,-1.000000000000000082e-05,-5.999999999999999474e-05,-5.999999999999999474e-05,8.000000000000000654e-05,0.000000000000000000e+00,2.999999999999999737e-05,1.000000000000000082e-05,3.000000000000000000e+00,1.700000000000000000e+01
4.256300000000000000e+04,2.999999999999999737e-05,-1.000000000000000082e-05,-5.999999999999999474e-05,-5.999999999999999474e-05,8.000000000000000654e-05,0.000000000000000000e+00,2.999999999999999737e-05,1.000000000000000082e-05,3.000000000000000000e+00,1.700000000000000000e+01
4.256400000000000000e+04,2.999999999999999737e-05,-1.000000000000000082e-05,-5.999999999999999474e-05,-5.999999999999999474e-05,8.000000000000000654e-05,0.000000000000000000e+00,2.999999999999999737e-05,1.000000000000000082e-05,3.000000000000000000e+00,1.700000000000000000e+01
4.256500000000000000e+04,2.999999999999999737e-05,-1.000000000000000082e-05,-5.999999999999999474e-05,-5.999999999999999474e-05,8.000000000000000654e-05,0.000000000000000000e+00,2.999999999999999737e-05,1.000000000000000082e-05,3.000000000000000000e+00,1.700000000000000000e+01
4.256600000000000000e+04,2.999999999999999737e-05,-1.000000000000000082e-05,-5.999999999999999474e-05,-5.999999999999999474e-05,8.000000000000000654e-05,0.000000000000000000e+00,2.999999999999999737e-05,1.000000000000000082e-05,3.000000000000000000e+00,1.700000000000000000e+01
4.256700000000000000e+04,2.999999999999999737e-05,-1.000000000000000082e-05,-5.999999999999999474e-05,-5.999999999999999474e-05,8.000000000000000654e-05,0.000000000000000000e+00,2.999999999999999737e-05,1.000000000000000082e-05,3.000000000000000000e+00,1.700000000000000000e+01
4.256800000000000000e+04,2.999999999999999737e-05,-1.000000000000000082e-05,-5.999999999999999474e-05,-5.999999999999999474e-05,8.000000000000000654e-05,0.000000000000000000e+00,2.999999999999999737e-05,1.000000000000000082e-05,3.000000000000000000e+00,1.700000000000000000e+01
4.256900000000000000e+04,2.999999999999999737e-05,-1.000000000000000082e-05,-5.999999999999999474e-05,-5.999999999999999474e-05,8.000000000000000654e-05,0.000000000000000000e+00,2.999999999999999737e-05,1.000000000000000082e-05,3.000000000000000000e+00,1.700000000000000000e+01
4.257000000000000000e+04,2.999999999999999737e-05,-1.000000000000000082e-05,-5.999999999999999474e-05,-5.999999999999999474e-05,8.000000000000000654e-05,0.000000000000000000e+00,2.999999999999999737e-05,1.000000000000000082e-05,3.000000000000000000e+00,1.700000000000000000e+01
4.257100000000000000e+04,2.999999999999999737e-05,-1.000000000000000082e-05,-5.999999999999999474e-05,-5.999999999999999474e-05,8.000000000000000654e-05,0.000000000000000000e+00,2.999999999999999737e-05,1.000000000000000082e-05,3.000000000000000000e+00,1.700000000000000000e+01
4.257200000000000000e+04,2.999999999999999737e-05,-1.000000000000000082e-05,-5.999999999999999474e-05,-5.999999999999999474e-05,8.000000000000000654e-05,0.000000000000000000e+00,2.999999999999999737e-05,1.000000000000000082e-05,3.000000000000000000e+00,1.700000000000000000e+01
4.257300000000000000e+04,-6.999999999999999387e-05,1.000000000000000082e-05,1.000000000000000082e-05,5.999999999999999474e-05,-5.000000000000000240e-05,-3.799999999999999667e-04,-1.199999999999999895e-04,6.999999999999999387e-05,3.000000000000000000e+00,1.700000000000000000e+01
4.257400000000000000e+04,-1.499999999999999869e-04,-2.999999999999999737e-05,-4.000000000000000327e-05,-1.100000000000000039e-04,-2.999999999999999737e-05,3.200000000000000262e-04,8.000000000000000654e-05,1.000000000000000082e-05,3.000000000000000000e+00,1.700000000000000000e+01
4.257500000000000000e+04,-2.299999999999999799e-04,-5.000000000000000240e-05,-4.000000000000000327e-05,2.000000000000000164e-05,2.200000000000000078e-04,-9.000000000000000567e-05,-1.000000000000000048e-04,-9.000000000000000567e-05,3.000000000000000000e+00,1.700000000000000000e+01
4.257600000000000000e+04,-2.299999999999999799e-04,-5.000000000000000240e-05,-4.000000000000000327e-05,2.000000000000000164e-05,2.200000000000000078e-04,-9.000000000000000567e-05,-1.000000000000000048e-04,-9.000000000000000567e-05,3.000000000000000000e+00,1.700000000000000000e+01
4.257700000000000000e+04,-2.299999999999999799e-04,-5.000000000000000240e-05,-4.000000000000000327e-05,2.000000000000000164e-05,2.200000000000000078e-04,-9.000000000000000567e-05,-1.000000000000000048e-04,-9.000000000000000567e-05,3.000000000000000000e+00,1.700000000000000000e+01
4.257800000000000000e+04,-2.299999999999999799e-04,-5.000000000000000240e-05,-4.000000000000000327e-05,2.000000000000000164e-05,2.200000000000000078e-04,-9.000000000000000567e-05,-1.000000000000000048e-04,-9.000000000000000567e-05,3.000000000000000000e+00,1.700000000000000000e+01
4.257900000000000000e+04,-2.299999999999999799e-04,-5.000000000000000240e-05,-4.000000000000000327e-05,2.000000000000000164e-05,2.200000000000000078e-04,-9.000000000000000567e-05,-1.000000000000000048e-04,-9.000000000000000567e-05,3.000000000000000000e+00,1.700000000000000000e+01
4.258000000000000000e+04,2.999999999999999737e-05,-2.000000000000000164e-05,-2.999999999999999737e-05,-5.999999999999999474e-05,-1.100000000000000039e-04,-1.399999999999999877e-04,-9.000000000000000567e-05,1.000000000000000082e-05,3.000000000000000000e+00,1.700000000000000000e+01
4.258100000000000000e+04,2.999999999999999737e-05,-2.000000000000000164e-05,-2.999999999999999737e-05,-5.999999999999999474e-05,-1.100000000000000039e-04,-1.399999999999999877e-04,-9.000000000000000567e-05,1.000000000000000082e-05,3.000000000000000000e+00,1.700000000000000000e+01
4.258200000000000000e+04,2.999999999999999737e-05,-2.000000000000000164e-05,-2.999999999999999737e-05,-5.999999999999999474e-05,-1.100000000000000039e-04,-1.399999999999999877e-04,-9.000000000000000567e-05,1.000000000000000082e-05,3.000000000000000000e+00,1.700000000000000000e+01
4.258300000000000000e+04,2.999999999999999737e-05,-2.000000000000000164e-05,-2.999999999999999737e-05,-5.999999999999999474e-05,-1.100000000000000039e-04,-1.399999999999999877e-04,-9.000000000000000567e-05,1.000000000000000082e-05,3.000000000000000000e+00,1.700000000000000000e+01
4.258400000000000000e+04,2.999999999999999737e-05,-2.000000000000000164e-05,-2.999999999999999737e-05,-5.999999999999999474e-05,-1.100000000000000039e-04,-1.399999999999999877e-04,-9.000000000000000567e-05,1.000000000000000082e-05,3.000000000000000000e+00,1.700000000000000000e+01
4.258500000000000000e+04,2.999999999999999737e-05,-2.000000000000000164e-05,-2.999999999999999737e-05,-5.999999999999999474e-05,-1.100000000000000039e-04,-1.399999999999999877e-04,-9.000000000000000567e-05,1.000000000000000082e-05,3.000000000000000000e+00,1.700000000000000000e+01
4.258600000000000000e+04,2.999999999999999737e-05,-2.000000000000000164e-05,-2.999999999999999737e-05,-5.999999999999999474e-05,-1.100000000000000039e-04,-1.399999999999999877e-04,-9.000000000000000567e-05,1.000000000000000082e-05,3.000000000000000000e+00,1.700000000000000000e+01
4.259000000000000000e+04,2.999999999999999737e-05,-2.000000000000000164e-05,-2.999999999999999737e-05,-5.999999999999999474e-05,-1.100000000000000039e-04,-1.399999999999999877e-04,-9.000000000000000567e-05,1.000000000000000082e-05,3.000000000000000000e+00,1.700000000000000000e+01
4.259100000000000000e+04,2.000000000000000164e-05,6.999999999999999387e-05,8.000000000000000654e-05,1.800000000000000113e-04,-5.999999999999999474e-05,1.300000000000000157e-04,2.000000000000000164e-05,-8.000000000000000654e-05,3.000000000000000000e+00,1.700000000000000000e+01
4.259200000000000000e+04,2.000000000000000164e-05,6.999999999999999387e-05,8.000000000000000654e-05,1.800000000000000113e-04,-5.999999999999999474e-05,1.300000000000000157e-04,2.000000000000000164e-05,-8.000000000000000654e-05,3.000000000000000000e+00,1.700000000000000000e+01
4.259300000000000000e+04,2.000000000000000164e-05,6.999999999999999387e-05,8.000000000000000654e-05,1.800000000000000113e-04,-5.999999999999999474e-05,1.300000000000000157e-04,2.000000000000000164e-05,-8.000000000000000654e-05,3.000000000000000000e+00,1.700000000000000000e+01
4.259400000000000000e+04,2.000000000000000164e-05,6.999999999999999387e-05,8.000000000000000654e-05,1.800000000000000113e-04,-5.999999999999999474e-05,1.300000000000000157e-04,2.000000000000000164e-05,-8.000000000000000654e-05,3.000000000000000000e+00,1.700000000000000000e+01
4.259500000000000000e+04,2.000000000000000164e-05,6.999999999999999387e-05,8.000000000000000654e-05,1.800000000000000113e-04,-5.999999999999999474e-05,1.300000000000000157e-04,2.000000000000000164e-05,-8.000000000000000654e-05,3.000000000000000000e+00,1.700000000000000000e+01
4.259600000000000000e+04,2.000000000000000164e-05,6.999999999999999387e-05,8.000000000000000654e-05,1.800000000000000113e-04,-5.999999999999999474e-05,1.300000000000000157e-04,2.000000000000000164e-05,-8.000000000000000654e-05,3.000000000000000000e+00,1.700000000000000000e+01
4.259700000000000000e+04,2.000000000000000164e-05,6.999999999999999387e-05,8.000000000000000654e-05,1.800000000000000113e-04,-5.999999999999999474e-05,1.300000000000000157e-04,2.000000000000000164e-05,-8.000000000000000654e-05,3.000000000000000000e+00,1.700000000000000000e+01
4.259800000000000000e+04,2.000000000000000164e-05,6.999999999999999387e-05,8.000000000000000654e-05,1.800000000000000113e-04,-5.999999999999999474e-05,1.300000000000000157e-04,2.000000000000000164e-05,-8.000000000000000654e-05,3.000000000000000000e+00,1.700000000000000000e+01
4.259900000000000000e+04,2.000000000000000164e-05,6.999999999999999387e-05,8.000000000000000654e-05,1.800000000000000113e-04,-5.999999999999999474e-05,1.300000000000000157e-04,2.000000000000000164e-05,-8.000000000000000654e-05,3.000000000000000000e+00,1.700000000000000000e+01
4.260000000000000000e+04,2.000000000000000164e-05,6.999999999999999387e-05,8.000000000000000654e-05,1.800000000000000113e-04,-5.999999999999999474e-05,1.300000000000000157e-04,2.000000000000000164e-05,-8.000000000000000654e-05,3.000000000000000000e+00,1.700000000000000000e+01
4.260100000000000000e+04,2.000000000000000164e-05,6.999999999999999387e-05,8.000000000000000654e-05,1.800000000000000113e-04,-5.999999999999999474e-05,1.300000000000000157e-04,2.000000000000000164e-05,-8.000000000000000654e-05,3.000000000000000000e+00,1.700000000000000000e+01
4.260200000000000000e+04,2.000000000000000164e-05,6.999999999999999387e-05,8.000000000000000654e-05,1.800000000000000113e-04,-5.999999999999999474e-05,1.300000000000000157e-04,2.000000000000000164e-05,-8.000000000000000654e-05,3.000000000000000000e+00,1.700000000000000000e+01
4.260400000000000000e+04,2.000000000000000164e-05,6.999999999999999387e-05,8.000000000000000654e-05,1.800000000000000113e-04,-5.999999999999999474e-05,1.300000000000000157e-04,2.000000000000000164e-05,-8.000000000000000654e-05,3.000000000000000000e+00,1.700000000000000000e+01
4.260500000000000000e+04,-1.000000000000000048e-04,-1.000000000000000082e-05,-1.000000000000000082e-05,-5.999999999999999474e-05,-1.300000000000000157e-04,5.200000000000000629e-04,0.000000000000000000e+00,-2.000000000000000164e-05,3.000000000000000000e+00,1.700000000000000000e+01
4.260600000000000000e+04,-1.000000000000000048e-04,-1.000000000000000082e-05,-1.000000000000000082e-05,-5.999999999999999474e-05,-1.300000000000000157e-04,5.200000000000000629e-04,0.000000000000000000e+00,-2.000000000000000164e-05,3.000000000000000000e+00,1.700000000000000000e+01
4.260700000000000000e+04,-1.000000000000000048e-04,-1.000000000000000082e-05,-1.000000000000000082e-05,-5.999999999999999474e-05,-1.300000000000000157e-04,5.200000000000000629e-04,0.000000000000000000e+00,-2.000000000000000164e-05,3.000000000000000000e+00,1.700000000000000000e+01
4.260800000000000000e+04,-1.000000000000000048e-04,-1.000000000000000082e-05,-1.000000000000000082e-05,-5.999999999999999474e-05,-1.300000000000000157e-04,5.200000000000000629e-04,0.000000000000000000e+00,-2.000000000000000164e-05,3.000000000000000000e+00,1.700000000000000000e+01
4.260900000000000000e+04,-1.000000000000000048e-04,-1.000000000000000082e-05,-1.000000000000000082e-05,-5.999999999999999474e-05,-1.300000000000000157e-04,5.200000000000000629e-04,0.000000000000000000e+00,-2.000000000000000164e-05,3.000000000000000000e+00,1.700000000000000000e+01
4.261000000000000000e+04,-1.000000000000000048e-04,-1.000000000000000082e-05,-1.000000000000000082e-05,-5.999999999999999474e-05,-1.300000000000000157e-04,5.200000000000000629e-04,0.000000000000000000e+00,-2.000000000000000164e-05,3.000000000000000000e+00,1.700000000000000000e+01
4.261100000000000000e+04,-1.000000000000000048e-04,-1.000000000000000082e-05,-1.000000000000000082e-05,-5.999999999999999474e-05,-1.300000000000000157e-04,5.200000000000000629e-04,0.000000000000000000e+00,-2.000000000000000164e-05,3.000000000000000000e+00,1.700000000000000000e+01
4.261200000000000000e+04,-1.000000000000000048e-04,-1.000000000000000082e-05,-1.000000000000000082e-05,-5.999999999999999474e-05,-1.300000000000000157e-04,5.200000000000000629e-04,0.000000000000000000e+00,-2.000000000000000164e-05,3.000000000000000000e+00,1.700000000000000000e+01
4.261300000000000000e+04,-1.000000000000000048e-04,-1.000000000000000082e-05,-1.000000000000000082e-05,-5.999999999999999474e-05,-1.300000000000000157e-04,5.200000000000000629e-04,0.000000000000000000e+00,-2.000000000000000164e-05,3.000000000000000000e+00,1.700000000000000000e+01
4.261400000000000000e+04,-1.000000000000000048e-04,-1.000000000000000082e-05,-1.000000000000000082e-05,-5.999999999999999474e-05,-1.300000000000000157e-04,5.200000000000000629e-04,0.000000000000000000e+00,-2.000000000000000164e-05,3.000000000000000000e+00,1.700000000000000000e+01
4.261500000000000000e+04,-1.000000000000000048e-04,-1.000000000000000082e-05,-1.000000000000000082e-05,-5.999999999999999474e-05,-1.300000000000000157e-04,5.200000000000000629e-04,0.000000000000000000e+00,-2.000000000000000164e-05,3.000000000000000000e+00,1.700000000000000000e+01
4.261600000000000000e+04,-1.000000000000000048e-04,-1.000000000000000082e-05,-1.000000000000000082e-05,-5.999999999999999474e-05,-1.300000000000000157e-04,5.200000000000000629e-04,0.000000000000000000e+00,-2.000000000000000164e-05,3.000000000000000000e+00,1.700000000000000000e+01
4.261700000000000000e+04,-1.000000000000000048e-04,-1.000000000000000082e-05,-1.000000000000000082e-05,-5.999999999999999474e-05,-1.300000000000000157e-04,5.200000000000000629e-04,0.000000000000000000e+00,-2.000000000000000164e-05,3.000000000000000000e+00,1.700000000000000000e+01
4.261800000000000000e+04,-1.000000000000000048e-04,-1.000000000000000082e-05,-1.000000000000000082e-05,-5.999999999999999474e-05,-1.300000000000000157e-04,5.200000000000000629e-04,0.000000000000000000e+00,-2.000000000000000164e-05,3.000000000000000000e+00,1.700000000000000000e+01
4.261900000000000000e+04,-1.000000000000000048e-04,-1.000000000000000082e-05,-1.000000000000000082e-05,-5.999999999999999474e-05,-1.300000000000000157e-04,5.200000000000000629e-04,0.000000000000000000e+00,-2.000000000000000164e-05,3.000000000000000000e+00,1.700000000000000000e+01
4.262000000000000000e+04,-1.000000000000000048e-04,-1.000000000000000082e-05,-1.000000000000000082e-05,-5.999999999999999474e-05,-1.300000000000000157e-04,5.200000000000000629e-04,0.000000000000000000e+00,-2.000000000000000164e-05,3.000000000000000000e+00,1.700000000000000000e+01
4.262100000000000000e+04,-1.000000000000000048e-04,-1.000000000000000082e-05,-1.000000000000000082e-05,-5.999999999999999474e-05,-1.300000000000000157e-04,5.200000000000000629e-04,0.000000000000000000e+00,-2.000000000000000164e-05,3.000000000000000000e+00,1.700000000000000000e+01
4.262200000000000000e+04,-1.000000000000000048e-04,-1.000000000000000082e-05,-1.000000000000000082e-05,-5.999999999999999474e-05,-1.300000000000000157e-04,5.200000000000000629e-04,0.000000000000000000e+00,-2.000000000000000164e-05,3.000000000000000000e+00,1.700000000000000000e+01
4.262300000000000000e+04,-1.000000000000000048e-04,-1.000000000000000082e-05,-1.000000000000000082e-05,-5.999999999999999474e-05,-1.300000000000000157e-04,5.200000000000000629e-04,0.000000000000000000e+00,-2.000000000000000164e-05,3.000000000000000000e+00,1.700000000000000000e+01
4.262400000000000000e+04,-1.000000000000000048e-04,-1.000000000000000082e-05,-1.000000000000000082e-05,-5.999999999999999474e-05,-1.300000000000000157e-04,5.200000000000000629e-04,0.000000000000000000e+00,-2.000000000000000164e-05,3.000000000000000000e+00,1.700000000000000000e+01
4.262500000000000000e+04,-1.000000000000000048e-04,-1.000000000000000082e-05,-1.000000000000000082e-05,-5.999999999999999474e-05,-1.300000000000000157e-04,5.200000000000000629e-04,0.000000000000000000e+00,-2.000000000000000164e-05,3.000000000000000000e+00,1.700000000000000000e+01
4.262600000000000000e+04,2.000000000000000096e-04,2.000000000000000164e-05,2.000000000000000164e-05,-2.000000000000000164e-05,-2.999999999999999737e-05,-1.000000000000000048e-04,0.000000000000000000e+00,-2.000000000000000164e-05,3.000000000000000000e+00,1.700000000000000000e+01
4.262700000000000000e+04,-4.700000000000000401e-04,-2.000000000000000164e-05,2.999999999999999737e-05,5.999999999999999474e-05,5.999999999999999474e-05,-2.399999999999999790e-04,-4.000000000000000327e-05,-2.000000000000000164e-05,3.000000000000000000e+00,1.700000000000000000e+01
4.262800000000000000e+04,2.100000000000000087e-04,-1.000000000000000082e-05,-2.999999999999999737e-05,-2.999999999999999737e-05,4.000000000000000192e-04,1.800000000000000113e-04,2.000000000000000164e-05,2.000000000000000164e-05,3.000000000000000000e+00,1.700000000000000000e+01
4.262900000000000000e+04,2.100000000000000087e-04,-1.000000000000000082e-05,-2.999999999999999737e-05,-2.999999999999999737e-05,4.000000000000000192e-04,1.800000000000000113e-04,2.000000000000000164e-05,2.000000000000000164e-05,3.000000000000000000e+00,1.700000000000000000e+01
4.263000000000000000e+04,2.100000000000000087e-04,-1.000000000000000082e-05,-2.999999999999999737e-05,-2.999999999999999737e-05,4.000000000000000192e-04,1.800000000000000113e-04,2.000000000000000164e-05,2.000000000000000164e-05,3.000000000000000000e+00,1.700000000000000000e+01
4.263100000000000000e+04,2.100000000000000087e-04,-1.000000000000000082e-05,-2.999999999999999737e-05,-2.999999999999999737e-05,4.000000000000000192e-04,1.800000000000000113e-04,2.000000000000000164e-05,2.000000000000000164e-05,3.000000000000000000e+00,1.700000000000000000e+01
4.263200000000000000e+04,2.100000000000000087e-04,-1.000000000000000082e-05,-2.999999999999999737e-05,-2.999999999999999737e-05,4.000000000000000192e-04,1.800000000000000113e-04,2.000000000000000164e-05,2.000000000000000164e-05,3.000000000000000000e+00,1.700000000000000000e+01
4.263300000000000000e+04,2.100000000000000087e-04,-1.000000000000000082e-05,-2.999999999999999737e-05,-2.999999999999999737e-05,4.000000000000000192e-04,1.800000000000000113e-04,2.000000000000000164e-05,2.000000000000000164e-05,3.000000000000000000e+00,1.700000000000000000e+01
4.263400000000000000e+04,2.100000000000000087e-04,-1.000000000000000082e-05,-2.999999999999999737e-05,-2.999999999999999737e-05,4.000000000000000192e-04,1.800000000000000113e-04,2.000000000000000164e-05,2.000000000000000164e-05,3.000000000000000000e+00,1.700000000000000000e+01
4.263500000000000000e+04,2.100000000000000087e-04,-1.000000000000000082e-05,-2.999999999999999737e-05,-2.999999999999999737e-05,4.000000000000000192e-04,1.800000000000000113e-04,2.000000000000000164e-05,2.000000000000000164e-05,3.000000000000000000e+00,1.700000000000000000e+01
4.263600000000000000e+04,2.100000000000000087e-04,-1.000000000000000082e-05,-2.999999999999999737e-05,-2.999999999999999737e-05,4.000000000000000192e-04,1.800000000000000113e-04,2.000000000000000164e-05,2.000000000000000164e-05,3.000000000000000000e+00,1.700000000000000000e+01
4.263900000000000000e+04,2.100000000000000087e-04,-1.000000000000000082e-05,-2.999999999999999737e-05,-2.999999999999999737e-05,4.000000000000000192e-04,1.800000000000000113e-04,2.000000000000000164e-05,2.000000000000000164e-05,3.000000000000000000e+00,1.700000000000000000e+01
4.264000000000000000e+04,-2.799999999999999755e-04,-2.999999999999999737e-05,-5.000000000000000240e-05,-1.300000000000000157e-04,-2.500000000000000052e-04,-5.999999999999999474e-05,1.800000000000000113e-04,-5.000000000000000240e-05,3.000000000000000000e+00,1.700000000000000000e+01
4.264100000000000000e+04,-2.799999999999999755e-04,-2.999999999999999737e-05,-5.000000000000000240e-05,-1.300000000000000157e-04,-2.500000000000000052e-04,-5.999999999999999474e-05,1.800000000000000113e-04,-5.000000000000000240e-05,3.000000000000000000e+00,1.700000000000000000e+01
4.264200000000000000e+04,-2.799999999999999755e-04,-2.999999999999999737e-05,-5.000000000000000240e-05,-1.300000000000000157e-04,-2.500000000000000052e-04,-5.999999999999999474e-05,1.800000000000000113e-04,-5.000000000000000240e-05,3.000000000000000000e+00,1.700000000000000000e+01
4.264300000000000000e+04,-2.799999999999999755e-04,-2.999999999999999737e-05,-5.000000000000000240e-05,-1.300000000000000157e-04,-2.500000000000000052e-04,-5.999999999999999474e-05,1.800000000000000113e-04,-5.000000000000000240e-05,3.000000000000000000e+00,1.700000000000000000e+01
4.264400000000000000e+04,-2.799999999999999755e-04,-2.999999999999999737e-05,-5.000000000000000240e-05,-1.300000000000000157e-04,-2.500000000000000052e-04,-5.999999999999999474e-05,1.800000000000000113e-04,-5.000000000000000240e-05,3.000000000000000000e+00,1.700000000000000000e+01
4.264500000000000000e+04,-2.799999999999999755e-04,-2.999999999999999737e-05,-5.000000000000000240e-05,-1.300000000000000157e-04,-2.500000000000000052e-04,-5.999999999999999474e-05,1.800000000000000113e-04,-5.000000000000000240e-05,3.000000000000000000e+00,1.700000000000000000e+01
4.264600000000000000e+04,-2.799999999999999755e-04,-2.999999999999999737e-05,-5.000000000000000240e-05,-1.300000000000000157e-04,-2.500000000000000052e-04,-5.999999999999999474e-05,1.800000000000000113e-04,-5.000000000000000240e-05,3.000000000000000000e+00,1.700000000000000000e+01
4.264700000000000000e+04,-2.799999999999999755e-04,-2.999999999999999737e-05,-5.000000000000000240e-05,-1.300000000000000157e-04,-2.500000000000000052e-04,-5.999999999999999474e-05,1.800000000000000113e-04,-5.000000000000000240e-05,3.000000000000000000e+00,1.700000000000000000e+01
4.264800000000000000e+04,-1.199999999999999895e-04,-4.000000000000000327e-05,-2.000000000000000164e-05,5.000000000000000240e-05,-2.000000000000000164e-05,-9.000000000000000567e-05,-4.000000000000000327e-05,5.000000000000000240e-05,3.000000000000000000e+00,1.700000000000000000e+01
4.264900000000000000e+04,-1.199999999999999895e-04,-4.000000000000000327e-05,-2.000000000000000164e-05,5.000000000000000240e-05,-2.000000000000000164e-05,-9.000000000000000567e-05,-4.000000000000000327e-05,5.000000000000000240e-05,3.000000000000000000e+00,1.700000000000000000e+01
4.265000000000000000e+04,-1.199999999999999895e-04,-4.000000000000000327e-05,-2.000000000000000164e-05,5.000000000000000240e-05,-2.000000000000000164e-05,-9.000000000000000567e-05,-4.000000000000000327e-05,5.000000000000000240e-05,3.000000000000000000e+00,1.700000000000000000e+01
4.265100000000000000e+04,-1.199999999999999895e-04,-4.000000000000000327e-05,-2.000000000000000164e-05,5.000000000000000240e-05,-2.000000000000000164e-05,-9.000000000000000567e-05,-4.000000000000000327e-05,5.000000000000000240e-05,3.000000000000000000e+00,1.700000000000000000e+01
4.265200000000000000e+04,-1.199999999999999895e-04,-4.000000000000000327e-05,-2.000000000000000164e-05,5.000000000000000240e-05,-2.000000000000000164e-05,-9.000000000000000567e-05,-4.000000000000000327e-05,5.000000000000000240e-05,3.000000000000000000e+00,1.700000000000000000e+01
4.265400000000000000e+04,-1.199999999999999895e-04,-4.000000000000000327e-05,-2.000000000000000164e-05,5.000000000000000240e-05,-2.000000000000000164e-05,-9.000000000000000567e-05,-4.000000000000000327e-05,5.000000000000000240e-05,3.000000000000000000e+00,1.700000000000000000e+01
4.265500000000000000e+04,-1.199999999999999895e-04,-4.000000000000000327e-05,-2.000000000000000164e-05,5.000000000000000240e-05,-2.000000000000000164e-05,-9.000000000000000567e-05,-4.000000000000000327e-05,5.000000000000000240e-05,3.000000000000000000e+00,1.700000000000000000e+01
4.265600000000000000e+04,-1.199999999999999895e-04,-4.000000000000000327e-05,-2.000000000000000164e-05,5.000000000000000240e-05,-2.000000000000000164e-05,-9.000000000000000567e-05,-4.000000000000000327e-05,5.000000000000000240e-05,3.000000000000000000e+00,1.700000000000000000e+01
4.265700000000000000e+04,-1.199999999999999895e-04,-4.000000000000000327e-05,-2.000000000000000164e-05,5.000000000000000240e-05,-2.000000000000000164e-05,-9.000000000000000567e-05,-4.000000000000000327e-05,5.000000000000000240e-05,3.000000000000000000e+00,1.700000000000000000e+01
4.265800000000000000e+04,-1.199999999999999895e-04,-4.000000000000000327e-05,-2.000000000000000164e-05,5.000000000000000240e-05,-2.000000000000000164e-05,-9.000000000000000567e-05,-4.000000000000000327e-05,5.000000000000000240e-05,3.000000000000000000e+00,1.700000000000000000e+01
4.265900000000000000e+04,-1.199999999999999895e-04,-4.000000000000000327e-05,-2.000000000000000164e-05,5.000000000000000240e-05,-2.000000000000000164e-05,-9.000000000000000567e-05,-4.000000000000000327e-05,5.000000000000000240e-05,3.000000000000000000e+00,1.700000000000000000e+01
4.266000000000000000e+04,-1.199999999999999895e-04,-4.000000000000000327e-05,-2.000000000000000164e-05,5.000000000000000240e-05,-2.000000000000000164e-05,-9.000000000000000567e-05,-4.000000000000000327e-05,5.000000000000000240e-05,3.000000000000000000e+00,1.700000000000000000e+01
4.266100000000000000e+04,-1.199999999999999895e-04,-4.000000000000000327e-05,-2.000000000000000164e-05,5.000000000000000240e-05,-2.000000000000000164e-05,-9.000000000000000567e-05,-4.000000000000000327e-05,5.000000000000000240e-05,3.000000000000000000e+00,1.700000000000000000e+01
4.266200000000000000e+04,-1.199999999999999895e-04,-4.000000000000000327e-05,-2.000000000000000164e-05,5.000000000000000240e-05,-2.000000000000000164e-05,-9.000000000000000567e-05,-4.000000000000000327e-05,5.000000000000000240e-05,3.000000000000000000e+00,1.700000000000000000e+01
4.266300000000000000e+04,-2.999999999999999737e-05,-1.000000000000000082e-05,-1.000000000000000082e-05,-2.000000000000000164e-05,0.000000000000000000e+00,-2.799999999999999755e-04,-2.000000000000000164e-05,-2.000000000000000164e-05,3.000000000000000000e+00,1.700000000000000000e+01
4.266400000000000000e+04,-2.999999999999999737e-05,-1.000000000000000082e-05,-1.000000000000000082e-05,-2.000000000000000164e-05,0.000000000000000000e+00,-2.799999999999999755e-04,-2.000000000000000164e-05,-2.000000000000000164e-05,3.000000000000000000e+00,1.700000000000000000e+01
4.266500000000000000e+04,5.000000000000000240e-05,-6.999999999999999387e-05,-8.000000000000000654e-05,-8.000000000000000654e-05,-1.399999999999999877e-04,-4.799999999999999580e-04,-5.000000000000000240e-05,4.000000000000000327e-05,3.000000000000000000e+00,1.700000000000000000e+01
4.266600000000000000e+04,5.000000000000000240e-05,-6.999999999999999387e-05,-8.000000000000000654e-05,-8.000000000000000654e-05,-1.399999999999999877e-04,-4.799999999999999580e-04,-5.000000000000000240e-05,4.000000000000000327e-05,3.000000000000000000e+00,1.700000000000000000e+01
4.266700000000000000e+04,5.000000000000000240e-05,-6.999999999999999387e-05,-8.000000000000000654e-05,-8.000000000000000654e-05,-1.399999999999999877e-04,-4.799999999999999580e-04,-5.000000000000000240e-05,4.000000000000000327e-05,3.000000000000000000e+00,1.700000000000000000e+01
4.266800000000000000e+04,5.000000000000000240e-05,-6.999999999999999387e-05,-8.000000000000000654e-05,-8.000000000000000654e-05,-1.399999999999999877e-04,-4.799999999999999580e-04,-5.000000000000000240e-05,4.000000000000000327e-05,3.000000000000000000e+00,1.700000000000000000e+01
4.266900000000000000e+04,5.000000000000000240e-05,-6.999999999999999387e-05,-8.000000000000000654e-05,-8.000000000000000654e-05,-1.399999999999999877e-04,-4.799999999999999580e-04,-5.000000000000000240e-05,4.000000000000000327e-05,3.000000000000000000e+00,1.700000000000000000e+01
4.267000000000000000e+04,5.000000000000000240e-05,-6.999999999999999387e-05,-8.000000000000000654e-05,-8.000000000000000654e-05,-1.399999999999999877e-04,-4.799999999999999580e-04,-5.000000000000000240e-05,4.000000000000000327e-05,3.000000000000000000e+00,1.700000000000000000e+01
4.267100000000000000e+04,5.000000000000000240e-05,-6.999999999999999387e-05,-8.000000000000000654e-05,-8.000000000000000654e-05,-1.399999999999999877e-04,-4.799999999999999580e-04,-5.000000000000000240e-05,4.000000000000000327e-05,3.000000000000000000e+00,1.700000000000000000e+01
4.267200000000000000e+04,5.000000000000000240e-05,-6.999999999999999387e-05,-8.000000000000000654e-05,-8.000000000000000654e-05,-1.399999999999999877e-04,-4.799999999999999580e-04,-5.000000000000000240e-05,4.000000000000000327e-05,3.000000000000000000e+00,1.700000000000000000e+01
4.267300000000000000e+04,5.000000000000000240e-05,-6.999999999999999387e-05,-8.000000000000000654e-05,-8.000000000000000654e-05,-1.399999999999999877e-04,-4.799999999999999580e-04,-5.000000000000000240e-05,4.000000000000000327e-05,3.000000000000000000e+00,1.700000000000000000e+01
4.267400000000000000e+04,5.000000000000000240e-05,-6.999999999999999387e-05,-8.000000000000000654e-05,-8.000000000000000654e-05,-1.399999999999999877e-04,-4.799999999999999580e-04,-5.000000000000000240e-05,4.000000000000000327e-05,3.000000000000000000e+00,1.700000000000000000e+01
4.267500000000000000e+04,5.000000000000000240e-05,-6.999999999999999387e-05,-8.000000000000000654e-05,-8.000000000000000654e-05,-1.399999999999999877e-04,-4.799999999999999580e-04,-5.000000000000000240e-05,4.000000000000000327e-05,3.000000000000000000e+00,1.700000000000000000e+01
4.267600000000000000e+04,5.000000000000000240e-05,-6.999999999999999387e-05,-8.000000000000000654e-05,-8.000000000000000654e-05,-1.399999999999999877e-04,-4.799999999999999580e-04,-5.000000000000000240e-05,4.000000000000000327e-05,3.000000000000000000e+00,1.700000000000000000e+01
4.267700000000000000e+04,5.000000000000000240e-05,-6.999999999999999387e-05,-8.000000000000000654e-05,-8.000000000000000654e-05,-1.399999999999999877e-04,-4.799999999999999580e-04,-5.000000000000000240e-05,4.000000000000000327e-05,3.000000000000000000e+00,1.700000000000000000e+01
4.267800000000000000e+04,5.000000000000000240e-05,-6.999999999999999387e-05,-8.000000000000000654e-05,-8.000000000000000654e-05,-1.399999999999999877e-04,-4.799999999999999580e-04,-5.000000000000000240e-05,4.000000000000000327e-05,3.000000000000000000e+00,1.700000000000000000e+01
4.267900000000000000e+04,5.000000000000000240e-05,-6.999999999999999387e-05,-8.000000000000000654e-05,-8.000000000000000654e-05,-1.399999999999999877e-04,-4.799999999999999580e-04,-5.000000000000000240e-05,4.000000000000000327e-05,3.000000000000000000e+00,1.700000000000000000e+01
4.268000000000000000e+04,5.000000000000000240e-05,-6.999999999999999387e-05,-8.000000000000000654e-05,-8.000000000000000654e-05,-1.399999999999999877e-04,-4.799999999999999580e-04,-5.000000000000000240e-05,4.000000000000000327e-05,3.000000000000000000e+00,1.700000000000000000e+01
4.268100000000000000e+04,5.000000000000000240e-05,-6.999999999999999387e-05,-8.000000000000000654e-05,-8.000000000000000654e-05,-1.399999999999999877e-04,-4.799999999999999580e-04,-5.000000000000000240e-05,4.000000000000000327e-05,3.000000000000000000e+00,1.700000000000000000e+01
4.268200000000000000e+04,5.000000000000000240e-05,-6.999999999999999387e-05,-8.000000000000000654e-05,-8.000000000000000654e-05,-1.399999999999999877e-04,-4.799999999999999580e-04,-5.000000000000000240e-05,4.000000000000000327e-05,3.000000000000000000e+00,1.700000000000000000e+01
4.268300000000000000e+04,5.000000000000000240e-05,-6.999999999999999387e-05,-8.000000000000000654e-05,-8.000000000000000654e-05,-1.399999999999999877e-04,-4.799999999999999580e-04,-5.000000000000000240e-05,4.000000000000000327e-05,3.000000000000000000e+00,1.700000000000000000e+01
4.268400000000000000e+04,5.000000000000000240e-05,-6.999999999999999387e-05,-8.000000000000000654e-05,-8.000000000000000654e-05,-1.399999999999999877e-04,-4.799999999999999580e-04,-5.000000000000000240e-05,4.000000000000000327e-05,3.000000000000000000e+00,1.700000000000000000e+01
4.268500000000000000e+04,5.000000000000000240e-05,-6.999999999999999387e-05,-8.000000000000000654e-05,-8.000000000000000654e-05,-1.399999999999999877e-04,-4.799999999999999580e-04,-5.000000000000000240e-05,4.000000000000000327e-05,3.000000000000000000e+00,1.700000000000000000e+01
4.268600000000000000e+04,6.999999999999999387e-05,0.000000000000000000e+00,2.999999999999999737e-05,1.000000000000000048e-04,2.000000000000000096e-04,1.399999999999999877e-04,0.000000000000000000e+00,-6.999999999999999387e-05,3.000000000000000000e+00,1.700000000000000000e+01
4.268900000000000000e+04,4.000000000000000327e-05,-2.000000000000000164e-05,-4.000000000000000327e-05,-1.199999999999999895e-04,-2.000000000000000096e-04,-2.200000000000000078e-04,9.000000000000000567e-05,5.000000000000000240e-05,3.000000000000000000e+00,1.700000000000000000e+01
4.269000000000000000e+04,4.000000000000000327e-05,-2.000000000000000164e-05,-4.000000000000000327e-05,-1.199999999999999895e-04,-2.000000000000000096e-04,-2.200000000000000078e-04,9.000000000000000567e-05,5.000000000000000240e-05,3.000000000000000000e+00,1.700000000000000000e+01
4.269100000000000000e+04,4.000000000000000327e-05,-2.000000000000000164e-05,-4.000000000000000327e-05,-1.199999999999999895e-04,-2.000000000000000096e-04,-2.200000000000000078e-04,9.000000000000000567e-05,5.000000000000000240e-05,3.000000000000000000e+00,1.700000000000000000e+01
4.269200000000000000e+04,4.000000000000000327e-05,-2.000000000000000164e-05,-4.000000000000000327e-05,-1.199999999999999895e-04,-2.000000000000000096e-04,-2.200000000000000078e-04,9.000000000000000567e-05,5.000000000000000240e-05,3.000000000000000000e+00,1.700000000000000000e+01
4.269300000000000000e+04,4.000000000000000327e-05,-2.000000000000000164e-05,-4.000000000000000327e-05,-1.199999999999999895e-04,-2.000000000000000096e-04,-2.200000000000000078e-04,9.000000000000000567e-05,5.000000000000000240e-05,3.000000000000000000e+00,1.700000000000000000e+01
4.269400000000000000e+04,4.000000000000000327e-05,-2.000000000000000164e-05,-4.000000000000000327e-05,-1.199999999999999895e-04,-2.000000000000000096e-04,-2.200000000000000078e-04,9.000000000000000567e-05,5.000000000000000240e-05,3.000000000000000000e+00,1.700000000000000000e+01
4.269500000000000000e+04,4.000000000000000327e-05,-2.000000000000000164e-05,-4.000000000000000327e-05,-1.199999999999999895e-04,-2.000000000000000096e-04,-2.200000000000000078e-04,9.000000000000000567e-05,5.000000000000000240e-05,3.000000000000000000e+00,1.700000000000000000e+01
4.269600000000000000e+04,4.000000000000000327e-05,-2.000000000000000164e-05,-4.000000000000000327e-05,-1.199999999999999895e-04,-2.000000000000000096e-04,-2.200000000000000078e-04,9.000000000000000567e-05,5.000000000000000240e-05,3.000000000000000000e+00,1.700000000000000000e+01
4.269700000000000000e+04,4.000000000000000327e-05,-2.000000000000000164e-05,-4.000000000000000327e-05,-1.199999999999999895e-04,-2.000000000000000096e-04,-2.200000000000000078e-04,9.000000000000000567e-05,5.000000000000000240e-05,3.000000000000000000e+00,1.700000000000000000e+01
4.269800000000000000e+04,4.000000000000000327e-05,-2.000000000000000164e-05,-4.000000000000000327e-05,-1.199999999999999895e-04,-2.000000000000000096e-04,-2.200000000000000078e-04,9.000000000000000567e-05,5.000000000000000240e-05,3.000000000000000000e+00,1.700000000000000000e+01
4.269900000000000000e+04,4.000000000000000327e-05,-2.000000000000000164e-05,-4.000000000000000327e-05,-1.199999999999999895e-04,-2.000000000000000096e-04,-2.200000000000000078e-04,9.000000000000000567e-05,5.000000000000000240e-05,3.000000000000000000e+00,1.700000000000000000e+01
4.270000000000000000e+04,1.000000000000000082e-05,-1.000000000000000082e-05,-2.999999999999999737e-05,-4.000000000000000327e-05,2.200000000000000078e-04,-1.600000000000000131e-04,4.000000000000000327e-05,9.000000000000000567e-05,3.000000000000000000e+00,1.700000000000000000e+01
4.270100000000000000e+04,1.000000000000000082e-05,-1.000000000000000082e-05,-2.999999999999999737e-05,-4.000000000000000327e-05,2.200000000000000078e-04,-1.600000000000000131e-04,4.000000000000000327e-05,9.000000000000000567e-05,3.000000000000000000e+00,1.700000000000000000e+01
4.270200000000000000e+04,1.000000000000000082e-05,-1.000000000000000082e-05,-2.999999999999999737e-05,-4.000000000000000327e-05,2.200000000000000078e-04,-1.600000000000000131e-04,4.000000000000000327e-05,9.000000000000000567e-05,3.000000000000000000e+00,1.700000000000000000e+01
4.270400000000000000e+04,1.000000000000000082e-05,-1.000000000000000082e-05,-2.999999999999999737e-05,-4.000000000000000327e-05,2.200000000000000078e-04,-1.600000000000000131e-04,4.000000000000000327e-05,9.000000000000000567e-05,3.000000000000000000e+00,1.700000000000000000e+01
4.270500000000000000e+04,1.000000000000000082e-05,-1.000000000000000082e-05,-2.999999999999999737e-05,-4.000000000000000327e-05,2.200000000000000078e-04,-1.600000000000000131e-04,4.000000000000000327e-05,9.000000000000000567e-05,3.000000000000000000e+00,1.700000000000000000e+01
4.270600000000000000e+04,1.000000000000000082e-05,-1.000000000000000082e-05,-2.999999999999999737e-05,-4.000000000000000327e-05,2.200000000000000078e-04,-1.600000000000000131e-04,4.000000000000000327e-05,9.000000000000000567e-05,3.000000000000000000e+00,1.700000000000000000e+01
4.270700000000000000e+04,1.699999999999999851e-04,0.000000000000000000e+00,-2.000000000000000164e-05,-6.999999999999999387e-05,-1.000000000000000048e-04,5.000000000000000240e-05,-1.100000000000000039e-04,-2.000000000000000164e-05,3.000000000000000000e+00,1.700000000000000000e+01
4.270800000000000000e+04,1.699999999999999851e-04,0.000000000000000000e+00,-2.000000000000000164e-05,-6.999999999999999387e-05,-1.000000000000000048e-04,5.000000000000000240e-05,-1.100000000000000039e-04,-2.000000000000000164e-05,3.000000000000000000e+00,1.700000000000000000e+01
4.270900000000000000e+04,1.699999999999999851e-04,0.000000000000000000e+00,-2.000000000000000164e-05,-6.999999999999999387e-05,-1.000000000000000048e-04,5.000000000000000240e-05,-1.100000000000000039e-04,-2.000000000000000164e-05,3.000000000000000000e+00,1.700000000000000000e+01
4.271000000000000000e+04,1.699999999999999851e-04,0.000000000000000000e+00,-2.000000000000000164e-05,-6.999999999999999387e-05,-1.000000000000000048e-04,5.000000000000000240e-05,-1.100000000000000039e-04,-2.000000000000000164e-05,3.000000000000000000e+00,1.700000000000000000e+01
4.271100000000000000e+04,1.699999999999999851e-04,0.000000000000000000e+00,-2.000000000000000164e-05,-6.999999999999999387e-05,-1.000000000000000048e-04,5.000000000000000240e-05,-1.100000000000000039e-04,-2.000000000000000164e-05,3.000000000000000000e+00,1.700000000000000000e+01
4.271200000000000000e+04,1.699999999999999851e-04,0.000000000000000000e+00,-2.000000000000000164e-05,-6.999999999999999387e-05,-1.000000000000000048e-04,5.000000000000000240e-05,-1.100000000000000039e-04,-2.000000000000000164e-05,3.000000000000000000e+00,1.700000000000000000e+01
4.271300000000000000e+04,1.699999999999999851e-04,0.000000000000000000e+00,-2.000000000000000164e-05,-6.999999999999999387e-05,-1.000000000000000048e-04,5.000000000000000240e-05,-1.100000000000000039e-04,-2.000000000000000164e-05,3.000000000000000000e+00,1.700000000000000000e+01
4.271400000000000000e+04,1.699999999999999851e-04,0.000000000000000000e+00,-2.000000000000000164e-05,-6.999999999999999387e-05,-1.000000000000000048e-04,5.000000000000000240e-05,-1.100000000000000039e-04,-2.000000000000000164e-05,3.000000000000000000e+00,1.700000000000000000e+01
4.271500000000000000e+04,1.699999999999999851e-04,0.000000000000000000e+00,-2.000000000000000164e-05,-6.999999999999999387e-05,-1.000000000000000048e-04,5.000000000000000240e-05,-1.100000000000000039e-04,-2.000000000000000164e-05,3.000000000000000000e+00,1.700000000000000000e+01
4.271600000000000000e+04,1.699999999999999851e-04,0.000000000000000000e+00,-2.000000000000000164e-05,-6.999999999999999387e-05,-1.000000000000000048e-04,5.000000000000000240e-05,-1.100000000000000039e-04,-2.000000000000000164e-05,3.000000000000000000e+00,1.700000000000000000e+01
4.271700000000000000e+04,1.699999999999999851e-04,0.000000000000000000e+00,-2.000000000000000164e-05,-6.999999999999999387e-05,-1.000000000000000048e-04,5.000000000000000240e-05,-1.100000000000000039e-04,-2.000000000000000164e-05,3.000000000000000000e+00,1.700000000000000000e+01
