6.543100000000000000e+04,2.000000000000000164e-05,1.000000000000000082e-05,-5.000000000000000240e-05,-5.699999999999999772e-04,-6.999999999999999387e-05,-2.999999999999999737e-05,1.000000000000000082e-05,1.000000000000000082e-05,5.000000000000000000e+00,2.100000000000000000e+01
6.543200000000000000e+04,2.000000000000000164e-05,1.000000000000000082e-05,-5.000000000000000240e-05,-5.699999999999999772e-04,-6.999999999999999387e-05,-2.999999999999999737e-05,1.000000000000000082e-05,1.000000000000000082e-05,5.000000000000000000e+00,2.100000000000000000e+01
6.543300000000000000e+04,2.000000000000000164e-05,1.000000000000000082e-05,-5.000000000000000240e-05,-5.699999999999999772e-04,-6.999999999999999387e-05,-2.999999999999999737e-05,1.000000000000000082e-05,1.000000000000000082e-05,5.000000000000000000e+00,2.100000000000000000e+01
6.543400000000000000e+04,2.000000000000000164e-05,1.000000000000000082e-05,-5.000000000000000240e-05,-5.699999999999999772e-04,-6.999999999999999387e-05,-2.999999999999999737e-05,1.000000000000000082e-05,1.000000000000000082e-05,5.000000000000000000e+00,2.100000000000000000e+01
6.543500000000000000e+04,2.000000000000000164e-05,1.000000000000000082e-05,-5.000000000000000240e-05,-5.699999999999999772e-04,-6.999999999999999387e-05,-2.999999999999999737e-05,1.000000000000000082e-05,1.000000000000000082e-05,5.000000000000000000e+00,2.100000000000000000e+01
6.543600000000000000e+04,2.000000000000000164e-05,1.000000000000000082e-05,-5.000000000000000240e-05,-5.699999999999999772e-04,-6.999999999999999387e-05,-2.999999999999999737e-05,1.000000000000000082e-05,1.000000000000000082e-05,5.000000000000000000e+00,2.100000000000000000e+01
6.543900000000000000e+04,2.000000000000000164e-05,1.000000000000000082e-05,-5.000000000000000240e-05,-5.699999999999999772e-04,-6.999999999999999387e-05,-2.999999999999999737e-05,1.000000000000000082e-05,1.000000000000000082e-05,5.000000000000000000e+00,2.100000000000000000e+01
6.544000000000000000e+04,2.000000000000000164e-05,1.000000000000000082e-05,-5.000000000000000240e-05,-5.699999999999999772e-04,-6.999999999999999387e-05,-2.999999999999999737e-05,1.000000000000000082e-05,1.000000000000000082e-05,5.000000000000000000e+00,2.100000000000000000e+01
6.544100000000000000e+04,2.000000000000000164e-05,1.000000000000000082e-05,-5.000000000000000240e-05,-5.699999999999999772e-04,-6.999999999999999387e-05,-2.999999999999999737e-05,1.000000000000000082e-05,1.000000000000000082e-05,5.000000000000000000e+00,2.100000000000000000e+01
6.544200000000000000e+04,2.000000000000000164e-05,1.000000000000000082e-05,-5.000000000000000240e-05,-5.699999999999999772e-04,-6.999999999999999387e-05,-2.999999999999999737e-05,1.000000000000000082e-05,1.000000000000000082e-05,5.000000000000000000e+00,2.100000000000000000e+01
6.544300000000000000e+04,2.000000000000000164e-05,1.000000000000000082e-05,-5.000000000000000240e-05,-5.699999999999999772e-04,-6.999999999999999387e-05,-2.999999999999999737e-05,1.000000000000000082e-05,1.000000000000000082e-05,5.000000000000000000e+00,2.100000000000000000e+01
6.544400000000000000e+04,2.000000000000000164e-05,1.000000000000000082e-05,-5.000000000000000240e-05,-5.699999999999999772e-04,-6.999999999999999387e-05,-2.999999999999999737e-05,1.000000000000000082e-05,1.000000000000000082e-05,5.000000000000000000e+00,2.100000000000000000e+01
6.544500000000000000e+04,2.000000000000000164e-05,1.000000000000000082e-05,-5.000000000000000240e-05,-5.699999999999999772e-04,-6.999999999999999387e-05,-2.999999999999999737e-05,1.000000000000000082e-05,1.000000000000000082e-05,5.000000000000000000e+00,2.100000000000000000e+01
6.544600000000000000e+04,2.000000000000000164e-05,1.000000000000000082e-05,-5.000000000000000240e-05,-5.699999999999999772e-04,-6.999999999999999387e-05,-2.999999999999999737e-05,1.000000000000000082e-05,1.000000000000000082e-05,5.000000000000000000e+00,2.100000000000000000e+01
6.544700000000000000e+04,-5.000000000000000240e-05,-2.999999999999999737e-05,3.200000000000000262e-04,6.799999999999999404e-04,1.000000000000000048e-04,0.000000000000000000e+00,0.000000000000000000e+00,0.000000000000000000e+00,5.000000000000000000e+00,2.100000000000000000e+01
6.544800000000000000e+04,-1.000000000000000082e-05,-2.999999999999999737e-05,-4.799999999999999580e-04,-7.900000000000000121e-04,1.499999999999999869e-04,-2.900000000000000017e-04,-6.999999999999999387e-05,-2.999999999999999737e-05,5.000000000000000000e+00,2.100000000000000000e+01
6.544900000000000000e+04,1.000000000000000082e-05,2.000000000000000164e-05,-1.800000000000000113e-04,3.699999999999999947e-04,1.899999999999999834e-04,-8.000000000000000654e-05,-2.999999999999999737e-05,0.000000000000000000e+00,5.000000000000000000e+00,2.100000000000000000e+01
6.545000000000000000e+04,1.000000000000000082e-05,2.000000000000000164e-05,-1.800000000000000113e-04,3.699999999999999947e-04,1.899999999999999834e-04,-8.000000000000000654e-05,-2.999999999999999737e-05,0.000000000000000000e+00,5.000000000000000000e+00,2.100000000000000000e+01
6.545100000000000000e+04,1.000000000000000082e-05,2.000000000000000164e-05,-1.800000000000000113e-04,3.699999999999999947e-04,1.899999999999999834e-04,-8.000000000000000654e-05,-2.999999999999999737e-05,0.000000000000000000e+00,5.000000000000000000e+00,2.100000000000000000e+01
6.545200000000000000e+04,1.000000000000000082e-05,2.000000000000000164e-05,-1.800000000000000113e-04,3.699999999999999947e-04,1.899999999999999834e-04,-8.000000000000000654e-05,-2.999999999999999737e-05,0.000000000000000000e+00,5.000000000000000000e+00,2.100000000000000000e+01
6.545300000000000000e+04,1.000000000000000082e-05,2.000000000000000164e-05,-1.800000000000000113e-04,3.699999999999999947e-04,1.899999999999999834e-04,-8.000000000000000654e-05,-2.999999999999999737e-05,0.000000000000000000e+00,5.000000000000000000e+00,2.100000000000000000e+01
6.545400000000000000e+04,1.000000000000000082e-05,2.000000000000000164e-05,-1.800000000000000113e-04,3.699999999999999947e-04,1.899999999999999834e-04,-8.000000000000000654e-05,-2.999999999999999737e-05,0.000000000000000000e+00,5.000000000000000000e+00,2.100000000000000000e+01
6.545500000000000000e+04,1.000000000000000082e-05,2.000000000000000164e-05,-1.800000000000000113e-04,3.699999999999999947e-04,1.899999999999999834e-04,-8.000000000000000654e-05,-2.999999999999999737e-05,0.000000000000000000e+00,5.000000000000000000e+00,2.100000000000000000e+01
6.545600000000000000e+04,1.000000000000000082e-05,2.000000000000000164e-05,-1.800000000000000113e-04,3.699999999999999947e-04,1.899999999999999834e-04,-8.000000000000000654e-05,-2.999999999999999737e-05,0.000000000000000000e+00,5.000000000000000000e+00,2.100000000000000000e+01
6.545700000000000000e+04,1.000000000000000082e-05,2.000000000000000164e-05,-1.800000000000000113e-04,3.699999999999999947e-04,1.899999999999999834e-04,-8.000000000000000654e-05,-2.999999999999999737e-05,0.000000000000000000e+00,5.000000000000000000e+00,2.100000000000000000e+01
6.545800000000000000e+04,1.000000000000000082e-05,2.000000000000000164e-05,-1.800000000000000113e-04,3.699999999999999947e-04,1.899999999999999834e-04,-8.000000000000000654e-05,-2.999999999999999737e-05,0.000000000000000000e+00,5.000000000000000000e+00,2.100000000000000000e+01
6.545900000000000000e+04,1.000000000000000082e-05,2.000000000000000164e-05,-1.800000000000000113e-04,3.699999999999999947e-04,1.899999999999999834e-04,-8.000000000000000654e-05,-2.999999999999999737e-05,0.000000000000000000e+00,5.000000000000000000e+00,2.100000000000000000e+01
6.546000000000000000e+04,1.000000000000000082e-05,2.000000000000000164e-05,-1.800000000000000113e-04,3.699999999999999947e-04,1.899999999999999834e-04,-8.000000000000000654e-05,-2.999999999999999737e-05,0.000000000000000000e+00,5.000000000000000000e+00,2.100000000000000000e+01
6.546100000000000000e+04,1.000000000000000082e-05,2.000000000000000164e-05,-1.800000000000000113e-04,3.699999999999999947e-04,1.899999999999999834e-04,-8.000000000000000654e-05,-2.999999999999999737e-05,0.000000000000000000e+00,5.000000000000000000e+00,2.100000000000000000e+01
6.546200000000000000e+04,1.000000000000000082e-05,2.000000000000000164e-05,-1.800000000000000113e-04,3.699999999999999947e-04,1.899999999999999834e-04,-8.000000000000000654e-05,-2.999999999999999737e-05,0.000000000000000000e+00,5.000000000000000000e+00,2.100000000000000000e+01
6.546300000000000000e+04,1.000000000000000082e-05,2.000000000000000164e-05,-1.800000000000000113e-04,3.699999999999999947e-04,1.899999999999999834e-04,-8.000000000000000654e-05,-2.999999999999999737e-05,0.000000000000000000e+00,5.000000000000000000e+00,2.100000000000000000e+01
6.546400000000000000e+04,1.000000000000000082e-05,2.000000000000000164e-05,-1.800000000000000113e-04,3.699999999999999947e-04,1.899999999999999834e-04,-8.000000000000000654e-05,-2.999999999999999737e-05,0.000000000000000000e+00,5.000000000000000000e+00,2.100000000000000000e+01
6.546500000000000000e+04,1.000000000000000082e-05,2.000000000000000164e-05,-1.800000000000000113e-04,3.699999999999999947e-04,1.899999999999999834e-04,-8.000000000000000654e-05,-2.999999999999999737e-05,0.000000000000000000e+00,5.000000000000000000e+00,2.100000000000000000e+01
6.546600000000000000e+04,1.000000000000000082e-05,2.000000000000000164e-05,-1.800000000000000113e-04,3.699999999999999947e-04,1.899999999999999834e-04,-8.000000000000000654e-05,-2.999999999999999737e-05,0.000000000000000000e+00,5.000000000000000000e+00,2.100000000000000000e+01
6.546700000000000000e+04,1.000000000000000082e-05,2.000000000000000164e-05,-1.800000000000000113e-04,3.699999999999999947e-04,1.899999999999999834e-04,-8.000000000000000654e-05,-2.999999999999999737e-05,0.000000000000000000e+00,5.000000000000000000e+00,2.100000000000000000e+01
6.546800000000000000e+04,1.000000000000000082e-05,2.000000000000000164e-05,-1.800000000000000113e-04,3.699999999999999947e-04,1.899999999999999834e-04,-8.000000000000000654e-05,-2.999999999999999737e-05,0.000000000000000000e+00,5.000000000000000000e+00,2.100000000000000000e+01
6.546900000000000000e+04,5.000000000000000240e-05,0.000000000000000000e+00,-3.299999999999999982e-04,3.299999999999999982e-04,2.000000000000000096e-04,2.200000000000000078e-04,6.999999999999999387e-05,4.000000000000000327e-05,5.000000000000000000e+00,2.100000000000000000e+01
6.547000000000000000e+04,5.000000000000000240e-05,0.000000000000000000e+00,-3.299999999999999982e-04,3.299999999999999982e-04,2.000000000000000096e-04,2.200000000000000078e-04,6.999999999999999387e-05,4.000000000000000327e-05,5.000000000000000000e+00,2.100000000000000000e+01
6.547100000000000000e+04,2.999999999999999737e-05,8.000000000000000654e-05,6.999999999999999387e-05,-7.200000000000000453e-04,-4.400000000000000157e-04,-1.300000000000000157e-04,2.000000000000000164e-05,4.000000000000000327e-05,5.000000000000000000e+00,2.100000000000000000e+01
6.547200000000000000e+04,2.999999999999999737e-05,8.000000000000000654e-05,6.999999999999999387e-05,-7.200000000000000453e-04,-4.400000000000000157e-04,-1.300000000000000157e-04,2.000000000000000164e-05,4.000000000000000327e-05,5.000000000000000000e+00,2.100000000000000000e+01
6.547300000000000000e+04,2.999999999999999737e-05,8.000000000000000654e-05,6.999999999999999387e-05,-7.200000000000000453e-04,-4.400000000000000157e-04,-1.300000000000000157e-04,2.000000000000000164e-05,4.000000000000000327e-05,5.000000000000000000e+00,2.100000000000000000e+01
6.547400000000000000e+04,2.999999999999999737e-05,8.000000000000000654e-05,6.999999999999999387e-05,-7.200000000000000453e-04,-4.400000000000000157e-04,-1.300000000000000157e-04,2.000000000000000164e-05,4.000000000000000327e-05,5.000000000000000000e+00,2.100000000000000000e+01
6.547500000000000000e+04,2.999999999999999737e-05,8.000000000000000654e-05,6.999999999999999387e-05,-7.200000000000000453e-04,-4.400000000000000157e-04,-1.300000000000000157e-04,2.000000000000000164e-05,4.000000000000000327e-05,5.000000000000000000e+00,2.100000000000000000e+01
6.547600000000000000e+04,2.999999999999999737e-05,8.000000000000000654e-05,6.999999999999999387e-05,-7.200000000000000453e-04,-4.400000000000000157e-04,-1.300000000000000157e-04,2.000000000000000164e-05,4.000000000000000327e-05,5.000000000000000000e+00,2.100000000000000000e+01
6.547700000000000000e+04,2.999999999999999737e-05,8.000000000000000654e-05,6.999999999999999387e-05,-7.200000000000000453e-04,-4.400000000000000157e-04,-1.300000000000000157e-04,2.000000000000000164e-05,4.000000000000000327e-05,5.000000000000000000e+00,2.100000000000000000e+01
6.547800000000000000e+04,2.999999999999999737e-05,8.000000000000000654e-05,6.999999999999999387e-05,-7.200000000000000453e-04,-4.400000000000000157e-04,-1.300000000000000157e-04,2.000000000000000164e-05,4.000000000000000327e-05,5.000000000000000000e+00,2.100000000000000000e+01
6.547900000000000000e+04,2.999999999999999737e-05,8.000000000000000654e-05,6.999999999999999387e-05,-7.200000000000000453e-04,-4.400000000000000157e-04,-1.300000000000000157e-04,2.000000000000000164e-05,4.000000000000000327e-05,5.000000000000000000e+00,2.100000000000000000e+01
6.548000000000000000e+04,2.999999999999999737e-05,8.000000000000000654e-05,6.999999999999999387e-05,-7.200000000000000453e-04,-4.400000000000000157e-04,-1.300000000000000157e-04,2.000000000000000164e-05,4.000000000000000327e-05,5.000000000000000000e+00,2.100000000000000000e+01
6.548100000000000000e+04,2.999999999999999737e-05,8.000000000000000654e-05,6.999999999999999387e-05,-7.200000000000000453e-04,-4.400000000000000157e-04,-1.300000000000000157e-04,2.000000000000000164e-05,4.000000000000000327e-05,5.000000000000000000e+00,2.100000000000000000e+01
6.548200000000000000e+04,2.999999999999999737e-05,8.000000000000000654e-05,6.999999999999999387e-05,-7.200000000000000453e-04,-4.400000000000000157e-04,-1.300000000000000157e-04,2.000000000000000164e-05,4.000000000000000327e-05,5.000000000000000000e+00,2.100000000000000000e+01
6.548300000000000000e+04,2.999999999999999737e-05,8.000000000000000654e-05,6.999999999999999387e-05,-7.200000000000000453e-04,-4.400000000000000157e-04,-1.300000000000000157e-04,2.000000000000000164e-05,4.000000000000000327e-05,5.000000000000000000e+00,2.100000000000000000e+01
6.548400000000000000e+04,2.999999999999999737e-05,8.000000000000000654e-05,6.999999999999999387e-05,-7.200000000000000453e-04,-4.400000000000000157e-04,-1.300000000000000157e-04,2.000000000000000164e-05,4.000000000000000327e-05,5.000000000000000000e+00,2.100000000000000000e+01
6.548500000000000000e+04,2.999999999999999737e-05,8.000000000000000654e-05,6.999999999999999387e-05,-7.200000000000000453e-04,-4.400000000000000157e-04,-1.300000000000000157e-04,2.000000000000000164e-05,4.000000000000000327e-05,5.000000000000000000e+00,2.100000000000000000e+01
6.548600000000000000e+04,2.999999999999999737e-05,8.000000000000000654e-05,6.999999999999999387e-05,-7.200000000000000453e-04,-4.400000000000000157e-04,-1.300000000000000157e-04,2.000000000000000164e-05,4.000000000000000327e-05,5.000000000000000000e+00,2.100000000000000000e+01
6.548900000000000000e+04,2.999999999999999737e-05,8.000000000000000654e-05,6.999999999999999387e-05,-7.200000000000000453e-04,-4.400000000000000157e-04,-1.300000000000000157e-04,2.000000000000000164e-05,4.000000000000000327e-05,5.000000000000000000e+00,2.100000000000000000e+01
6.549000000000000000e+04,2.999999999999999737e-05,8.000000000000000654e-05,6.999999999999999387e-05,-7.200000000000000453e-04,-4.400000000000000157e-04,-1.300000000000000157e-04,2.000000000000000164e-05,4.000000000000000327e-05,5.000000000000000000e+00,2.100000000000000000e+01
6.549100000000000000e+04,2.999999999999999737e-05,8.000000000000000654e-05,6.999999999999999387e-05,-7.200000000000000453e-04,-4.400000000000000157e-04,-1.300000000000000157e-04,2.000000000000000164e-05,4.000000000000000327e-05,5.000000000000000000e+00,2.100000000000000000e+01
6.549200000000000000e+04,-5.999999999999999474e-05,-1.100000000000000039e-04,-2.700000000000000035e-04,4.400000000000000157e-04,-1.100000000000000039e-04,-5.000000000000000240e-05,-5.000000000000000240e-05,-5.000000000000000240e-05,5.000000000000000000e+00,2.100000000000000000e+01
6.549300000000000000e+04,-5.999999999999999474e-05,-1.100000000000000039e-04,-2.700000000000000035e-04,4.400000000000000157e-04,-1.100000000000000039e-04,-5.000000000000000240e-05,-5.000000000000000240e-05,-5.000000000000000240e-05,5.000000000000000000e+00,2.100000000000000000e+01
6.549400000000000000e+04,-1.000000000000000082e-05,-6.999999999999999387e-05,-4.000000000000000327e-05,7.099999999999999107e-04,-5.999999999999999474e-05,-5.000000000000000240e-05,-2.999999999999999737e-05,-2.000000000000000164e-05,5.000000000000000000e+00,2.100000000000000000e+01
6.549500000000000000e+04,-1.000000000000000082e-05,-6.999999999999999387e-05,-4.000000000000000327e-05,7.099999999999999107e-04,-5.999999999999999474e-05,-5.000000000000000240e-05,-2.999999999999999737e-05,-2.000000000000000164e-05,5.000000000000000000e+00,2.100000000000000000e+01
6.549600000000000000e+04,-1.000000000000000082e-05,-6.999999999999999387e-05,-4.000000000000000327e-05,7.099999999999999107e-04,-5.999999999999999474e-05,-5.000000000000000240e-05,-2.999999999999999737e-05,-2.000000000000000164e-05,5.000000000000000000e+00,2.100000000000000000e+01
6.549700000000000000e+04,-1.000000000000000082e-05,-6.999999999999999387e-05,-4.000000000000000327e-05,7.099999999999999107e-04,-5.999999999999999474e-05,-5.000000000000000240e-05,-2.999999999999999737e-05,-2.000000000000000164e-05,5.000000000000000000e+00,2.100000000000000000e+01
6.549800000000000000e+04,-1.000000000000000082e-05,-6.999999999999999387e-05,-4.000000000000000327e-05,7.099999999999999107e-04,-5.999999999999999474e-05,-5.000000000000000240e-05,-2.999999999999999737e-05,-2.000000000000000164e-05,5.000000000000000000e+00,2.100000000000000000e+01
6.549900000000000000e+04,1.199999999999999895e-04,1.199999999999999895e-04,-8.000000000000000654e-05,-2.700000000000000035e-04,4.000000000000000327e-05,-1.499999999999999869e-04,5.000000000000000240e-05,5.999999999999999474e-05,5.000000000000000000e+00,2.100000000000000000e+01
6.550000000000000000e+04,1.199999999999999895e-04,1.199999999999999895e-04,-8.000000000000000654e-05,-2.700000000000000035e-04,4.000000000000000327e-05,-1.499999999999999869e-04,5.000000000000000240e-05,5.999999999999999474e-05,5.000000000000000000e+00,2.100000000000000000e+01
6.550100000000000000e+04,-1.000000000000000082e-05,-2.999999999999999737e-05,9.000000000000000567e-05,-5.099999999999999282e-04,2.399999999999999790e-04,-1.600000000000000131e-04,-2.000000000000000164e-05,-1.000000000000000082e-05,5.000000000000000000e+00,2.100000000000000000e+01
6.550200000000000000e+04,-1.000000000000000082e-05,-2.999999999999999737e-05,9.000000000000000567e-05,-5.099999999999999282e-04,2.399999999999999790e-04,-1.600000000000000131e-04,-2.000000000000000164e-05,-1.000000000000000082e-05,5.000000000000000000e+00,2.100000000000000000e+01
6.550300000000000000e+04,-1.000000000000000082e-05,-2.999999999999999737e-05,9.000000000000000567e-05,-5.099999999999999282e-04,2.399999999999999790e-04,-1.600000000000000131e-04,-2.000000000000000164e-05,-1.000000000000000082e-05,5.000000000000000000e+00,2.100000000000000000e+01
6.550400000000000000e+04,-1.000000000000000082e-05,-2.999999999999999737e-05,9.000000000000000567e-05,-5.099999999999999282e-04,2.399999999999999790e-04,-1.600000000000000131e-04,-2.000000000000000164e-05,-1.000000000000000082e-05,5.000000000000000000e+00,2.100000000000000000e+01
6.550500000000000000e+04,-1.000000000000000082e-05,-2.999999999999999737e-05,9.000000000000000567e-05,-5.099999999999999282e-04,2.399999999999999790e-04,-1.600000000000000131e-04,-2.000000000000000164e-05,-1.000000000000000082e-05,5.000000000000000000e+00,2.100000000000000000e+01
6.550600000000000000e+04,-1.000000000000000082e-05,-2.999999999999999737e-05,9.000000000000000567e-05,-5.099999999999999282e-04,2.399999999999999790e-04,-1.600000000000000131e-04,-2.000000000000000164e-05,-1.000000000000000082e-05,5.000000000000000000e+00,2.100000000000000000e+01
6.550700000000000000e+04,-1.000000000000000082e-05,-2.999999999999999737e-05,9.000000000000000567e-05,-5.099999999999999282e-04,2.399999999999999790e-04,-1.600000000000000131e-04,-2.000000000000000164e-05,-1.000000000000000082e-05,5.000000000000000000e+00,2.100000000000000000e+01
6.550800000000000000e+04,-1.000000000000000082e-05,-2.999999999999999737e-05,9.000000000000000567e-05,-5.099999999999999282e-04,2.399999999999999790e-04,-1.600000000000000131e-04,-2.000000000000000164e-05,-1.000000000000000082e-05,5.000000000000000000e+00,2.100000000000000000e+01
6.550900000000000000e+04,-1.000000000000000082e-05,-2.999999999999999737e-05,9.000000000000000567e-05,-5.099999999999999282e-04,2.399999999999999790e-04,-1.600000000000000131e-04,-2.000000000000000164e-05,-1.000000000000000082e-05,5.000000000000000000e+00,2.100000000000000000e+01
6.551000000000000000e+04,-1.000000000000000082e-05,-2.999999999999999737e-05,9.000000000000000567e-05,-5.099999999999999282e-04,2.399999999999999790e-04,-1.600000000000000131e-04,-2.000000000000000164e-05,-1.000000000000000082e-05,5.000000000000000000e+00,2.100000000000000000e+01
6.551100000000000000e+04,-1.000000000000000082e-05,-2.999999999999999737e-05,9.000000000000000567e-05,-5.099999999999999282e-04,2.399999999999999790e-04,-1.600000000000000131e-04,-2.000000000000000164e-05,-1.000000000000000082e-05,5.000000000000000000e+00,2.100000000000000000e+01
6.551200000000000000e+04,-1.000000000000000082e-05,-2.999999999999999737e-05,9.000000000000000567e-05,-5.099999999999999282e-04,2.399999999999999790e-04,-1.600000000000000131e-04,-2.000000000000000164e-05,-1.000000000000000082e-05,5.000000000000000000e+00,2.100000000000000000e+01
6.551300000000000000e+04,-1.000000000000000082e-05,-2.999999999999999737e-05,9.000000000000000567e-05,-5.099999999999999282e-04,2.399999999999999790e-04,-1.600000000000000131e-04,-2.000000000000000164e-05,-1.000000000000000082e-05,5.000000000000000000e+00,2.100000000000000000e+01
6.551400000000000000e+04,-1.000000000000000082e-05,-2.999999999999999737e-05,9.000000000000000567e-05,-5.099999999999999282e-04,2.399999999999999790e-04,-1.600000000000000131e-04,-2.000000000000000164e-05,-1.000000000000000082e-05,5.000000000000000000e+00,2.100000000000000000e+01
6.551500000000000000e+04,-1.000000000000000082e-05,-2.999999999999999737e-05,9.000000000000000567e-05,-5.099999999999999282e-04,2.399999999999999790e-04,-1.600000000000000131e-04,-2.000000000000000164e-05,-1.000000000000000082e-05,5.000000000000000000e+00,2.100000000000000000e+01
6.551600000000000000e+04,-1.000000000000000082e-05,-2.999999999999999737e-05,9.000000000000000567e-05,-5.099999999999999282e-04,2.399999999999999790e-04,-1.600000000000000131e-04,-2.000000000000000164e-05,-1.000000000000000082e-05,5.000000000000000000e+00,2.100000000000000000e+01
6.551700000000000000e+04,-1.000000000000000082e-05,-2.999999999999999737e-05,9.000000000000000567e-05,-5.099999999999999282e-04,2.399999999999999790e-04,-1.600000000000000131e-04,-2.000000000000000164e-05,-1.000000000000000082e-05,5.000000000000000000e+00,2.100000000000000000e+01
6.551800000000000000e+04,-1.000000000000000082e-05,-2.999999999999999737e-05,9.000000000000000567e-05,-5.099999999999999282e-04,2.399999999999999790e-04,-1.600000000000000131e-04,-2.000000000000000164e-05,-1.000000000000000082e-05,5.000000000000000000e+00,2.100000000000000000e+01
6.551900000000000000e+04,-1.000000000000000082e-05,-2.999999999999999737e-05,9.000000000000000567e-05,-5.099999999999999282e-04,2.399999999999999790e-04,-1.600000000000000131e-04,-2.000000000000000164e-05,-1.000000000000000082e-05,5.000000000000000000e+00,2.100000000000000000e+01
6.552000000000000000e+04,-1.000000000000000082e-05,-2.999999999999999737e-05,9.000000000000000567e-05,-5.099999999999999282e-04,2.399999999999999790e-04,-1.600000000000000131e-04,-2.000000000000000164e-05,-1.000000000000000082e-05,5.000000000000000000e+00,2.100000000000000000e+01
6.552100000000000000e+04,-1.000000000000000082e-05,-2.999999999999999737e-05,9.000000000000000567e-05,-5.099999999999999282e-04,2.399999999999999790e-04,-1.600000000000000131e-04,-2.000000000000000164e-05,-1.000000000000000082e-05,5.000000000000000000e+00,2.100000000000000000e+01
6.552200000000000000e+04,-2.999999999999999737e-05,-2.000000000000000164e-05,2.999999999999999737e-04,-9.000000000000000567e-05,9.000000000000000567e-05,-9.000000000000000567e-05,-4.000000000000000327e-05,-4.000000000000000327e-05,5.000000000000000000e+00,2.100000000000000000e+01
6.552300000000000000e+04,2.999999999999999737e-05,2.999999999999999737e-05,1.600000000000000131e-04,1.109999999999999876e-03,3.899999999999999929e-04,2.999999999999999737e-05,2.000000000000000164e-05,2.999999999999999737e-05,5.000000000000000000e+00,2.100000000000000000e+01
6.552400000000000000e+04,2.999999999999999737e-05,2.999999999999999737e-05,1.600000000000000131e-04,1.109999999999999876e-03,3.899999999999999929e-04,2.999999999999999737e-05,2.000000000000000164e-05,2.999999999999999737e-05,5.000000000000000000e+00,2.100000000000000000e+01
6.552500000000000000e+04,2.999999999999999737e-05,2.999999999999999737e-05,1.600000000000000131e-04,1.109999999999999876e-03,3.899999999999999929e-04,2.999999999999999737e-05,2.000000000000000164e-05,2.999999999999999737e-05,5.000000000000000000e+00,2.100000000000000000e+01
6.552600000000000000e+04,2.999999999999999737e-05,2.999999999999999737e-05,1.600000000000000131e-04,1.109999999999999876e-03,3.899999999999999929e-04,2.999999999999999737e-05,2.000000000000000164e-05,2.999999999999999737e-05,5.000000000000000000e+00,2.100000000000000000e+01
6.552700000000000000e+04,2.999999999999999737e-05,2.999999999999999737e-05,1.600000000000000131e-04,1.109999999999999876e-03,3.899999999999999929e-04,2.999999999999999737e-05,2.000000000000000164e-05,2.999999999999999737e-05,5.000000000000000000e+00,2.100000000000000000e+01
6.552800000000000000e+04,2.999999999999999737e-05,2.999999999999999737e-05,1.600000000000000131e-04,1.109999999999999876e-03,3.899999999999999929e-04,2.999999999999999737e-05,2.000000000000000164e-05,2.999999999999999737e-05,5.000000000000000000e+00,2.100000000000000000e+01
6.552900000000000000e+04,2.999999999999999737e-05,2.999999999999999737e-05,1.600000000000000131e-04,1.109999999999999876e-03,3.899999999999999929e-04,2.999999999999999737e-05,2.000000000000000164e-05,2.999999999999999737e-05,5.000000000000000000e+00,2.100000000000000000e+01
6.553000000000000000e+04,2.999999999999999737e-05,2.999999999999999737e-05,1.600000000000000131e-04,1.109999999999999876e-03,3.899999999999999929e-04,2.999999999999999737e-05,2.000000000000000164e-05,2.999999999999999737e-05,5.000000000000000000e+00,2.100000000000000000e+01
6.553100000000000000e+04,2.999999999999999737e-05,2.999999999999999737e-05,1.600000000000000131e-04,1.109999999999999876e-03,3.899999999999999929e-04,2.999999999999999737e-05,2.000000000000000164e-05,2.999999999999999737e-05,5.000000000000000000e+00,2.100000000000000000e+01
6.553200000000000000e+04,2.999999999999999737e-05,2.999999999999999737e-05,1.600000000000000131e-04,1.109999999999999876e-03,3.899999999999999929e-04,2.999999999999999737e-05,2.000000000000000164e-05,2.999999999999999737e-05,5.000000000000000000e+00,2.100000000000000000e+01
6.553300000000000000e+04,2.999999999999999737e-05,2.999999999999999737e-05,1.600000000000000131e-04,1.109999999999999876e-03,3.899999999999999929e-04,2.999999999999999737e-05,2.000000000000000164e-05,2.999999999999999737e-05,5.000000000000000000e+00,2.100000000000000000e+01
6.553400000000000000e+04,2.999999999999999737e-05,2.999999999999999737e-05,1.600000000000000131e-04,1.109999999999999876e-03,3.899999999999999929e-04,2.999999999999999737e-05,2.000000000000000164e-05,2.999999999999999737e-05,5.000000000000000000e+00,2.100000000000000000e+01
6.553500000000000000e+04,2.999999999999999737e-05,2.999999999999999737e-05,1.600000000000000131e-04,1.109999999999999876e-03,3.899999999999999929e-04,2.999999999999999737e-05,2.000000000000000164e-05,2.999999999999999737e-05,5.000000000000000000e+00,2.100000000000000000e+01
6.553600000000000000e+04,2.999999999999999737e-05,2.999999999999999737e-05,1.600000000000000131e-04,1.109999999999999876e-03,3.899999999999999929e-04,2.999999999999999737e-05,2.000000000000000164e-05,2.999999999999999737e-05,5.000000000000000000e+00,2.100000000000000000e+01
6.553800000000000000e+04,2.999999999999999737e-05,2.999999999999999737e-05,1.600000000000000131e-04,1.109999999999999876e-03,3.899999999999999929e-04,2.999999999999999737e-05,2.000000000000000164e-05,2.999999999999999737e-05,5.000000000000000000e+00,2.100000000000000000e+01
6.553900000000000000e+04,2.999999999999999737e-05,2.999999999999999737e-05,1.600000000000000131e-04,1.109999999999999876e-03,3.899999999999999929e-04,2.999999999999999737e-05,2.000000000000000164e-05,2.999999999999999737e-05,5.000000000000000000e+00,2.100000000000000000e+01
6.554000000000000000e+04,2.999999999999999737e-05,2.999999999999999737e-05,1.600000000000000131e-04,1.109999999999999876e-03,3.899999999999999929e-04,2.999999999999999737e-05,2.000000000000000164e-05,2.999999999999999737e-05,5.000000000000000000e+00,2.100000000000000000e+01
6.554100000000000000e+04,2.999999999999999737e-05,2.999999999999999737e-05,1.600000000000000131e-04,1.109999999999999876e-03,3.899999999999999929e-04,2.999999999999999737e-05,2.000000000000000164e-05,2.999999999999999737e-05,5.000000000000000000e+00,2.100000000000000000e+01
6.554200000000000000e+04,2.999999999999999737e-05,2.999999999999999737e-05,1.600000000000000131e-04,1.109999999999999876e-03,3.899999999999999929e-04,2.999999999999999737e-05,2.000000000000000164e-05,2.999999999999999737e-05,5.000000000000000000e+00,2.100000000000000000e+01
6.554300000000000000e+04,2.999999999999999737e-05,2.999999999999999737e-05,1.600000000000000131e-04,1.109999999999999876e-03,3.899999999999999929e-04,2.999999999999999737e-05,2.000000000000000164e-05,2.999999999999999737e-05,5.000000000000000000e+00,2.100000000000000000e+01
6.554400000000000000e+04,1.000000000000000082e-05,8.000000000000000654e-05,-4.000000000000000327e-05,4.000000000000000192e-04,-1.699999999999999851e-04,-1.100000000000000039e-04,-2.000000000000000164e-05,-2.000000000000000164e-05,5.000000000000000000e+00,2.100000000000000000e+01
6.554500000000000000e+04,-8.000000000000000654e-05,-2.000000000000000096e-04,-1.499999999999999869e-04,-9.799999999999999684e-04,-1.600000000000000131e-04,-1.199999999999999895e-04,-6.999999999999999387e-05,-4.000000000000000327e-05,5.000000000000000000e+00,2.100000000000000000e+01
6.554600000000000000e+04,-2.999999999999999737e-05,-5.999999999999999474e-05,2.700000000000000035e-04,-5.000000000000000240e-05,5.999999999999999474e-05,-2.000000000000000164e-05,-5.999999999999999474e-05,-5.999999999999999474e-05,5.000000000000000000e+00,2.100000000000000000e+01
6.554700000000000000e+04,-2.999999999999999737e-05,-5.999999999999999474e-05,2.700000000000000035e-04,-5.000000000000000240e-05,5.999999999999999474e-05,-2.000000000000000164e-05,-5.999999999999999474e-05,-5.999999999999999474e-05,5.000000000000000000e+00,2.100000000000000000e+01
6.554800000000000000e+04,-2.999999999999999737e-05,-5.999999999999999474e-05,2.700000000000000035e-04,-5.000000000000000240e-05,5.999999999999999474e-05,-2.000000000000000164e-05,-5.999999999999999474e-05,-5.999999999999999474e-05,5.000000000000000000e+00,2.100000000000000000e+01
6.554900000000000000e+04,-2.999999999999999737e-05,-5.999999999999999474e-05,2.700000000000000035e-04,-5.000000000000000240e-05,5.999999999999999474e-05,-2.000000000000000164e-05,-5.999999999999999474e-05,-5.999999999999999474e-05,5.000000000000000000e+00,2.100000000000000000e+01
6.555000000000000000e+04,-2.999999999999999737e-05,-5.999999999999999474e-05,2.700000000000000035e-04,-5.000000000000000240e-05,5.999999999999999474e-05,-2.000000000000000164e-05,-5.999999999999999474e-05,-5.999999999999999474e-05,5.000000000000000000e+00,2.100000000000000000e+01
6.555100000000000000e+04,-2.999999999999999737e-05,-5.999999999999999474e-05,2.700000000000000035e-04,-5.000000000000000240e-05,5.999999999999999474e-05,-2.000000000000000164e-05,-5.999999999999999474e-05,-5.999999999999999474e-05,5.000000000000000000e+00,2.100000000000000000e+01
6.555200000000000000e+04,-2.999999999999999737e-05,-5.999999999999999474e-05,2.700000000000000035e-04,-5.000000000000000240e-05,5.999999999999999474e-05,-2.000000000000000164e-05,-5.999999999999999474e-05,-5.999999999999999474e-05,5.000000000000000000e+00,2.100000000000000000e+01
6.555300000000000000e+04,-2.999999999999999737e-05,-5.999999999999999474e-05,2.700000000000000035e-04,-5.000000000000000240e-05,5.999999999999999474e-05,-2.000000000000000164e-05,-5.999999999999999474e-05,-5.999999999999999474e-05,5.000000000000000000e+00,2.100000000000000000e+01
6.555400000000000000e+04,-2.999999999999999737e-05,-5.999999999999999474e-05,2.700000000000000035e-04,-5.000000000000000240e-05,5.999999999999999474e-05,-2.000000000000000164e-05,-5.999999999999999474e-05,-5.999999999999999474e-05,5.000000000000000000e+00,2.100000000000000000e+01
6.555500000000000000e+04,-2.999999999999999737e-05,-5.999999999999999474e-05,2.700000000000000035e-04,-5.000000000000000240e-05,5.999999999999999474e-05,-2.000000000000000164e-05,-5.999999999999999474e-05,-5.999999999999999474e-05,5.000000000000000000e+00,2.100000000000000000e+01
6.555600000000000000e+04,-2.999999999999999737e-05,-5.999999999999999474e-05,2.700000000000000035e-04,-5.000000000000000240e-05,5.999999999999999474e-05,-2.000000000000000164e-05,-5.999999999999999474e-05,-5.999999999999999474e-05,5.000000000000000000e+00,2.100000000000000000e+01
6.555700000000000000e+04,-2.999999999999999737e-05,-5.999999999999999474e-05,2.700000000000000035e-04,-5.000000000000000240e-05,5.999999999999999474e-05,-2.000000000000000164e-05,-5.999999999999999474e-05,-5.999999999999999474e-05,5.000000000000000000e+00,2.100000000000000000e+01
6.555800000000000000e+04,-2.999999999999999737e-05,-5.999999999999999474e-05,2.700000000000000035e-04,-5.000000000000000240e-05,5.999999999999999474e-05,-2.000000000000000164e-05,-5.999999999999999474e-05,-5.999999999999999474e-05,5.000000000000000000e+00,2.100000000000000000e+01
6.555900000000000000e+04,1.000000000000000082e-05,2.999999999999999737e-05,-2.000000000000000096e-04,-1.199999999999999895e-04,1.000000000000000082e-05,1.600000000000000131e-04,2.000000000000000164e-05,0.000000000000000000e+00,5.000000000000000000e+00,2.100000000000000000e+01
6.556000000000000000e+04,1.000000000000000082e-05,2.999999999999999737e-05,-2.000000000000000096e-04,-1.199999999999999895e-04,1.000000000000000082e-05,1.600000000000000131e-04,2.000000000000000164e-05,0.000000000000000000e+00,5.000000000000000000e+00,2.100000000000000000e+01
6.556100000000000000e+04,-2.000000000000000164e-05,-5.000000000000000240e-05,-2.000000000000000164e-05,-8.699999999999998967e-04,-2.500000000000000052e-04,2.999999999999999737e-05,0.000000000000000000e+00,-1.000000000000000082e-05,5.000000000000000000e+00,2.100000000000000000e+01
6.556200000000000000e+04,-2.000000000000000164e-05,-5.000000000000000240e-05,-2.000000000000000164e-05,-8.699999999999998967e-04,-2.500000000000000052e-04,2.999999999999999737e-05,0.000000000000000000e+00,-1.000000000000000082e-05,5.000000000000000000e+00,2.100000000000000000e+01
6.556300000000000000e+04,-2.000000000000000164e-05,-5.000000000000000240e-05,-2.000000000000000164e-05,-8.699999999999998967e-04,-2.500000000000000052e-04,2.999999999999999737e-05,0.000000000000000000e+00,-1.000000000000000082e-05,5.000000000000000000e+00,2.100000000000000000e+01
6.556400000000000000e+04,-2.000000000000000164e-05,-5.000000000000000240e-05,-2.000000000000000164e-05,-8.699999999999998967e-04,-2.500000000000000052e-04,2.999999999999999737e-05,0.000000000000000000e+00,-1.000000000000000082e-05,5.000000000000000000e+00,2.100000000000000000e+01
6.556500000000000000e+04,-2.000000000000000164e-05,-5.000000000000000240e-05,-2.000000000000000164e-05,-8.699999999999998967e-04,-2.500000000000000052e-04,2.999999999999999737e-05,0.000000000000000000e+00,-1.000000000000000082e-05,5.000000000000000000e+00,2.100000000000000000e+01
6.556600000000000000e+04,-2.000000000000000164e-05,-5.000000000000000240e-05,-2.000000000000000164e-05,-8.699999999999998967e-04,-2.500000000000000052e-04,2.999999999999999737e-05,0.000000000000000000e+00,-1.000000000000000082e-05,5.000000000000000000e+00,2.100000000000000000e+01
6.556700000000000000e+04,-2.000000000000000164e-05,-5.000000000000000240e-05,-2.000000000000000164e-05,-8.699999999999998967e-04,-2.500000000000000052e-04,2.999999999999999737e-05,0.000000000000000000e+00,-1.000000000000000082e-05,5.000000000000000000e+00,2.100000000000000000e+01
6.556800000000000000e+04,-2.000000000000000164e-05,-5.000000000000000240e-05,-2.000000000000000164e-05,-8.699999999999998967e-04,-2.500000000000000052e-04,2.999999999999999737e-05,0.000000000000000000e+00,-1.000000000000000082e-05,5.000000000000000000e+00,2.100000000000000000e+01
6.556900000000000000e+04,-2.000000000000000164e-05,-5.000000000000000240e-05,-2.000000000000000164e-05,-8.699999999999998967e-04,-2.500000000000000052e-04,2.999999999999999737e-05,0.000000000000000000e+00,-1.000000000000000082e-05,5.000000000000000000e+00,2.100000000000000000e+01
6.557000000000000000e+04,-2.000000000000000164e-05,-5.000000000000000240e-05,-2.000000000000000164e-05,-8.699999999999998967e-04,-2.500000000000000052e-04,2.999999999999999737e-05,0.000000000000000000e+00,-1.000000000000000082e-05,5.000000000000000000e+00,2.100000000000000000e+01
6.557100000000000000e+04,-2.000000000000000164e-05,-5.000000000000000240e-05,-2.000000000000000164e-05,-8.699999999999998967e-04,-2.500000000000000052e-04,2.999999999999999737e-05,0.000000000000000000e+00,-1.000000000000000082e-05,5.000000000000000000e+00,2.100000000000000000e+01
6.557200000000000000e+04,-2.000000000000000164e-05,-5.000000000000000240e-05,-2.000000000000000164e-05,-8.699999999999998967e-04,-2.500000000000000052e-04,2.999999999999999737e-05,0.000000000000000000e+00,-1.000000000000000082e-05,5.000000000000000000e+00,2.100000000000000000e+01
6.557300000000000000e+04,-2.000000000000000164e-05,-5.000000000000000240e-05,-2.000000000000000164e-05,-8.699999999999998967e-04,-2.500000000000000052e-04,2.999999999999999737e-05,0.000000000000000000e+00,-1.000000000000000082e-05,5.000000000000000000e+00,2.100000000000000000e+01
6.557400000000000000e+04,-2.000000000000000164e-05,-5.000000000000000240e-05,-2.000000000000000164e-05,-8.699999999999998967e-04,-2.500000000000000052e-04,2.999999999999999737e-05,0.000000000000000000e+00,-1.000000000000000082e-05,5.000000000000000000e+00,2.100000000000000000e+01
6.557500000000000000e+04,-2.000000000000000164e-05,-5.000000000000000240e-05,-2.000000000000000164e-05,-8.699999999999998967e-04,-2.500000000000000052e-04,2.999999999999999737e-05,0.000000000000000000e+00,-1.000000000000000082e-05,5.000000000000000000e+00,2.100000000000000000e+01
6.557600000000000000e+04,-2.000000000000000164e-05,-5.000000000000000240e-05,-2.000000000000000164e-05,-8.699999999999998967e-04,-2.500000000000000052e-04,2.999999999999999737e-05,0.000000000000000000e+00,-1.000000000000000082e-05,5.000000000000000000e+00,2.100000000000000000e+01
6.557700000000000000e+04,-2.000000000000000164e-05,-5.000000000000000240e-05,-2.000000000000000164e-05,-8.699999999999998967e-04,-2.500000000000000052e-04,2.999999999999999737e-05,0.000000000000000000e+00,-1.000000000000000082e-05,5.000000000000000000e+00,2.100000000000000000e+01
6.557800000000000000e+04,-2.000000000000000164e-05,-5.000000000000000240e-05,-2.000000000000000164e-05,-8.699999999999998967e-04,-2.500000000000000052e-04,2.999999999999999737e-05,0.000000000000000000e+00,-1.000000000000000082e-05,5.000000000000000000e+00,2.100000000000000000e+01
6.557900000000000000e+04,-2.000000000000000164e-05,-5.000000000000000240e-05,-2.000000000000000164e-05,-8.699999999999998967e-04,-2.500000000000000052e-04,2.999999999999999737e-05,0.000000000000000000e+00,-1.000000000000000082e-05,5.000000000000000000e+00,2.100000000000000000e+01
6.558000000000000000e+04,-2.000000000000000164e-05,-5.000000000000000240e-05,-2.000000000000000164e-05,-8.699999999999998967e-04,-2.500000000000000052e-04,2.999999999999999737e-05,0.000000000000000000e+00,-1.000000000000000082e-05,5.000000000000000000e+00,2.100000000000000000e+01
6.558100000000000000e+04,-2.000000000000000164e-05,-5.000000000000000240e-05,-2.000000000000000164e-05,-8.699999999999998967e-04,-2.500000000000000052e-04,2.999999999999999737e-05,0.000000000000000000e+00,-1.000000000000000082e-05,5.000000000000000000e+00,2.100000000000000000e+01
6.558200000000000000e+04,-6.999999999999999387e-05,-2.000000000000000164e-05,-1.000000000000000082e-05,5.800000000000000034e-04,2.000000000000000164e-05,8.000000000000000654e-05,-4.000000000000000327e-05,-5.999999999999999474e-05,5.000000000000000000e+00,2.100000000000000000e+01
6.558300000000000000e+04,6.999999999999999387e-05,1.499999999999999869e-04,2.399999999999999790e-04,6.099999999999999737e-04,1.199999999999999895e-04,1.000000000000000082e-05,1.000000000000000082e-05,2.999999999999999737e-05,5.000000000000000000e+00,2.100000000000000000e+01
6.558400000000000000e+04,6.999999999999999387e-05,1.499999999999999869e-04,2.399999999999999790e-04,6.099999999999999737e-04,1.199999999999999895e-04,1.000000000000000082e-05,1.000000000000000082e-05,2.999999999999999737e-05,5.000000000000000000e+00,2.100000000000000000e+01
6.558500000000000000e+04,6.999999999999999387e-05,1.499999999999999869e-04,2.399999999999999790e-04,6.099999999999999737e-04,1.199999999999999895e-04,1.000000000000000082e-05,1.000000000000000082e-05,2.999999999999999737e-05,5.000000000000000000e+00,2.100000000000000000e+01
6.558600000000000000e+04,6.999999999999999387e-05,1.499999999999999869e-04,2.399999999999999790e-04,6.099999999999999737e-04,1.199999999999999895e-04,1.000000000000000082e-05,1.000000000000000082e-05,2.999999999999999737e-05,5.000000000000000000e+00,2.100000000000000000e+01
6.558800000000000000e+04,6.999999999999999387e-05,1.499999999999999869e-04,2.399999999999999790e-04,6.099999999999999737e-04,1.199999999999999895e-04,1.000000000000000082e-05,1.000000000000000082e-05,2.999999999999999737e-05,5.000000000000000000e+00,2.100000000000000000e+01
6.558900000000000000e+04,6.999999999999999387e-05,1.499999999999999869e-04,2.399999999999999790e-04,6.099999999999999737e-04,1.199999999999999895e-04,1.000000000000000082e-05,1.000000000000000082e-05,2.999999999999999737e-05,5.000000000000000000e+00,2.100000000000000000e+01
6.559000000000000000e+04,6.999999999999999387e-05,1.499999999999999869e-04,2.399999999999999790e-04,6.099999999999999737e-04,1.199999999999999895e-04,1.000000000000000082e-05,1.000000000000000082e-05,2.999999999999999737e-05,5.000000000000000000e+00,2.100000000000000000e+01
6.559100000000000000e+04,6.999999999999999387e-05,1.499999999999999869e-04,2.399999999999999790e-04,6.099999999999999737e-04,1.199999999999999895e-04,1.000000000000000082e-05,1.000000000000000082e-05,2.999999999999999737e-05,5.000000000000000000e+00,2.100000000000000000e+01
6.559200000000000000e+04,6.999999999999999387e-05,1.499999999999999869e-04,2.399999999999999790e-04,6.099999999999999737e-04,1.199999999999999895e-04,1.000000000000000082e-05,1.000000000000000082e-05,2.999999999999999737e-05,5.000000000000000000e+00,2.100000000000000000e+01
6.559300000000000000e+04,6.999999999999999387e-05,1.499999999999999869e-04,2.399999999999999790e-04,6.099999999999999737e-04,1.199999999999999895e-04,1.000000000000000082e-05,1.000000000000000082e-05,2.999999999999999737e-05,5.000000000000000000e+00,2.100000000000000000e+01
6.559400000000000000e+04,6.999999999999999387e-05,1.499999999999999869e-04,2.399999999999999790e-04,6.099999999999999737e-04,1.199999999999999895e-04,1.000000000000000082e-05,1.000000000000000082e-05,2.999999999999999737e-05,5.000000000000000000e+00,2.100000000000000000e+01
6.559500000000000000e+04,6.999999999999999387e-05,1.499999999999999869e-04,2.399999999999999790e-04,6.099999999999999737e-04,1.199999999999999895e-04,1.000000000000000082e-05,1.000000000000000082e-05,2.999999999999999737e-05,5.000000000000000000e+00,2.100000000000000000e+01
6.559600000000000000e+04,6.999999999999999387e-05,1.499999999999999869e-04,2.399999999999999790e-04,6.099999999999999737e-04,1.199999999999999895e-04,1.000000000000000082e-05,1.000000000000000082e-05,2.999999999999999737e-05,5.000000000000000000e+00,2.100000000000000000e+01
6.559700000000000000e+04,6.999999999999999387e-05,1.499999999999999869e-04,2.399999999999999790e-04,6.099999999999999737e-04,1.199999999999999895e-04,1.000000000000000082e-05,1.000000000000000082e-05,2.999999999999999737e-05,5.000000000000000000e+00,2.100000000000000000e+01
6.559800000000000000e+04,6.999999999999999387e-05,1.499999999999999869e-04,2.399999999999999790e-04,6.099999999999999737e-04,1.199999999999999895e-04,1.000000000000000082e-05,1.000000000000000082e-05,2.999999999999999737e-05,5.000000000000000000e+00,2.100000000000000000e+01
6.559900000000000000e+04,6.999999999999999387e-05,1.499999999999999869e-04,2.399999999999999790e-04,6.099999999999999737e-04,1.199999999999999895e-04,1.000000000000000082e-05,1.000000000000000082e-05,2.999999999999999737e-05,5.000000000000000000e+00,2.100000000000000000e+01
6.560000000000000000e+04,6.999999999999999387e-05,1.499999999999999869e-04,2.399999999999999790e-04,6.099999999999999737e-04,1.199999999999999895e-04,1.000000000000000082e-05,1.000000000000000082e-05,2.999999999999999737e-05,5.000000000000000000e+00,2.100000000000000000e+01
6.560100000000000000e+04,6.999999999999999387e-05,1.499999999999999869e-04,2.399999999999999790e-04,6.099999999999999737e-04,1.199999999999999895e-04,1.000000000000000082e-05,1.000000000000000082e-05,2.999999999999999737e-05,5.000000000000000000e+00,2.100000000000000000e+01
6.560200000000000000e+04,6.999999999999999387e-05,1.499999999999999869e-04,2.399999999999999790e-04,6.099999999999999737e-04,1.199999999999999895e-04,1.000000000000000082e-05,1.000000000000000082e-05,2.999999999999999737e-05,5.000000000000000000e+00,2.100000000000000000e+01
6.560300000000000000e+04,6.999999999999999387e-05,1.499999999999999869e-04,2.399999999999999790e-04,6.099999999999999737e-04,1.199999999999999895e-04,1.000000000000000082e-05,1.000000000000000082e-05,2.999999999999999737e-05,5.000000000000000000e+00,2.100000000000000000e+01
6.560400000000000000e+04,0.000000000000000000e+00,2.000000000000000164e-05,2.000000000000000164e-05,-5.800000000000000034e-04,-2.799999999999999755e-04,2.200000000000000078e-04,4.000000000000000327e-05,-2.000000000000000164e-05,5.000000000000000000e+00,2.100000000000000000e+01
6.560500000000000000e+04,1.000000000000000082e-05,-5.999999999999999474e-05,-1.000000000000000048e-04,-2.399999999999999790e-04,3.499999999999999964e-04,-5.000000000000000240e-05,2.999999999999999737e-05,2.000000000000000164e-05,5.000000000000000000e+00,2.100000000000000000e+01
6.560600000000000000e+04,-1.100000000000000039e-04,-1.499999999999999869e-04,-1.000000000000000048e-04,-2.600000000000000314e-04,-1.100000000000000039e-04,2.299999999999999799e-04,-1.000000000000000082e-05,-5.999999999999999474e-05,5.000000000000000000e+00,2.100000000000000000e+01
6.560700000000000000e+04,-1.100000000000000039e-04,-1.499999999999999869e-04,-1.000000000000000048e-04,-2.600000000000000314e-04,-1.100000000000000039e-04,2.299999999999999799e-04,-1.000000000000000082e-05,-5.999999999999999474e-05,5.000000000000000000e+00,2.100000000000000000e+01
6.560800000000000000e+04,-1.100000000000000039e-04,-1.499999999999999869e-04,-1.000000000000000048e-04,-2.600000000000000314e-04,-1.100000000000000039e-04,2.299999999999999799e-04,-1.000000000000000082e-05,-5.999999999999999474e-05,5.000000000000000000e+00,2.100000000000000000e+01
6.560900000000000000e+04,-1.100000000000000039e-04,-1.499999999999999869e-04,-1.000000000000000048e-04,-2.600000000000000314e-04,-1.100000000000000039e-04,2.299999999999999799e-04,-1.000000000000000082e-05,-5.999999999999999474e-05,5.000000000000000000e+00,2.100000000000000000e+01
6.561000000000000000e+04,-1.100000000000000039e-04,-1.499999999999999869e-04,-1.000000000000000048e-04,-2.600000000000000314e-04,-1.100000000000000039e-04,2.299999999999999799e-04,-1.000000000000000082e-05,-5.999999999999999474e-05,5.000000000000000000e+00,2.100000000000000000e+01
6.561100000000000000e+04,-1.100000000000000039e-04,-1.499999999999999869e-04,-1.000000000000000048e-04,-2.600000000000000314e-04,-1.100000000000000039e-04,2.299999999999999799e-04,-1.000000000000000082e-05,-5.999999999999999474e-05,5.000000000000000000e+00,2.100000000000000000e+01
6.561200000000000000e+04,-1.100000000000000039e-04,-1.499999999999999869e-04,-1.000000000000000048e-04,-2.600000000000000314e-04,-1.100000000000000039e-04,2.299999999999999799e-04,-1.000000000000000082e-05,-5.999999999999999474e-05,5.000000000000000000e+00,2.100000000000000000e+01
6.561300000000000000e+04,-1.100000000000000039e-04,-1.499999999999999869e-04,-1.000000000000000048e-04,-2.600000000000000314e-04,-1.100000000000000039e-04,2.299999999999999799e-04,-1.000000000000000082e-05,-5.999999999999999474e-05,5.000000000000000000e+00,2.100000000000000000e+01
6.561400000000000000e+04,-1.100000000000000039e-04,-1.499999999999999869e-04,-1.000000000000000048e-04,-2.600000000000000314e-04,-1.100000000000000039e-04,2.299999999999999799e-04,-1.000000000000000082e-05,-5.999999999999999474e-05,5.000000000000000000e+00,2.100000000000000000e+01
6.561500000000000000e+04,-1.100000000000000039e-04,-1.499999999999999869e-04,-1.000000000000000048e-04,-2.600000000000000314e-04,-1.100000000000000039e-04,2.299999999999999799e-04,-1.000000000000000082e-05,-5.999999999999999474e-05,5.000000000000000000e+00,2.100000000000000000e+01
6.561600000000000000e+04,-1.100000000000000039e-04,-1.499999999999999869e-04,-1.000000000000000048e-04,-2.600000000000000314e-04,-1.100000000000000039e-04,2.299999999999999799e-04,-1.000000000000000082e-05,-5.999999999999999474e-05,5.000000000000000000e+00,2.100000000000000000e+01
6.561700000000000000e+04,-1.100000000000000039e-04,-1.499999999999999869e-04,-1.000000000000000048e-04,-2.600000000000000314e-04,-1.100000000000000039e-04,2.299999999999999799e-04,-1.000000000000000082e-05,-5.999999999999999474e-05,5.000000000000000000e+00,2.100000000000000000e+01
6.561800000000000000e+04,-1.100000000000000039e-04,-1.499999999999999869e-04,-1.000000000000000048e-04,-2.600000000000000314e-04,-1.100000000000000039e-04,2.299999999999999799e-04,-1.000000000000000082e-05,-5.999999999999999474e-05,5.000000000000000000e+00,2.100000000000000000e+01
6.561900000000000000e+04,-5.000000000000000240e-05,-6.999999999999999387e-05,1.000000000000000082e-05,-3.399999999999999702e-04,-1.000000000000000048e-04,-1.399999999999999877e-04,-4.000000000000000327e-05,-2.000000000000000164e-05,5.000000000000000000e+00,2.100000000000000000e+01
6.562000000000000000e+04,-5.000000000000000240e-05,-6.999999999999999387e-05,1.000000000000000082e-05,-3.399999999999999702e-04,-1.000000000000000048e-04,-1.399999999999999877e-04,-4.000000000000000327e-05,-2.000000000000000164e-05,5.000000000000000000e+00,2.100000000000000000e+01
6.562100000000000000e+04,-5.000000000000000240e-05,-6.999999999999999387e-05,1.000000000000000082e-05,-3.399999999999999702e-04,-1.000000000000000048e-04,-1.399999999999999877e-04,-4.000000000000000327e-05,-2.000000000000000164e-05,5.000000000000000000e+00,2.100000000000000000e+01
6.562200000000000000e+04,-5.000000000000000240e-05,-6.999999999999999387e-05,1.000000000000000082e-05,-3.399999999999999702e-04,-1.000000000000000048e-04,-1.399999999999999877e-04,-4.000000000000000327e-05,-2.000000000000000164e-05,5.000000000000000000e+00,2.100000000000000000e+01
6.562300000000000000e+04,-5.000000000000000240e-05,-6.999999999999999387e-05,1.000000000000000082e-05,-3.399999999999999702e-04,-1.000000000000000048e-04,-1.399999999999999877e-04,-4.000000000000000327e-05,-2.000000000000000164e-05,5.000000000000000000e+00,2.100000000000000000e+01
6.562400000000000000e+04,-5.000000000000000240e-05,-6.999999999999999387e-05,1.000000000000000082e-05,-3.399999999999999702e-04,-1.000000000000000048e-04,-1.399999999999999877e-04,-4.000000000000000327e-05,-2.000000000000000164e-05,5.000000000000000000e+00,2.100000000000000000e+01
6.562500000000000000e+04,1.000000000000000082e-05,2.000000000000000164e-05,1.000000000000000048e-04,3.699999999999999947e-04,1.399999999999999877e-04,6.999999999999999387e-05,2.999999999999999737e-05,2.000000000000000164e-05,5.000000000000000000e+00,2.100000000000000000e+01
6.562600000000000000e+04,5.000000000000000240e-05,5.999999999999999474e-05,2.299999999999999799e-04,-2.700000000000000035e-04,2.000000000000000164e-05,-1.000000000000000048e-04,-2.000000000000000164e-05,0.000000000000000000e+00,5.000000000000000000e+00,2.100000000000000000e+01
6.562700000000000000e+04,5.000000000000000240e-05,5.999999999999999474e-05,2.299999999999999799e-04,-2.700000000000000035e-04,2.000000000000000164e-05,-1.000000000000000048e-04,-2.000000000000000164e-05,0.000000000000000000e+00,5.000000000000000000e+00,2.100000000000000000e+01
6.562800000000000000e+04,5.000000000000000240e-05,5.999999999999999474e-05,2.299999999999999799e-04,-2.700000000000000035e-04,2.000000000000000164e-05,-1.000000000000000048e-04,-2.000000000000000164e-05,0.000000000000000000e+00,5.000000000000000000e+00,2.100000000000000000e+01
6.562900000000000000e+04,5.000000000000000240e-05,5.999999999999999474e-05,2.299999999999999799e-04,-2.700000000000000035e-04,2.000000000000000164e-05,-1.000000000000000048e-04,-2.000000000000000164e-05,0.000000000000000000e+00,5.000000000000000000e+00,2.100000000000000000e+01
6.563000000000000000e+04,5.000000000000000240e-05,5.999999999999999474e-05,2.299999999999999799e-04,-2.700000000000000035e-04,2.000000000000000164e-05,-1.000000000000000048e-04,-2.000000000000000164e-05,0.000000000000000000e+00,5.000000000000000000e+00,2.100000000000000000e+01
6.563100000000000000e+04,5.000000000000000240e-05,5.999999999999999474e-05,2.299999999999999799e-04,-2.700000000000000035e-04,2.000000000000000164e-05,-1.000000000000000048e-04,-2.000000000000000164e-05,0.000000000000000000e+00,5.000000000000000000e+00,2.100000000000000000e+01
6.563200000000000000e+04,5.000000000000000240e-05,5.999999999999999474e-05,2.299999999999999799e-04,-2.700000000000000035e-04,2.000000000000000164e-05,-1.000000000000000048e-04,-2.000000000000000164e-05,0.000000000000000000e+00,5.000000000000000000e+00,2.100000000000000000e+01
6.563300000000000000e+04,5.000000000000000240e-05,5.999999999999999474e-05,2.299999999999999799e-04,-2.700000000000000035e-04,2.000000000000000164e-05,-1.000000000000000048e-04,-2.000000000000000164e-05,0.000000000000000000e+00,5.000000000000000000e+00,2.100000000000000000e+01
6.563400000000000000e+04,5.000000000000000240e-05,5.999999999999999474e-05,2.299999999999999799e-04,-2.700000000000000035e-04,2.000000000000000164e-05,-1.000000000000000048e-04,-2.000000000000000164e-05,0.000000000000000000e+00,5.000000000000000000e+00,2.100000000000000000e+01
6.563500000000000000e+04,5.000000000000000240e-05,5.999999999999999474e-05,2.299999999999999799e-04,-2.700000000000000035e-04,2.000000000000000164e-05,-1.000000000000000048e-04,-2.000000000000000164e-05,0.000000000000000000e+00,5.000000000000000000e+00,2.100000000000000000e+01
6.563600000000000000e+04,5.000000000000000240e-05,5.999999999999999474e-05,2.299999999999999799e-04,-2.700000000000000035e-04,2.000000000000000164e-05,-1.000000000000000048e-04,-2.000000000000000164e-05,0.000000000000000000e+00,5.000000000000000000e+00,2.100000000000000000e+01
6.563800000000000000e+04,5.000000000000000240e-05,5.999999999999999474e-05,2.299999999999999799e-04,-2.700000000000000035e-04,2.000000000000000164e-05,-1.000000000000000048e-04,-2.000000000000000164e-05,0.000000000000000000e+00,5.000000000000000000e+00,2.100000000000000000e+01
6.563900000000000000e+04,5.000000000000000240e-05,5.999999999999999474e-05,2.299999999999999799e-04,-2.700000000000000035e-04,2.000000000000000164e-05,-1.000000000000000048e-04,-2.000000000000000164e-05,0.000000000000000000e+00,5.000000000000000000e+00,2.100000000000000000e+01
6.564000000000000000e+04,5.000000000000000240e-05,5.999999999999999474e-05,2.299999999999999799e-04,-2.700000000000000035e-04,2.000000000000000164e-05,-1.000000000000000048e-04,-2.000000000000000164e-05,0.000000000000000000e+00,5.000000000000000000e+00,2.100000000000000000e+01
6.564100000000000000e+04,5.000000000000000240e-05,5.999999999999999474e-05,2.299999999999999799e-04,-2.700000000000000035e-04,2.000000000000000164e-05,-1.000000000000000048e-04,-2.000000000000000164e-05,0.000000000000000000e+00,5.000000000000000000e+00,2.100000000000000000e+01
6.564200000000000000e+04,-5.000000000000000240e-05,-2.000000000000000164e-05,2.299999999999999799e-04,1.000000000000000021e-03,3.200000000000000262e-04,-2.999999999999999737e-05,0.000000000000000000e+00,1.000000000000000082e-05,5.000000000000000000e+00,2.100000000000000000e+01
6.564300000000000000e+04,-5.000000000000000240e-05,-2.000000000000000164e-05,2.299999999999999799e-04,1.000000000000000021e-03,3.200000000000000262e-04,-2.999999999999999737e-05,0.000000000000000000e+00,1.000000000000000082e-05,5.000000000000000000e+00,2.100000000000000000e+01
6.564400000000000000e+04,1.000000000000000082e-05,4.000000000000000327e-05,-1.399999999999999877e-04,-1.899999999999999834e-04,-2.200000000000000078e-04,-2.999999999999999737e-05,0.000000000000000000e+00,2.999999999999999737e-05,5.000000000000000000e+00,2.100000000000000000e+01
6.564500000000000000e+04,1.000000000000000082e-05,4.000000000000000327e-05,-1.399999999999999877e-04,-1.899999999999999834e-04,-2.200000000000000078e-04,-2.999999999999999737e-05,0.000000000000000000e+00,2.999999999999999737e-05,5.000000000000000000e+00,2.100000000000000000e+01
6.564600000000000000e+04,1.000000000000000082e-05,4.000000000000000327e-05,-1.399999999999999877e-04,-1.899999999999999834e-04,-2.200000000000000078e-04,-2.999999999999999737e-05,0.000000000000000000e+00,2.999999999999999737e-05,5.000000000000000000e+00,2.100000000000000000e+01
6.564700000000000000e+04,1.000000000000000082e-05,4.000000000000000327e-05,-1.399999999999999877e-04,-1.899999999999999834e-04,-2.200000000000000078e-04,-2.999999999999999737e-05,0.000000000000000000e+00,2.999999999999999737e-05,5.000000000000000000e+00,2.100000000000000000e+01
6.564800000000000000e+04,1.000000000000000082e-05,4.000000000000000327e-05,-1.399999999999999877e-04,-1.899999999999999834e-04,-2.200000000000000078e-04,-2.999999999999999737e-05,0.000000000000000000e+00,2.999999999999999737e-05,5.000000000000000000e+00,2.100000000000000000e+01
6.564900000000000000e+04,1.000000000000000082e-05,4.000000000000000327e-05,-1.399999999999999877e-04,-1.899999999999999834e-04,-2.200000000000000078e-04,-2.999999999999999737e-05,0.000000000000000000e+00,2.999999999999999737e-05,5.000000000000000000e+00,2.100000000000000000e+01
6.565000000000000000e+04,1.000000000000000082e-05,4.000000000000000327e-05,-1.399999999999999877e-04,-1.899999999999999834e-04,-2.200000000000000078e-04,-2.999999999999999737e-05,0.000000000000000000e+00,2.999999999999999737e-05,5.000000000000000000e+00,2.100000000000000000e+01
6.565100000000000000e+04,1.000000000000000082e-05,4.000000000000000327e-05,-1.399999999999999877e-04,-1.899999999999999834e-04,-2.200000000000000078e-04,-2.999999999999999737e-05,0.000000000000000000e+00,2.999999999999999737e-05,5.000000000000000000e+00,2.100000000000000000e+01
6.565200000000000000e+04,1.000000000000000082e-05,4.000000000000000327e-05,-1.399999999999999877e-04,-1.899999999999999834e-04,-2.200000000000000078e-04,-2.999999999999999737e-05,0.000000000000000000e+00,2.999999999999999737e-05,5.000000000000000000e+00,2.100000000000000000e+01
6.565300000000000000e+04,1.000000000000000082e-05,4.000000000000000327e-05,-1.399999999999999877e-04,-1.899999999999999834e-04,-2.200000000000000078e-04,-2.999999999999999737e-05,0.000000000000000000e+00,2.999999999999999737e-05,5.000000000000000000e+00,2.100000000000000000e+01
6.565400000000000000e+04,1.000000000000000082e-05,4.000000000000000327e-05,-1.399999999999999877e-04,-1.899999999999999834e-04,-2.200000000000000078e-04,-2.999999999999999737e-05,0.000000000000000000e+00,2.999999999999999737e-05,5.000000000000000000e+00,2.100000000000000000e+01
6.565500000000000000e+04,1.000000000000000082e-05,4.000000000000000327e-05,-1.399999999999999877e-04,-1.899999999999999834e-04,-2.200000000000000078e-04,-2.999999999999999737e-05,0.000000000000000000e+00,2.999999999999999737e-05,5.000000000000000000e+00,2.100000000000000000e+01
6.565600000000000000e+04,1.000000000000000082e-05,4.000000000000000327e-05,-1.399999999999999877e-04,-1.899999999999999834e-04,-2.200000000000000078e-04,-2.999999999999999737e-05,0.000000000000000000e+00,2.999999999999999737e-05,5.000000000000000000e+00,2.100000000000000000e+01
6.565700000000000000e+04,1.000000000000000082e-05,4.000000000000000327e-05,-1.399999999999999877e-04,-1.899999999999999834e-04,-2.200000000000000078e-04,-2.999999999999999737e-05,0.000000000000000000e+00,2.999999999999999737e-05,5.000000000000000000e+00,2.100000000000000000e+01
6.565800000000000000e+04,1.000000000000000082e-05,4.000000000000000327e-05,-1.399999999999999877e-04,-1.899999999999999834e-04,-2.200000000000000078e-04,-2.999999999999999737e-05,0.000000000000000000e+00,2.999999999999999737e-05,5.000000000000000000e+00,2.100000000000000000e+01
6.565900000000000000e+04,1.000000000000000082e-05,4.000000000000000327e-05,-1.399999999999999877e-04,-1.899999999999999834e-04,-2.200000000000000078e-04,-2.999999999999999737e-05,0.000000000000000000e+00,2.999999999999999737e-05,5.000000000000000000e+00,2.100000000000000000e+01
6.566000000000000000e+04,1.000000000000000082e-05,4.000000000000000327e-05,-1.399999999999999877e-04,-1.899999999999999834e-04,-2.200000000000000078e-04,-2.999999999999999737e-05,0.000000000000000000e+00,2.999999999999999737e-05,5.000000000000000000e+00,2.100000000000000000e+01
6.566100000000000000e+04,1.000000000000000082e-05,4.000000000000000327e-05,-1.399999999999999877e-04,-1.899999999999999834e-04,-2.200000000000000078e-04,-2.999999999999999737e-05,0.000000000000000000e+00,2.999999999999999737e-05,5.000000000000000000e+00,2.100000000000000000e+01
6.566200000000000000e+04,1.000000000000000082e-05,4.000000000000000327e-05,-1.399999999999999877e-04,-1.899999999999999834e-04,-2.200000000000000078e-04,-2.999999999999999737e-05,0.000000000000000000e+00,2.999999999999999737e-05,5.000000000000000000e+00,2.100000000000000000e+01
6.566300000000000000e+04,1.000000000000000082e-05,4.000000000000000327e-05,-1.399999999999999877e-04,-1.899999999999999834e-04,-2.200000000000000078e-04,-2.999999999999999737e-05,0.000000000000000000e+00,2.999999999999999737e-05,5.000000000000000000e+00,2.100000000000000000e+01
6.566400000000000000e+04,-4.000000000000000327e-05,-2.999999999999999737e-05,2.299999999999999799e-04,-1.100000000000000039e-04,-6.999999999999999387e-05,-5.999999999999999474e-05,-5.999999999999999474e-05,-5.000000000000000240e-05,5.000000000000000000e+00,2.100000000000000000e+01
6.566500000000000000e+04,-4.000000000000000327e-05,-2.999999999999999737e-05,2.299999999999999799e-04,-1.100000000000000039e-04,-6.999999999999999387e-05,-5.999999999999999474e-05,-5.999999999999999474e-05,-5.000000000000000240e-05,5.000000000000000000e+00,2.100000000000000000e+01
6.566600000000000000e+04,4.000000000000000327e-05,1.000000000000000048e-04,5.000000000000000240e-05,5.099999999999999282e-04,8.000000000000000654e-05,-4.000000000000000327e-05,0.000000000000000000e+00,2.999999999999999737e-05,5.000000000000000000e+00,2.100000000000000000e+01
6.566700000000000000e+04,4.000000000000000327e-05,1.000000000000000048e-04,5.000000000000000240e-05,5.099999999999999282e-04,8.000000000000000654e-05,-4.000000000000000327e-05,0.000000000000000000e+00,2.999999999999999737e-05,5.000000000000000000e+00,2.100000000000000000e+01
6.566800000000000000e+04,4.000000000000000327e-05,1.000000000000000048e-04,5.000000000000000240e-05,5.099999999999999282e-04,8.000000000000000654e-05,-4.000000000000000327e-05,0.000000000000000000e+00,2.999999999999999737e-05,5.000000000000000000e+00,2.100000000000000000e+01
6.566900000000000000e+04,4.000000000000000327e-05,1.000000000000000048e-04,5.000000000000000240e-05,5.099999999999999282e-04,8.000000000000000654e-05,-4.000000000000000327e-05,0.000000000000000000e+00,2.999999999999999737e-05,5.000000000000000000e+00,2.100000000000000000e+01
6.567000000000000000e+04,4.000000000000000327e-05,1.000000000000000048e-04,5.000000000000000240e-05,5.099999999999999282e-04,8.000000000000000654e-05,-4.000000000000000327e-05,0.000000000000000000e+00,2.999999999999999737e-05,5.000000000000000000e+00,2.100000000000000000e+01
6.567100000000000000e+04,4.000000000000000327e-05,1.000000000000000048e-04,5.000000000000000240e-05,5.099999999999999282e-04,8.000000000000000654e-05,-4.000000000000000327e-05,0.000000000000000000e+00,2.999999999999999737e-05,5.000000000000000000e+00,2.100000000000000000e+01
6.567200000000000000e+04,4.000000000000000327e-05,1.000000000000000048e-04,5.000000000000000240e-05,5.099999999999999282e-04,8.000000000000000654e-05,-4.000000000000000327e-05,0.000000000000000000e+00,2.999999999999999737e-05,5.000000000000000000e+00,2.100000000000000000e+01
6.567300000000000000e+04,4.000000000000000327e-05,1.000000000000000048e-04,5.000000000000000240e-05,5.099999999999999282e-04,8.000000000000000654e-05,-4.000000000000000327e-05,0.000000000000000000e+00,2.999999999999999737e-05,5.000000000000000000e+00,2.100000000000000000e+01
6.567400000000000000e+04,4.000000000000000327e-05,1.000000000000000048e-04,5.000000000000000240e-05,5.099999999999999282e-04,8.000000000000000654e-05,-4.000000000000000327e-05,0.000000000000000000e+00,2.999999999999999737e-05,5.000000000000000000e+00,2.100000000000000000e+01
6.567500000000000000e+04,4.000000000000000327e-05,1.000000000000000048e-04,5.000000000000000240e-05,5.099999999999999282e-04,8.000000000000000654e-05,-4.000000000000000327e-05,0.000000000000000000e+00,2.999999999999999737e-05,5.000000000000000000e+00,2.100000000000000000e+01
6.567600000000000000e+04,4.000000000000000327e-05,1.000000000000000048e-04,5.000000000000000240e-05,5.099999999999999282e-04,8.000000000000000654e-05,-4.000000000000000327e-05,0.000000000000000000e+00,2.999999999999999737e-05,5.000000000000000000e+00,2.100000000000000000e+01
6.567700000000000000e+04,4.000000000000000327e-05,1.000000000000000048e-04,5.000000000000000240e-05,5.099999999999999282e-04,8.000000000000000654e-05,-4.000000000000000327e-05,0.000000000000000000e+00,2.999999999999999737e-05,5.000000000000000000e+00,2.100000000000000000e+01
6.567800000000000000e+04,4.000000000000000327e-05,1.000000000000000048e-04,5.000000000000000240e-05,5.099999999999999282e-04,8.000000000000000654e-05,-4.000000000000000327e-05,0.000000000000000000e+00,2.999999999999999737e-05,5.000000000000000000e+00,2.100000000000000000e+01
6.567900000000000000e+04,-2.000000000000000164e-05,-2.999999999999999737e-05,-1.399999999999999877e-04,-1.000000000000000082e-05,1.800000000000000113e-04,-5.999999999999999474e-05,-2.000000000000000164e-05,-2.000000000000000164e-05,5.000000000000000000e+00,2.100000000000000000e+01
6.568000000000000000e+04,-2.000000000000000164e-05,-2.999999999999999737e-05,-1.399999999999999877e-04,-1.000000000000000082e-05,1.800000000000000113e-04,-5.999999999999999474e-05,-2.000000000000000164e-05,-2.000000000000000164e-05,5.000000000000000000e+00,2.100000000000000000e+01
6.568100000000000000e+04,-2.000000000000000164e-05,-2.999999999999999737e-05,-1.399999999999999877e-04,-1.000000000000000082e-05,1.800000000000000113e-04,-5.999999999999999474e-05,-2.000000000000000164e-05,-2.000000000000000164e-05,5.000000000000000000e+00,2.100000000000000000e+01
6.568200000000000000e+04,-2.000000000000000164e-05,-2.999999999999999737e-05,-1.399999999999999877e-04,-1.000000000000000082e-05,1.800000000000000113e-04,-5.999999999999999474e-05,-2.000000000000000164e-05,-2.000000000000000164e-05,5.000000000000000000e+00,2.100000000000000000e+01
6.568300000000000000e+04,-2.000000000000000164e-05,-2.999999999999999737e-05,-1.399999999999999877e-04,-1.000000000000000082e-05,1.800000000000000113e-04,-5.999999999999999474e-05,-2.000000000000000164e-05,-2.000000000000000164e-05,5.000000000000000000e+00,2.100000000000000000e+01
6.568400000000000000e+04,-2.000000000000000164e-05,-2.999999999999999737e-05,-1.399999999999999877e-04,-1.000000000000000082e-05,1.800000000000000113e-04,-5.999999999999999474e-05,-2.000000000000000164e-05,-2.000000000000000164e-05,5.000000000000000000e+00,2.100000000000000000e+01
6.568500000000000000e+04,2.000000000000000164e-05,1.000000000000000082e-05,2.999999999999999737e-05,6.099999999999999737e-04,0.000000000000000000e+00,-1.100000000000000039e-04,-2.999999999999999737e-05,-1.000000000000000082e-05,5.000000000000000000e+00,2.100000000000000000e+01
6.568600000000000000e+04,6.999999999999999387e-05,1.199999999999999895e-04,4.000000000000000327e-05,-4.599999999999999597e-04,8.000000000000000654e-05,-1.199999999999999895e-04,0.000000000000000000e+00,4.000000000000000327e-05,5.000000000000000000e+00,2.100000000000000000e+01
6.568900000000000000e+04,6.999999999999999387e-05,1.199999999999999895e-04,4.000000000000000327e-05,-4.599999999999999597e-04,8.000000000000000654e-05,-1.199999999999999895e-04,0.000000000000000000e+00,4.000000000000000327e-05,5.000000000000000000e+00,2.100000000000000000e+01
6.569000000000000000e+04,6.999999999999999387e-05,1.199999999999999895e-04,4.000000000000000327e-05,-4.599999999999999597e-04,8.000000000000000654e-05,-1.199999999999999895e-04,0.000000000000000000e+00,4.000000000000000327e-05,5.000000000000000000e+00,2.100000000000000000e+01
6.569100000000000000e+04,6.999999999999999387e-05,1.199999999999999895e-04,4.000000000000000327e-05,-4.599999999999999597e-04,8.000000000000000654e-05,-1.199999999999999895e-04,0.000000000000000000e+00,4.000000000000000327e-05,5.000000000000000000e+00,2.100000000000000000e+01
6.569200000000000000e+04,6.999999999999999387e-05,1.199999999999999895e-04,4.000000000000000327e-05,-4.599999999999999597e-04,8.000000000000000654e-05,-1.199999999999999895e-04,0.000000000000000000e+00,4.000000000000000327e-05,5.000000000000000000e+00,2.100000000000000000e+01
6.569300000000000000e+04,6.999999999999999387e-05,1.199999999999999895e-04,4.000000000000000327e-05,-4.599999999999999597e-04,8.000000000000000654e-05,-1.199999999999999895e-04,0.000000000000000000e+00,4.000000000000000327e-05,5.000000000000000000e+00,2.100000000000000000e+01
6.569400000000000000e+04,6.999999999999999387e-05,1.199999999999999895e-04,4.000000000000000327e-05,-4.599999999999999597e-04,8.000000000000000654e-05,-1.199999999999999895e-04,0.000000000000000000e+00,4.000000000000000327e-05,5.000000000000000000e+00,2.100000000000000000e+01
6.569500000000000000e+04,6.999999999999999387e-05,1.199999999999999895e-04,4.000000000000000327e-05,-4.599999999999999597e-04,8.000000000000000654e-05,-1.199999999999999895e-04,0.000000000000000000e+00,4.000000000000000327e-05,5.000000000000000000e+00,2.100000000000000000e+01
6.569600000000000000e+04,6.999999999999999387e-05,1.199999999999999895e-04,4.000000000000000327e-05,-4.599999999999999597e-04,8.000000000000000654e-05,-1.199999999999999895e-04,0.000000000000000000e+00,4.000000000000000327e-05,5.000000000000000000e+00,2.100000000000000000e+01
6.569700000000000000e+04,6.999999999999999387e-05,1.199999999999999895e-04,4.000000000000000327e-05,-4.599999999999999597e-04,8.000000000000000654e-05,-1.199999999999999895e-04,0.000000000000000000e+00,4.000000000000000327e-05,5.000000000000000000e+00,2.100000000000000000e+01
6.569800000000000000e+04,6.999999999999999387e-05,1.199999999999999895e-04,4.000000000000000327e-05,-4.599999999999999597e-04,8.000000000000000654e-05,-1.199999999999999895e-04,0.000000000000000000e+00,4.000000000000000327e-05,5.000000000000000000e+00,2.100000000000000000e+01
6.569900000000000000e+04,6.999999999999999387e-05,1.199999999999999895e-04,4.000000000000000327e-05,-4.599999999999999597e-04,8.000000000000000654e-05,-1.199999999999999895e-04,0.000000000000000000e+00,4.000000000000000327e-05,5.000000000000000000e+00,2.100000000000000000e+01
6.570000000000000000e+04,6.999999999999999387e-05,1.199999999999999895e-04,4.000000000000000327e-05,-4.599999999999999597e-04,8.000000000000000654e-05,-1.199999999999999895e-04,0.000000000000000000e+00,4.000000000000000327e-05,5.000000000000000000e+00,2.100000000000000000e+01
6.570100000000000000e+04,6.999999999999999387e-05,1.199999999999999895e-04,4.000000000000000327e-05,-4.599999999999999597e-04,8.000000000000000654e-05,-1.199999999999999895e-04,0.000000000000000000e+00,4.000000000000000327e-05,5.000000000000000000e+00,2.100000000000000000e+01
6.570200000000000000e+04,5.000000000000000240e-05,1.600000000000000131e-04,1.300000000000000157e-04,-5.900000000000000296e-04,-3.899999999999999929e-04,-2.999999999999999737e-05,4.000000000000000327e-05,4.000000000000000327e-05,5.000000000000000000e+00,2.100000000000000000e+01
6.570300000000000000e+04,-2.000000000000000164e-05,0.000000000000000000e+00,6.999999999999999387e-05,9.000000000000000567e-05,2.799999999999999755e-04,0.000000000000000000e+00,0.000000000000000000e+00,-1.000000000000000082e-05,5.000000000000000000e+00,2.100000000000000000e+01
6.570400000000000000e+04,0.000000000000000000e+00,0.000000000000000000e+00,2.500000000000000052e-04,2.999999999999999737e-05,-1.300000000000000157e-04,2.000000000000000164e-05,1.000000000000000082e-05,-2.000000000000000164e-05,5.000000000000000000e+00,2.100000000000000000e+01
6.570500000000000000e+04,0.000000000000000000e+00,0.000000000000000000e+00,2.500000000000000052e-04,2.999999999999999737e-05,-1.300000000000000157e-04,2.000000000000000164e-05,1.000000000000000082e-05,-2.000000000000000164e-05,5.000000000000000000e+00,2.100000000000000000e+01
6.570600000000000000e+04,0.000000000000000000e+00,0.000000000000000000e+00,2.500000000000000052e-04,2.999999999999999737e-05,-1.300000000000000157e-04,2.000000000000000164e-05,1.000000000000000082e-05,-2.000000000000000164e-05,5.000000000000000000e+00,2.100000000000000000e+01
6.570700000000000000e+04,0.000000000000000000e+00,0.000000000000000000e+00,2.500000000000000052e-04,2.999999999999999737e-05,-1.300000000000000157e-04,2.000000000000000164e-05,1.000000000000000082e-05,-2.000000000000000164e-05,5.000000000000000000e+00,2.100000000000000000e+01
6.570800000000000000e+04,0.000000000000000000e+00,0.000000000000000000e+00,2.500000000000000052e-04,2.999999999999999737e-05,-1.300000000000000157e-04,2.000000000000000164e-05,1.000000000000000082e-05,-2.000000000000000164e-05,5.000000000000000000e+00,2.100000000000000000e+01
6.570900000000000000e+04,0.000000000000000000e+00,0.000000000000000000e+00,2.500000000000000052e-04,2.999999999999999737e-05,-1.300000000000000157e-04,2.000000000000000164e-05,1.000000000000000082e-05,-2.000000000000000164e-05,5.000000000000000000e+00,2.100000000000000000e+01
6.571000000000000000e+04,0.000000000000000000e+00,0.000000000000000000e+00,2.500000000000000052e-04,2.999999999999999737e-05,-1.300000000000000157e-04,2.000000000000000164e-05,1.000000000000000082e-05,-2.000000000000000164e-05,5.000000000000000000e+00,2.100000000000000000e+01
6.571100000000000000e+04,0.000000000000000000e+00,0.000000000000000000e+00,2.500000000000000052e-04,2.999999999999999737e-05,-1.300000000000000157e-04,2.000000000000000164e-05,1.000000000000000082e-05,-2.000000000000000164e-05,5.000000000000000000e+00,2.100000000000000000e+01
6.571200000000000000e+04,0.000000000000000000e+00,0.000000000000000000e+00,2.500000000000000052e-04,2.999999999999999737e-05,-1.300000000000000157e-04,2.000000000000000164e-05,1.000000000000000082e-05,-2.000000000000000164e-05,5.000000000000000000e+00,2.100000000000000000e+01
6.571300000000000000e+04,0.000000000000000000e+00,0.000000000000000000e+00,2.500000000000000052e-04,2.999999999999999737e-05,-1.300000000000000157e-04,2.000000000000000164e-05,1.000000000000000082e-05,-2.000000000000000164e-05,5.000000000000000000e+00,2.100000000000000000e+01
6.571400000000000000e+04,0.000000000000000000e+00,0.000000000000000000e+00,2.500000000000000052e-04,2.999999999999999737e-05,-1.300000000000000157e-04,2.000000000000000164e-05,1.000000000000000082e-05,-2.000000000000000164e-05,5.000000000000000000e+00,2.100000000000000000e+01
6.571500000000000000e+04,0.000000000000000000e+00,0.000000000000000000e+00,2.500000000000000052e-04,2.999999999999999737e-05,-1.300000000000000157e-04,2.000000000000000164e-05,1.000000000000000082e-05,-2.000000000000000164e-05,5.000000000000000000e+00,2.100000000000000000e+01
6.571600000000000000e+04,0.000000000000000000e+00,0.000000000000000000e+00,2.500000000000000052e-04,2.999999999999999737e-05,-1.300000000000000157e-04,2.000000000000000164e-05,1.000000000000000082e-05,-2.000000000000000164e-05,5.000000000000000000e+00,2.100000000000000000e+01
6.571700000000000000e+04,0.000000000000000000e+00,0.000000000000000000e+00,2.500000000000000052e-04,2.999999999999999737e-05,-1.300000000000000157e-04,2.000000000000000164e-05,1.000000000000000082e-05,-2.000000000000000164e-05,5.000000000000000000e+00,2.100000000000000000e+01
6.571800000000000000e+04,0.000000000000000000e+00,0.000000000000000000e+00,2.500000000000000052e-04,2.999999999999999737e-05,-1.300000000000000157e-04,2.000000000000000164e-05,1.000000000000000082e-05,-2.000000000000000164e-05,5.000000000000000000e+00,2.100000000000000000e+01
6.571900000000000000e+04,0.000000000000000000e+00,0.000000000000000000e+00,2.500000000000000052e-04,2.999999999999999737e-05,-1.300000000000000157e-04,2.000000000000000164e-05,1.000000000000000082e-05,-2.000000000000000164e-05,5.000000000000000000e+00,2.100000000000000000e+01
6.572000000000000000e+04,0.000000000000000000e+00,0.000000000000000000e+00,2.500000000000000052e-04,2.999999999999999737e-05,-1.300000000000000157e-04,2.000000000000000164e-05,1.000000000000000082e-05,-2.000000000000000164e-05,5.000000000000000000e+00,2.100000000000000000e+01
6.572100000000000000e+04,0.000000000000000000e+00,0.000000000000000000e+00,2.500000000000000052e-04,2.999999999999999737e-05,-1.300000000000000157e-04,2.000000000000000164e-05,1.000000000000000082e-05,-2.000000000000000164e-05,5.000000000000000000e+00,2.100000000000000000e+01
6.572200000000000000e+04,0.000000000000000000e+00,0.000000000000000000e+00,2.500000000000000052e-04,2.999999999999999737e-05,-1.300000000000000157e-04,2.000000000000000164e-05,1.000000000000000082e-05,-2.000000000000000164e-05,5.000000000000000000e+00,2.100000000000000000e+01
6.572300000000000000e+04,0.000000000000000000e+00,0.000000000000000000e+00,2.500000000000000052e-04,2.999999999999999737e-05,-1.300000000000000157e-04,2.000000000000000164e-05,1.000000000000000082e-05,-2.000000000000000164e-05,5.000000000000000000e+00,2.100000000000000000e+01
6.572400000000000000e+04,0.000000000000000000e+00,0.000000000000000000e+00,2.500000000000000052e-04,2.999999999999999737e-05,-1.300000000000000157e-04,2.000000000000000164e-05,1.000000000000000082e-05,-2.000000000000000164e-05,5.000000000000000000e+00,2.100000000000000000e+01
6.572500000000000000e+04,-2.999999999999999737e-05,-8.000000000000000654e-05,2.600000000000000314e-04,-7.399999999999999894e-04,-2.100000000000000087e-04,1.000000000000000082e-05,2.999999999999999737e-05,2.000000000000000164e-05,5.000000000000000000e+00,2.100000000000000000e+01
6.572600000000000000e+04,2.000000000000000164e-05,2.000000000000000164e-05,-1.300000000000000157e-04,2.799999999999999755e-04,2.999999999999999737e-04,-9.000000000000000567e-05,-2.999999999999999737e-05,1.000000000000000082e-05,5.000000000000000000e+00,2.100000000000000000e+01
6.572700000000000000e+04,-6.999999999999999387e-05,-8.000000000000000654e-05,4.000000000000000327e-05,9.599999999999999159e-04,3.099999999999999999e-04,2.999999999999999737e-05,-1.000000000000000082e-05,-4.000000000000000327e-05,5.000000000000000000e+00,2.100000000000000000e+01
6.572800000000000000e+04,-6.999999999999999387e-05,-8.000000000000000654e-05,4.000000000000000327e-05,9.599999999999999159e-04,3.099999999999999999e-04,2.999999999999999737e-05,-1.000000000000000082e-05,-4.000000000000000327e-05,5.000000000000000000e+00,2.100000000000000000e+01
6.572900000000000000e+04,-6.999999999999999387e-05,-8.000000000000000654e-05,4.000000000000000327e-05,9.599999999999999159e-04,3.099999999999999999e-04,2.999999999999999737e-05,-1.000000000000000082e-05,-4.000000000000000327e-05,5.000000000000000000e+00,2.100000000000000000e+01
6.573000000000000000e+04,-6.999999999999999387e-05,-8.000000000000000654e-05,4.000000000000000327e-05,9.599999999999999159e-04,3.099999999999999999e-04,2.999999999999999737e-05,-1.000000000000000082e-05,-4.000000000000000327e-05,5.000000000000000000e+00,2.100000000000000000e+01
6.573100000000000000e+04,-6.999999999999999387e-05,-8.000000000000000654e-05,4.000000000000000327e-05,9.599999999999999159e-04,3.099999999999999999e-04,2.999999999999999737e-05,-1.000000000000000082e-05,-4.000000000000000327e-05,5.000000000000000000e+00,2.100000000000000000e+01
6.573200000000000000e+04,-6.999999999999999387e-05,-8.000000000000000654e-05,4.000000000000000327e-05,9.599999999999999159e-04,3.099999999999999999e-04,2.999999999999999737e-05,-1.000000000000000082e-05,-4.000000000000000327e-05,5.000000000000000000e+00,2.100000000000000000e+01
6.573300000000000000e+04,-6.999999999999999387e-05,-8.000000000000000654e-05,4.000000000000000327e-05,9.599999999999999159e-04,3.099999999999999999e-04,2.999999999999999737e-05,-1.000000000000000082e-05,-4.000000000000000327e-05,5.000000000000000000e+00,2.100000000000000000e+01
6.573400000000000000e+04,-6.999999999999999387e-05,-8.000000000000000654e-05,4.000000000000000327e-05,9.599999999999999159e-04,3.099999999999999999e-04,2.999999999999999737e-05,-1.000000000000000082e-05,-4.000000000000000327e-05,5.000000000000000000e+00,2.100000000000000000e+01
6.573500000000000000e+04,-6.999999999999999387e-05,-8.000000000000000654e-05,4.000000000000000327e-05,9.599999999999999159e-04,3.099999999999999999e-04,2.999999999999999737e-05,-1.000000000000000082e-05,-4.000000000000000327e-05,5.000000000000000000e+00,2.100000000000000000e+01
6.573600000000000000e+04,-6.999999999999999387e-05,-8.000000000000000654e-05,4.000000000000000327e-05,9.599999999999999159e-04,3.099999999999999999e-04,2.999999999999999737e-05,-1.000000000000000082e-05,-4.000000000000000327e-05,5.000000000000000000e+00,2.100000000000000000e+01
6.573800000000000000e+04,-6.999999999999999387e-05,-8.000000000000000654e-05,4.000000000000000327e-05,9.599999999999999159e-04,3.099999999999999999e-04,2.999999999999999737e-05,-1.000000000000000082e-05,-4.000000000000000327e-05,5.000000000000000000e+00,2.100000000000000000e+01
6.573900000000000000e+04,-6.999999999999999387e-05,-8.000000000000000654e-05,4.000000000000000327e-05,9.599999999999999159e-04,3.099999999999999999e-04,2.999999999999999737e-05,-1.000000000000000082e-05,-4.000000000000000327e-05,5.000000000000000000e+00,2.100000000000000000e+01
6.574000000000000000e+04,-6.999999999999999387e-05,-8.000000000000000654e-05,4.000000000000000327e-05,9.599999999999999159e-04,3.099999999999999999e-04,2.999999999999999737e-05,-1.000000000000000082e-05,-4.000000000000000327e-05,5.000000000000000000e+00,2.100000000000000000e+01
6.574100000000000000e+04,-6.999999999999999387e-05,-8.000000000000000654e-05,4.000000000000000327e-05,9.599999999999999159e-04,3.099999999999999999e-04,2.999999999999999737e-05,-1.000000000000000082e-05,-4.000000000000000327e-05,5.000000000000000000e+00,2.100000000000000000e+01
6.574200000000000000e+04,-6.999999999999999387e-05,-8.000000000000000654e-05,4.000000000000000327e-05,9.599999999999999159e-04,3.099999999999999999e-04,2.999999999999999737e-05,-1.000000000000000082e-05,-4.000000000000000327e-05,5.000000000000000000e+00,2.100000000000000000e+01
6.574300000000000000e+04,-6.999999999999999387e-05,-8.000000000000000654e-05,4.000000000000000327e-05,9.599999999999999159e-04,3.099999999999999999e-04,2.999999999999999737e-05,-1.000000000000000082e-05,-4.000000000000000327e-05,5.000000000000000000e+00,2.100000000000000000e+01
6.574400000000000000e+04,-6.999999999999999387e-05,-8.000000000000000654e-05,4.000000000000000327e-05,9.599999999999999159e-04,3.099999999999999999e-04,2.999999999999999737e-05,-1.000000000000000082e-05,-4.000000000000000327e-05,5.000000000000000000e+00,2.100000000000000000e+01
6.574500000000000000e+04,-6.999999999999999387e-05,-8.000000000000000654e-05,4.000000000000000327e-05,9.599999999999999159e-04,3.099999999999999999e-04,2.999999999999999737e-05,-1.000000000000000082e-05,-4.000000000000000327e-05,5.000000000000000000e+00,2.100000000000000000e+01
6.574600000000000000e+04,-6.999999999999999387e-05,-8.000000000000000654e-05,4.000000000000000327e-05,9.599999999999999159e-04,3.099999999999999999e-04,2.999999999999999737e-05,-1.000000000000000082e-05,-4.000000000000000327e-05,5.000000000000000000e+00,2.100000000000000000e+01
6.574700000000000000e+04,2.000000000000000164e-05,-2.999999999999999737e-05,-2.200000000000000078e-04,1.800000000000000113e-04,6.999999999999999387e-05,5.000000000000000240e-05,-5.000000000000000240e-05,-2.000000000000000164e-05,5.000000000000000000e+00,2.100000000000000000e+01
6.574800000000000000e+04,0.000000000000000000e+00,2.000000000000000164e-05,5.000000000000000240e-05,-6.400000000000000524e-04,-2.399999999999999790e-04,-4.000000000000000327e-05,0.000000000000000000e+00,0.000000000000000000e+00,5.000000000000000000e+00,2.100000000000000000e+01
6.574900000000000000e+04,-4.000000000000000327e-05,-1.300000000000000157e-04,-1.300000000000000157e-04,-8.000000000000000654e-05,-1.800000000000000113e-04,-2.000000000000000164e-05,-1.000000000000000082e-05,-2.999999999999999737e-05,5.000000000000000000e+00,2.100000000000000000e+01
6.575000000000000000e+04,-4.000000000000000327e-05,-1.300000000000000157e-04,-1.300000000000000157e-04,-8.000000000000000654e-05,-1.800000000000000113e-04,-2.000000000000000164e-05,-1.000000000000000082e-05,-2.999999999999999737e-05,5.000000000000000000e+00,2.100000000000000000e+01
6.575100000000000000e+04,-4.000000000000000327e-05,-1.300000000000000157e-04,-1.300000000000000157e-04,-8.000000000000000654e-05,-1.800000000000000113e-04,-2.000000000000000164e-05,-1.000000000000000082e-05,-2.999999999999999737e-05,5.000000000000000000e+00,2.100000000000000000e+01
6.575200000000000000e+04,-4.000000000000000327e-05,-1.300000000000000157e-04,-1.300000000000000157e-04,-8.000000000000000654e-05,-1.800000000000000113e-04,-2.000000000000000164e-05,-1.000000000000000082e-05,-2.999999999999999737e-05,5.000000000000000000e+00,2.100000000000000000e+01
6.575300000000000000e+04,-4.000000000000000327e-05,-1.300000000000000157e-04,-1.300000000000000157e-04,-8.000000000000000654e-05,-1.800000000000000113e-04,-2.000000000000000164e-05,-1.000000000000000082e-05,-2.999999999999999737e-05,5.000000000000000000e+00,2.100000000000000000e+01
6.575400000000000000e+04,-4.000000000000000327e-05,-1.300000000000000157e-04,-1.300000000000000157e-04,-8.000000000000000654e-05,-1.800000000000000113e-04,-2.000000000000000164e-05,-1.000000000000000082e-05,-2.999999999999999737e-05,5.000000000000000000e+00,2.100000000000000000e+01
6.575500000000000000e+04,-4.000000000000000327e-05,-1.300000000000000157e-04,-1.300000000000000157e-04,-8.000000000000000654e-05,-1.800000000000000113e-04,-2.000000000000000164e-05,-1.000000000000000082e-05,-2.999999999999999737e-05,5.000000000000000000e+00,2.100000000000000000e+01
6.575600000000000000e+04,-4.000000000000000327e-05,-1.300000000000000157e-04,-1.300000000000000157e-04,-8.000000000000000654e-05,-1.800000000000000113e-04,-2.000000000000000164e-05,-1.000000000000000082e-05,-2.999999999999999737e-05,5.000000000000000000e+00,2.100000000000000000e+01
6.575700000000000000e+04,-4.000000000000000327e-05,-1.300000000000000157e-04,-1.300000000000000157e-04,-8.000000000000000654e-05,-1.800000000000000113e-04,-2.000000000000000164e-05,-1.000000000000000082e-05,-2.999999999999999737e-05,5.000000000000000000e+00,2.100000000000000000e+01
6.575800000000000000e+04,-4.000000000000000327e-05,-1.300000000000000157e-04,-1.300000000000000157e-04,-8.000000000000000654e-05,-1.800000000000000113e-04,-2.000000000000000164e-05,-1.000000000000000082e-05,-2.999999999999999737e-05,5.000000000000000000e+00,2.100000000000000000e+01
6.575900000000000000e+04,-4.000000000000000327e-05,-1.300000000000000157e-04,-1.300000000000000157e-04,-8.000000000000000654e-05,-1.800000000000000113e-04,-2.000000000000000164e-05,-1.000000000000000082e-05,-2.999999999999999737e-05,5.000000000000000000e+00,2.100000000000000000e+01
6.576000000000000000e+04,-4.000000000000000327e-05,-1.300000000000000157e-04,-1.300000000000000157e-04,-8.000000000000000654e-05,-1.800000000000000113e-04,-2.000000000000000164e-05,-1.000000000000000082e-05,-2.999999999999999737e-05,5.000000000000000000e+00,2.100000000000000000e+01
6.576100000000000000e+04,-4.000000000000000327e-05,-1.300000000000000157e-04,-1.300000000000000157e-04,-8.000000000000000654e-05,-1.800000000000000113e-04,-2.000000000000000164e-05,-1.000000000000000082e-05,-2.999999999999999737e-05,5.000000000000000000e+00,2.100000000000000000e+01
6.576200000000000000e+04,-1.000000000000000082e-05,-2.999999999999999737e-05,-1.300000000000000157e-04,3.299999999999999982e-04,1.399999999999999877e-04,-8.000000000000000654e-05,-2.999999999999999737e-05,-2.999999999999999737e-05,5.000000000000000000e+00,2.100000000000000000e+01
6.576300000000000000e+04,-1.000000000000000082e-05,-2.999999999999999737e-05,-1.300000000000000157e-04,3.299999999999999982e-04,1.399999999999999877e-04,-8.000000000000000654e-05,-2.999999999999999737e-05,-2.999999999999999737e-05,5.000000000000000000e+00,2.100000000000000000e+01
6.576400000000000000e+04,-1.000000000000000082e-05,-2.999999999999999737e-05,-1.300000000000000157e-04,3.299999999999999982e-04,1.399999999999999877e-04,-8.000000000000000654e-05,-2.999999999999999737e-05,-2.999999999999999737e-05,5.000000000000000000e+00,2.100000000000000000e+01
6.576500000000000000e+04,-1.000000000000000082e-05,-2.999999999999999737e-05,-1.300000000000000157e-04,3.299999999999999982e-04,1.399999999999999877e-04,-8.000000000000000654e-05,-2.999999999999999737e-05,-2.999999999999999737e-05,5.000000000000000000e+00,2.100000000000000000e+01
6.576600000000000000e+04,-1.000000000000000082e-05,-2.999999999999999737e-05,-1.300000000000000157e-04,3.299999999999999982e-04,1.399999999999999877e-04,-8.000000000000000654e-05,-2.999999999999999737e-05,-2.999999999999999737e-05,5.000000000000000000e+00,2.100000000000000000e+01
6.576700000000000000e+04,-1.000000000000000082e-05,-2.999999999999999737e-05,-1.300000000000000157e-04,3.299999999999999982e-04,1.399999999999999877e-04,-8.000000000000000654e-05,-2.999999999999999737e-05,-2.999999999999999737e-05,5.000000000000000000e+00,2.100000000000000000e+01
6.576800000000000000e+04,1.000000000000000082e-05,4.000000000000000327e-05,-8.000000000000000654e-05,4.599999999999999597e-04,1.300000000000000157e-04,-2.000000000000000164e-05,-2.000000000000000164e-05,-1.000000000000000082e-05,5.000000000000000000e+00,2.100000000000000000e+01
6.576900000000000000e+04,1.000000000000000082e-05,4.000000000000000327e-05,-8.000000000000000654e-05,4.599999999999999597e-04,1.300000000000000157e-04,-2.000000000000000164e-05,-2.000000000000000164e-05,-1.000000000000000082e-05,5.000000000000000000e+00,2.100000000000000000e+01
6.577000000000000000e+04,1.000000000000000082e-05,4.000000000000000327e-05,-8.000000000000000654e-05,4.599999999999999597e-04,1.300000000000000157e-04,-2.000000000000000164e-05,-2.000000000000000164e-05,-1.000000000000000082e-05,5.000000000000000000e+00,2.100000000000000000e+01
6.577100000000000000e+04,1.000000000000000082e-05,4.000000000000000327e-05,-8.000000000000000654e-05,4.599999999999999597e-04,1.300000000000000157e-04,-2.000000000000000164e-05,-2.000000000000000164e-05,-1.000000000000000082e-05,5.000000000000000000e+00,2.100000000000000000e+01
6.577200000000000000e+04,1.000000000000000082e-05,4.000000000000000327e-05,-8.000000000000000654e-05,4.599999999999999597e-04,1.300000000000000157e-04,-2.000000000000000164e-05,-2.000000000000000164e-05,-1.000000000000000082e-05,5.000000000000000000e+00,2.100000000000000000e+01
6.577300000000000000e+04,1.000000000000000082e-05,4.000000000000000327e-05,-8.000000000000000654e-05,4.599999999999999597e-04,1.300000000000000157e-04,-2.000000000000000164e-05,-2.000000000000000164e-05,-1.000000000000000082e-05,5.000000000000000000e+00,2.100000000000000000e+01
6.577400000000000000e+04,1.000000000000000082e-05,4.000000000000000327e-05,-8.000000000000000654e-05,4.599999999999999597e-04,1.300000000000000157e-04,-2.000000000000000164e-05,-2.000000000000000164e-05,-1.000000000000000082e-05,5.000000000000000000e+00,2.100000000000000000e+01
6.577500000000000000e+04,1.000000000000000082e-05,4.000000000000000327e-05,-8.000000000000000654e-05,4.599999999999999597e-04,1.300000000000000157e-04,-2.000000000000000164e-05,-2.000000000000000164e-05,-1.000000000000000082e-05,5.000000000000000000e+00,2.100000000000000000e+01
6.577600000000000000e+04,1.000000000000000082e-05,4.000000000000000327e-05,-8.000000000000000654e-05,4.599999999999999597e-04,1.300000000000000157e-04,-2.000000000000000164e-05,-2.000000000000000164e-05,-1.000000000000000082e-05,5.000000000000000000e+00,2.100000000000000000e+01
6.577700000000000000e+04,1.000000000000000082e-05,4.000000000000000327e-05,-8.000000000000000654e-05,4.599999999999999597e-04,1.300000000000000157e-04,-2.000000000000000164e-05,-2.000000000000000164e-05,-1.000000000000000082e-05,5.000000000000000000e+00,2.100000000000000000e+01
6.577800000000000000e+04,1.000000000000000082e-05,4.000000000000000327e-05,-8.000000000000000654e-05,4.599999999999999597e-04,1.300000000000000157e-04,-2.000000000000000164e-05,-2.000000000000000164e-05,-1.000000000000000082e-05,5.000000000000000000e+00,2.100000000000000000e+01
6.577900000000000000e+04,1.000000000000000082e-05,4.000000000000000327e-05,-8.000000000000000654e-05,4.599999999999999597e-04,1.300000000000000157e-04,-2.000000000000000164e-05,-2.000000000000000164e-05,-1.000000000000000082e-05,5.000000000000000000e+00,2.100000000000000000e+01
6.578000000000000000e+04,1.000000000000000082e-05,4.000000000000000327e-05,-8.000000000000000654e-05,4.599999999999999597e-04,1.300000000000000157e-04,-2.000000000000000164e-05,-2.000000000000000164e-05,-1.000000000000000082e-05,5.000000000000000000e+00,2.100000000000000000e+01
6.578100000000000000e+04,1.000000000000000082e-05,4.000000000000000327e-05,-8.000000000000000654e-05,4.599999999999999597e-04,1.300000000000000157e-04,-2.000000000000000164e-05,-2.000000000000000164e-05,-1.000000000000000082e-05,5.000000000000000000e+00,2.100000000000000000e+01
6.578200000000000000e+04,1.000000000000000082e-05,4.000000000000000327e-05,-8.000000000000000654e-05,4.599999999999999597e-04,1.300000000000000157e-04,-2.000000000000000164e-05,-2.000000000000000164e-05,-1.000000000000000082e-05,5.000000000000000000e+00,2.100000000000000000e+01
6.578300000000000000e+04,1.000000000000000082e-05,4.000000000000000327e-05,-8.000000000000000654e-05,4.599999999999999597e-04,1.300000000000000157e-04,-2.000000000000000164e-05,-2.000000000000000164e-05,-1.000000000000000082e-05,5.000000000000000000e+00,2.100000000000000000e+01
6.578400000000000000e+04,1.000000000000000082e-05,4.000000000000000327e-05,-8.000000000000000654e-05,4.599999999999999597e-04,1.300000000000000157e-04,-2.000000000000000164e-05,-2.000000000000000164e-05,-1.000000000000000082e-05,5.000000000000000000e+00,2.100000000000000000e+01
6.578500000000000000e+04,1.000000000000000082e-05,4.000000000000000327e-05,-8.000000000000000654e-05,4.599999999999999597e-04,1.300000000000000157e-04,-2.000000000000000164e-05,-2.000000000000000164e-05,-1.000000000000000082e-05,5.000000000000000000e+00,2.100000000000000000e+01
6.578600000000000000e+04,1.000000000000000082e-05,4.000000000000000327e-05,-8.000000000000000654e-05,4.599999999999999597e-04,1.300000000000000157e-04,-2.000000000000000164e-05,-2.000000000000000164e-05,-1.000000000000000082e-05,5.000000000000000000e+00,2.100000000000000000e+01
6.578800000000000000e+04,1.000000000000000082e-05,4.000000000000000327e-05,-8.000000000000000654e-05,4.599999999999999597e-04,1.300000000000000157e-04,-2.000000000000000164e-05,-2.000000000000000164e-05,-1.000000000000000082e-05,5.000000000000000000e+00,2.100000000000000000e+01
6.578900000000000000e+04,1.000000000000000082e-05,4.000000000000000327e-05,-8.000000000000000654e-05,4.599999999999999597e-04,1.300000000000000157e-04,-2.000000000000000164e-05,-2.000000000000000164e-05,-1.000000000000000082e-05,5.000000000000000000e+00,2.100000000000000000e+01
6.579000000000000000e+04,1.000000000000000082e-05,4.000000000000000327e-05,-8.000000000000000654e-05,4.599999999999999597e-04,1.300000000000000157e-04,-2.000000000000000164e-05,-2.000000000000000164e-05,-1.000000000000000082e-05,5.000000000000000000e+00,2.100000000000000000e+01
6.579100000000000000e+04,1.000000000000000082e-05,4.000000000000000327e-05,-8.000000000000000654e-05,4.599999999999999597e-04,1.300000000000000157e-04,-2.000000000000000164e-05,-2.000000000000000164e-05,-1.000000000000000082e-05,5.000000000000000000e+00,2.100000000000000000e+01
6.579200000000000000e+04,-1.199999999999999895e-04,-4.200000000000000174e-04,-8.499999999999999526e-04,-5.099999999999999282e-04,3.499999999999999964e-04,1.300000000000000157e-04,0.000000000000000000e+00,-4.000000000000000327e-05,5.000000000000000000e+00,2.100000000000000000e+01
6.579300000000000000e+04,-1.199999999999999895e-04,-4.200000000000000174e-04,-8.499999999999999526e-04,-5.099999999999999282e-04,3.499999999999999964e-04,1.300000000000000157e-04,0.000000000000000000e+00,-4.000000000000000327e-05,5.000000000000000000e+00,2.100000000000000000e+01
6.579400000000000000e+04,-1.300000000000000157e-04,-1.899999999999999834e-04,-3.699999999999999947e-04,-1.100000000000000039e-04,-5.000000000000000104e-04,-2.000000000000000164e-05,-9.000000000000000567e-05,-6.999999999999999387e-05,5.000000000000000000e+00,2.100000000000000000e+01
6.579500000000000000e+04,-1.300000000000000157e-04,-1.899999999999999834e-04,-3.699999999999999947e-04,-1.100000000000000039e-04,-5.000000000000000104e-04,-2.000000000000000164e-05,-9.000000000000000567e-05,-6.999999999999999387e-05,5.000000000000000000e+00,2.100000000000000000e+01
6.579600000000000000e+04,-1.300000000000000157e-04,-1.899999999999999834e-04,-3.699999999999999947e-04,-1.100000000000000039e-04,-5.000000000000000104e-04,-2.000000000000000164e-05,-9.000000000000000567e-05,-6.999999999999999387e-05,5.000000000000000000e+00,2.100000000000000000e+01
6.579700000000000000e+04,-1.300000000000000157e-04,-1.899999999999999834e-04,-3.699999999999999947e-04,-1.100000000000000039e-04,-5.000000000000000104e-04,-2.000000000000000164e-05,-9.000000000000000567e-05,-6.999999999999999387e-05,5.000000000000000000e+00,2.100000000000000000e+01
6.579800000000000000e+04,-1.300000000000000157e-04,-1.899999999999999834e-04,-3.699999999999999947e-04,-1.100000000000000039e-04,-5.000000000000000104e-04,-2.000000000000000164e-05,-9.000000000000000567e-05,-6.999999999999999387e-05,5.000000000000000000e+00,2.100000000000000000e+01
6.579900000000000000e+04,5.000000000000000240e-05,1.600000000000000131e-04,2.200000000000000078e-04,7.900000000000000121e-04,5.500000000000000331e-04,1.300000000000000157e-04,4.000000000000000327e-05,4.000000000000000327e-05,5.000000000000000000e+00,2.100000000000000000e+01
6.580000000000000000e+04,5.000000000000000240e-05,1.600000000000000131e-04,2.200000000000000078e-04,7.900000000000000121e-04,5.500000000000000331e-04,1.300000000000000157e-04,4.000000000000000327e-05,4.000000000000000327e-05,5.000000000000000000e+00,2.100000000000000000e+01
6.580100000000000000e+04,5.000000000000000240e-05,1.600000000000000131e-04,2.200000000000000078e-04,7.900000000000000121e-04,5.500000000000000331e-04,1.300000000000000157e-04,4.000000000000000327e-05,4.000000000000000327e-05,5.000000000000000000e+00,2.100000000000000000e+01
6.580200000000000000e+04,5.000000000000000240e-05,1.600000000000000131e-04,2.200000000000000078e-04,7.900000000000000121e-04,5.500000000000000331e-04,1.300000000000000157e-04,4.000000000000000327e-05,4.000000000000000327e-05,5.000000000000000000e+00,2.100000000000000000e+01
6.580300000000000000e+04,5.000000000000000240e-05,1.600000000000000131e-04,2.200000000000000078e-04,7.900000000000000121e-04,5.500000000000000331e-04,1.300000000000000157e-04,4.000000000000000327e-05,4.000000000000000327e-05,5.000000000000000000e+00,2.100000000000000000e+01
6.580400000000000000e+04,5.000000000000000240e-05,1.600000000000000131e-04,2.200000000000000078e-04,7.900000000000000121e-04,5.500000000000000331e-04,1.300000000000000157e-04,4.000000000000000327e-05,4.000000000000000327e-05,5.000000000000000000e+00,2.100000000000000000e+01
6.580500000000000000e+04,5.000000000000000240e-05,1.600000000000000131e-04,2.200000000000000078e-04,7.900000000000000121e-04,5.500000000000000331e-04,1.300000000000000157e-04,4.000000000000000327e-05,4.000000000000000327e-05,5.000000000000000000e+00,2.100000000000000000e+01
6.580600000000000000e+04,5.000000000000000240e-05,1.600000000000000131e-04,2.200000000000000078e-04,7.900000000000000121e-04,5.500000000000000331e-04,1.300000000000000157e-04,4.000000000000000327e-05,4.000000000000000327e-05,5.000000000000000000e+00,2.100000000000000000e+01
6.580700000000000000e+04,5.000000000000000240e-05,1.600000000000000131e-04,2.200000000000000078e-04,7.900000000000000121e-04,5.500000000000000331e-04,1.300000000000000157e-04,4.000000000000000327e-05,4.000000000000000327e-05,5.000000000000000000e+00,2.100000000000000000e+01
6.580800000000000000e+04,5.000000000000000240e-05,1.600000000000000131e-04,2.200000000000000078e-04,7.900000000000000121e-04,5.500000000000000331e-04,1.300000000000000157e-04,4.000000000000000327e-05,4.000000000000000327e-05,5.000000000000000000e+00,2.100000000000000000e+01
6.580900000000000000e+04,5.000000000000000240e-05,1.600000000000000131e-04,2.200000000000000078e-04,7.900000000000000121e-04,5.500000000000000331e-04,1.300000000000000157e-04,4.000000000000000327e-05,4.000000000000000327e-05,5.000000000000000000e+00,2.100000000000000000e+01
6.581000000000000000e+04,5.000000000000000240e-05,1.600000000000000131e-04,2.200000000000000078e-04,7.900000000000000121e-04,5.500000000000000331e-04,1.300000000000000157e-04,4.000000000000000327e-05,4.000000000000000327e-05,5.000000000000000000e+00,2.100000000000000000e+01
6.581100000000000000e+04,5.000000000000000240e-05,1.600000000000000131e-04,2.200000000000000078e-04,7.900000000000000121e-04,5.500000000000000331e-04,1.300000000000000157e-04,4.000000000000000327e-05,4.000000000000000327e-05,5.000000000000000000e+00,2.100000000000000000e+01
6.581200000000000000e+04,5.000000000000000240e-05,1.600000000000000131e-04,2.200000000000000078e-04,7.900000000000000121e-04,5.500000000000000331e-04,1.300000000000000157e-04,4.000000000000000327e-05,4.000000000000000327e-05,5.000000000000000000e+00,2.100000000000000000e+01
6.581300000000000000e+04,-1.000000000000000082e-05,-2.000000000000000164e-05,-2.100000000000000087e-04,1.800000000000000113e-04,5.000000000000000240e-05,-5.000000000000000240e-05,1.000000000000000082e-05,2.999999999999999737e-05,5.000000000000000000e+00,2.100000000000000000e+01
6.581400000000000000e+04,-1.000000000000000082e-05,-2.000000000000000164e-05,-2.100000000000000087e-04,1.800000000000000113e-04,5.000000000000000240e-05,-5.000000000000000240e-05,1.000000000000000082e-05,2.999999999999999737e-05,5.000000000000000000e+00,2.100000000000000000e+01
6.581500000000000000e+04,-1.000000000000000082e-05,-2.000000000000000164e-05,-2.100000000000000087e-04,1.800000000000000113e-04,5.000000000000000240e-05,-5.000000000000000240e-05,1.000000000000000082e-05,2.999999999999999737e-05,5.000000000000000000e+00,2.100000000000000000e+01
6.581600000000000000e+04,-1.000000000000000082e-05,-2.000000000000000164e-05,-2.100000000000000087e-04,1.800000000000000113e-04,5.000000000000000240e-05,-5.000000000000000240e-05,1.000000000000000082e-05,2.999999999999999737e-05,5.000000000000000000e+00,2.100000000000000000e+01
6.581700000000000000e+04,-1.000000000000000082e-05,-2.000000000000000164e-05,-2.100000000000000087e-04,1.800000000000000113e-04,5.000000000000000240e-05,-5.000000000000000240e-05,1.000000000000000082e-05,2.999999999999999737e-05,5.000000000000000000e+00,2.100000000000000000e+01
6.581800000000000000e+04,-1.000000000000000082e-05,-2.000000000000000164e-05,-2.100000000000000087e-04,1.800000000000000113e-04,5.000000000000000240e-05,-5.000000000000000240e-05,1.000000000000000082e-05,2.999999999999999737e-05,5.000000000000000000e+00,2.100000000000000000e+01
6.581900000000000000e+04,-1.000000000000000082e-05,-2.000000000000000164e-05,-2.100000000000000087e-04,1.800000000000000113e-04,5.000000000000000240e-05,-5.000000000000000240e-05,1.000000000000000082e-05,2.999999999999999737e-05,5.000000000000000000e+00,2.100000000000000000e+01
6.582000000000000000e+04,-1.000000000000000082e-05,-2.000000000000000164e-05,-2.100000000000000087e-04,1.800000000000000113e-04,5.000000000000000240e-05,-5.000000000000000240e-05,1.000000000000000082e-05,2.999999999999999737e-05,5.000000000000000000e+00,2.100000000000000000e+01
6.582100000000000000e+04,-1.000000000000000082e-05,-2.000000000000000164e-05,-2.100000000000000087e-04,1.800000000000000113e-04,5.000000000000000240e-05,-5.000000000000000240e-05,1.000000000000000082e-05,2.999999999999999737e-05,5.000000000000000000e+00,2.100000000000000000e+01
6.582200000000000000e+04,-2.999999999999999737e-05,0.000000000000000000e+00,-4.000000000000000327e-05,-5.699999999999999772e-04,-3.200000000000000262e-04,5.999999999999999474e-05,-2.000000000000000164e-05,-4.000000000000000327e-05,5.000000000000000000e+00,2.100000000000000000e+01
6.582300000000000000e+04,1.000000000000000082e-05,1.000000000000000082e-05,-1.300000000000000157e-04,7.099999999999999107e-04,3.699999999999999947e-04,2.999999999999999737e-05,2.999999999999999737e-05,0.000000000000000000e+00,5.000000000000000000e+00,2.100000000000000000e+01
6.582400000000000000e+04,2.000000000000000164e-05,6.999999999999999387e-05,1.199999999999999895e-04,-5.800000000000000034e-04,-8.000000000000000654e-05,0.000000000000000000e+00,4.000000000000000327e-05,4.000000000000000327e-05,5.000000000000000000e+00,2.100000000000000000e+01
6.582500000000000000e+04,2.000000000000000164e-05,6.999999999999999387e-05,1.199999999999999895e-04,-5.800000000000000034e-04,-8.000000000000000654e-05,0.000000000000000000e+00,4.000000000000000327e-05,4.000000000000000327e-05,5.000000000000000000e+00,2.100000000000000000e+01
6.582600000000000000e+04,2.000000000000000164e-05,6.999999999999999387e-05,1.199999999999999895e-04,-5.800000000000000034e-04,-8.000000000000000654e-05,0.000000000000000000e+00,4.000000000000000327e-05,4.000000000000000327e-05,5.000000000000000000e+00,2.100000000000000000e+01
6.582700000000000000e+04,2.000000000000000164e-05,6.999999999999999387e-05,1.199999999999999895e-04,-5.800000000000000034e-04,-8.000000000000000654e-05,0.000000000000000000e+00,4.000000000000000327e-05,4.000000000000000327e-05,5.000000000000000000e+00,2.100000000000000000e+01
6.582800000000000000e+04,2.000000000000000164e-05,6.999999999999999387e-05,1.199999999999999895e-04,-5.800000000000000034e-04,-8.000000000000000654e-05,0.000000000000000000e+00,4.000000000000000327e-05,4.000000000000000327e-05,5.000000000000000000e+00,2.100000000000000000e+01
6.582900000000000000e+04,2.000000000000000164e-05,6.999999999999999387e-05,1.199999999999999895e-04,-5.800000000000000034e-04,-8.000000000000000654e-05,0.000000000000000000e+00,4.000000000000000327e-05,4.000000000000000327e-05,5.000000000000000000e+00,2.100000000000000000e+01
6.583000000000000000e+04,2.000000000000000164e-05,6.999999999999999387e-05,1.199999999999999895e-04,-5.800000000000000034e-04,-8.000000000000000654e-05,0.000000000000000000e+00,4.000000000000000327e-05,4.000000000000000327e-05,5.000000000000000000e+00,2.100000000000000000e+01
6.583100000000000000e+04,2.000000000000000164e-05,6.999999999999999387e-05,1.199999999999999895e-04,-5.800000000000000034e-04,-8.000000000000000654e-05,0.000000000000000000e+00,4.000000000000000327e-05,4.000000000000000327e-05,5.000000000000000000e+00,2.100000000000000000e+01
6.583200000000000000e+04,2.000000000000000164e-05,6.999999999999999387e-05,1.199999999999999895e-04,-5.800000000000000034e-04,-8.000000000000000654e-05,0.000000000000000000e+00,4.000000000000000327e-05,4.000000000000000327e-05,5.000000000000000000e+00,2.100000000000000000e+01
6.583300000000000000e+04,2.000000000000000164e-05,6.999999999999999387e-05,1.199999999999999895e-04,-5.800000000000000034e-04,-8.000000000000000654e-05,0.000000000000000000e+00,4.000000000000000327e-05,4.000000000000000327e-05,5.000000000000000000e+00,2.100000000000000000e+01
6.583400000000000000e+04,2.000000000000000164e-05,6.999999999999999387e-05,1.199999999999999895e-04,-5.800000000000000034e-04,-8.000000000000000654e-05,0.000000000000000000e+00,4.000000000000000327e-05,4.000000000000000327e-05,5.000000000000000000e+00,2.100000000000000000e+01
6.583500000000000000e+04,2.000000000000000164e-05,6.999999999999999387e-05,1.199999999999999895e-04,-5.800000000000000034e-04,-8.000000000000000654e-05,0.000000000000000000e+00,4.000000000000000327e-05,4.000000000000000327e-05,5.000000000000000000e+00,2.100000000000000000e+01
6.583600000000000000e+04,2.000000000000000164e-05,6.999999999999999387e-05,1.199999999999999895e-04,-5.800000000000000034e-04,-8.000000000000000654e-05,0.000000000000000000e+00,4.000000000000000327e-05,4.000000000000000327e-05,5.000000000000000000e+00,2.100000000000000000e+01
6.583900000000000000e+04,2.000000000000000164e-05,6.999999999999999387e-05,1.199999999999999895e-04,-5.800000000000000034e-04,-8.000000000000000654e-05,0.000000000000000000e+00,4.000000000000000327e-05,4.000000000000000327e-05,5.000000000000000000e+00,2.100000000000000000e+01
6.584000000000000000e+04,2.000000000000000164e-05,6.999999999999999387e-05,1.199999999999999895e-04,-5.800000000000000034e-04,-8.000000000000000654e-05,0.000000000000000000e+00,4.000000000000000327e-05,4.000000000000000327e-05,5.000000000000000000e+00,2.100000000000000000e+01
6.584100000000000000e+04,2.000000000000000164e-05,6.999999999999999387e-05,1.199999999999999895e-04,-5.800000000000000034e-04,-8.000000000000000654e-05,0.000000000000000000e+00,4.000000000000000327e-05,4.000000000000000327e-05,5.000000000000000000e+00,2.100000000000000000e+01
6.584200000000000000e+04,2.000000000000000164e-05,6.999999999999999387e-05,1.199999999999999895e-04,-5.800000000000000034e-04,-8.000000000000000654e-05,0.000000000000000000e+00,4.000000000000000327e-05,4.000000000000000327e-05,5.000000000000000000e+00,2.100000000000000000e+01
6.584300000000000000e+04,2.000000000000000164e-05,6.999999999999999387e-05,1.199999999999999895e-04,-5.800000000000000034e-04,-8.000000000000000654e-05,0.000000000000000000e+00,4.000000000000000327e-05,4.000000000000000327e-05,5.000000000000000000e+00,2.100000000000000000e+01
6.584400000000000000e+04,2.000000000000000164e-05,6.999999999999999387e-05,1.199999999999999895e-04,-5.800000000000000034e-04,-8.000000000000000654e-05,0.000000000000000000e+00,4.000000000000000327e-05,4.000000000000000327e-05,5.000000000000000000e+00,2.100000000000000000e+01
6.584500000000000000e+04,0.000000000000000000e+00,2.999999999999999737e-05,6.999999999999999387e-05,-3.499999999999999964e-04,-4.200000000000000174e-04,8.000000000000000654e-05,1.000000000000000082e-05,-2.000000000000000164e-05,5.000000000000000000e+00,2.100000000000000000e+01
6.584600000000000000e+04,1.000000000000000082e-05,1.000000000000000082e-05,1.100000000000000039e-04,-4.200000000000000174e-04,-1.100000000000000039e-04,-5.000000000000000240e-05,-2.000000000000000164e-05,-1.000000000000000082e-05,5.000000000000000000e+00,2.100000000000000000e+01
6.584700000000000000e+04,1.000000000000000082e-05,1.000000000000000082e-05,1.100000000000000039e-04,-4.200000000000000174e-04,-1.100000000000000039e-04,-5.000000000000000240e-05,-2.000000000000000164e-05,-1.000000000000000082e-05,5.000000000000000000e+00,2.100000000000000000e+01
6.584800000000000000e+04,1.000000000000000082e-05,1.000000000000000082e-05,1.100000000000000039e-04,-4.200000000000000174e-04,-1.100000000000000039e-04,-5.000000000000000240e-05,-2.000000000000000164e-05,-1.000000000000000082e-05,5.000000000000000000e+00,2.100000000000000000e+01
6.584900000000000000e+04,1.000000000000000082e-05,1.000000000000000082e-05,1.100000000000000039e-04,-4.200000000000000174e-04,-1.100000000000000039e-04,-5.000000000000000240e-05,-2.000000000000000164e-05,-1.000000000000000082e-05,5.000000000000000000e+00,2.100000000000000000e+01
6.585000000000000000e+04,1.000000000000000082e-05,1.000000000000000082e-05,1.100000000000000039e-04,-4.200000000000000174e-04,-1.100000000000000039e-04,-5.000000000000000240e-05,-2.000000000000000164e-05,-1.000000000000000082e-05,5.000000000000000000e+00,2.100000000000000000e+01
6.585100000000000000e+04,1.000000000000000082e-05,1.000000000000000082e-05,1.100000000000000039e-04,-4.200000000000000174e-04,-1.100000000000000039e-04,-5.000000000000000240e-05,-2.000000000000000164e-05,-1.000000000000000082e-05,5.000000000000000000e+00,2.100000000000000000e+01
6.585200000000000000e+04,1.000000000000000082e-05,1.000000000000000082e-05,1.100000000000000039e-04,-4.200000000000000174e-04,-1.100000000000000039e-04,-5.000000000000000240e-05,-2.000000000000000164e-05,-1.000000000000000082e-05,5.000000000000000000e+00,2.100000000000000000e+01
6.585300000000000000e+04,1.000000000000000082e-05,1.000000000000000082e-05,1.100000000000000039e-04,-4.200000000000000174e-04,-1.100000000000000039e-04,-5.000000000000000240e-05,-2.000000000000000164e-05,-1.000000000000000082e-05,5.000000000000000000e+00,2.100000000000000000e+01
6.585400000000000000e+04,1.000000000000000082e-05,1.000000000000000082e-05,1.100000000000000039e-04,-4.200000000000000174e-04,-1.100000000000000039e-04,-5.000000000000000240e-05,-2.000000000000000164e-05,-1.000000000000000082e-05,5.000000000000000000e+00,2.100000000000000000e+01
6.585500000000000000e+04,1.000000000000000082e-05,1.000000000000000082e-05,1.100000000000000039e-04,-4.200000000000000174e-04,-1.100000000000000039e-04,-5.000000000000000240e-05,-2.000000000000000164e-05,-1.000000000000000082e-05,5.000000000000000000e+00,2.100000000000000000e+01
6.585600000000000000e+04,1.000000000000000082e-05,1.000000000000000082e-05,1.100000000000000039e-04,-4.200000000000000174e-04,-1.100000000000000039e-04,-5.000000000000000240e-05,-2.000000000000000164e-05,-1.000000000000000082e-05,5.000000000000000000e+00,2.100000000000000000e+01
6.585700000000000000e+04,1.000000000000000082e-05,1.000000000000000082e-05,1.100000000000000039e-04,-4.200000000000000174e-04,-1.100000000000000039e-04,-5.000000000000000240e-05,-2.000000000000000164e-05,-1.000000000000000082e-05,5.000000000000000000e+00,2.100000000000000000e+01
6.585800000000000000e+04,1.000000000000000082e-05,1.000000000000000082e-05,1.100000000000000039e-04,-4.200000000000000174e-04,-1.100000000000000039e-04,-5.000000000000000240e-05,-2.000000000000000164e-05,-1.000000000000000082e-05,5.000000000000000000e+00,2.100000000000000000e+01
6.585900000000000000e+04,-2.999999999999999737e-05,-1.199999999999999895e-04,-5.999999999999999474e-04,8.199999999999999824e-04,1.000000000000000048e-04,-1.100000000000000039e-04,-2.000000000000000164e-05,-2.000000000000000164e-05,5.000000000000000000e+00,2.100000000000000000e+01
6.586000000000000000e+04,-2.999999999999999737e-05,-1.199999999999999895e-04,-5.999999999999999474e-04,8.199999999999999824e-04,1.000000000000000048e-04,-1.100000000000000039e-04,-2.000000000000000164e-05,-2.000000000000000164e-05,5.000000000000000000e+00,2.100000000000000000e+01
6.586100000000000000e+04,-2.999999999999999737e-05,-1.199999999999999895e-04,-5.999999999999999474e-04,8.199999999999999824e-04,1.000000000000000048e-04,-1.100000000000000039e-04,-2.000000000000000164e-05,-2.000000000000000164e-05,5.000000000000000000e+00,2.100000000000000000e+01
6.586200000000000000e+04,-2.999999999999999737e-05,-1.199999999999999895e-04,-5.999999999999999474e-04,8.199999999999999824e-04,1.000000000000000048e-04,-1.100000000000000039e-04,-2.000000000000000164e-05,-2.000000000000000164e-05,5.000000000000000000e+00,2.100000000000000000e+01
6.586300000000000000e+04,-2.999999999999999737e-05,-1.199999999999999895e-04,-5.999999999999999474e-04,8.199999999999999824e-04,1.000000000000000048e-04,-1.100000000000000039e-04,-2.000000000000000164e-05,-2.000000000000000164e-05,5.000000000000000000e+00,2.100000000000000000e+01
6.586400000000000000e+04,-2.999999999999999737e-05,-1.199999999999999895e-04,-5.999999999999999474e-04,8.199999999999999824e-04,1.000000000000000048e-04,-1.100000000000000039e-04,-2.000000000000000164e-05,-2.000000000000000164e-05,5.000000000000000000e+00,2.100000000000000000e+01
6.586500000000000000e+04,-1.000000000000000082e-05,-2.999999999999999737e-05,-2.500000000000000052e-04,-6.599999999999999964e-04,-4.099999999999999912e-04,-1.100000000000000039e-04,-4.000000000000000327e-05,-2.000000000000000164e-05,5.000000000000000000e+00,2.100000000000000000e+01
6.586600000000000000e+04,-2.000000000000000164e-05,-1.000000000000000082e-05,1.000000000000000048e-04,4.799999999999999580e-04,4.700000000000000401e-04,2.000000000000000164e-05,0.000000000000000000e+00,1.000000000000000082e-05,5.000000000000000000e+00,2.100000000000000000e+01
6.586700000000000000e+04,-2.000000000000000164e-05,-1.000000000000000082e-05,1.000000000000000048e-04,4.799999999999999580e-04,4.700000000000000401e-04,2.000000000000000164e-05,0.000000000000000000e+00,1.000000000000000082e-05,5.000000000000000000e+00,2.100000000000000000e+01
6.586800000000000000e+04,-2.000000000000000164e-05,-1.000000000000000082e-05,1.000000000000000048e-04,4.799999999999999580e-04,4.700000000000000401e-04,2.000000000000000164e-05,0.000000000000000000e+00,1.000000000000000082e-05,5.000000000000000000e+00,2.100000000000000000e+01
6.586900000000000000e+04,-2.000000000000000164e-05,-1.000000000000000082e-05,1.000000000000000048e-04,4.799999999999999580e-04,4.700000000000000401e-04,2.000000000000000164e-05,0.000000000000000000e+00,1.000000000000000082e-05,5.000000000000000000e+00,2.100000000000000000e+01
6.587000000000000000e+04,-2.000000000000000164e-05,-1.000000000000000082e-05,1.000000000000000048e-04,4.799999999999999580e-04,4.700000000000000401e-04,2.000000000000000164e-05,0.000000000000000000e+00,1.000000000000000082e-05,5.000000000000000000e+00,2.100000000000000000e+01
6.587100000000000000e+04,-2.000000000000000164e-05,-1.000000000000000082e-05,1.000000000000000048e-04,4.799999999999999580e-04,4.700000000000000401e-04,2.000000000000000164e-05,0.000000000000000000e+00,1.000000000000000082e-05,5.000000000000000000e+00,2.100000000000000000e+01
6.587200000000000000e+04,-2.000000000000000164e-05,-1.000000000000000082e-05,1.000000000000000048e-04,4.799999999999999580e-04,4.700000000000000401e-04,2.000000000000000164e-05,0.000000000000000000e+00,1.000000000000000082e-05,5.000000000000000000e+00,2.100000000000000000e+01
6.587300000000000000e+04,-2.000000000000000164e-05,-1.000000000000000082e-05,1.000000000000000048e-04,4.799999999999999580e-04,4.700000000000000401e-04,2.000000000000000164e-05,0.000000000000000000e+00,1.000000000000000082e-05,5.000000000000000000e+00,2.100000000000000000e+01
