2.915900000000000000e+04,-1.000000000000000082e-05,-4.000000000000000327e-05,-5.000000000000000240e-05,-1.000000000000000048e-04,-5.000000000000000240e-05,-5.000000000000000240e-05,-1.000000000000000082e-05,0.000000000000000000e+00,1.000000000000000000e+00,1.300000000000000000e+01
2.916000000000000000e+04,-1.000000000000000082e-05,-4.000000000000000327e-05,-5.000000000000000240e-05,-1.000000000000000048e-04,-5.000000000000000240e-05,-5.000000000000000240e-05,-1.000000000000000082e-05,0.000000000000000000e+00,1.000000000000000000e+00,1.300000000000000000e+01
2.916100000000000000e+04,-1.000000000000000082e-05,-4.000000000000000327e-05,-5.000000000000000240e-05,-1.000000000000000048e-04,-5.000000000000000240e-05,-5.000000000000000240e-05,-1.000000000000000082e-05,0.000000000000000000e+00,1.000000000000000000e+00,1.300000000000000000e+01
2.916200000000000000e+04,-1.000000000000000082e-05,-4.000000000000000327e-05,-5.000000000000000240e-05,-1.000000000000000048e-04,-5.000000000000000240e-05,-5.000000000000000240e-05,-1.000000000000000082e-05,0.000000000000000000e+00,1.000000000000000000e+00,1.300000000000000000e+01
2.916300000000000000e+04,-1.000000000000000082e-05,-4.000000000000000327e-05,-5.000000000000000240e-05,-1.000000000000000048e-04,-5.000000000000000240e-05,-5.000000000000000240e-05,-1.000000000000000082e-05,0.000000000000000000e+00,1.000000000000000000e+00,1.300000000000000000e+01
2.916400000000000000e+04,-1.000000000000000082e-05,-4.000000000000000327e-05,-5.000000000000000240e-05,-1.000000000000000048e-04,-5.000000000000000240e-05,-5.000000000000000240e-05,-1.000000000000000082e-05,0.000000000000000000e+00,1.000000000000000000e+00,1.300000000000000000e+01
2.916500000000000000e+04,-1.000000000000000082e-05,-4.000000000000000327e-05,-5.000000000000000240e-05,-1.000000000000000048e-04,-5.000000000000000240e-05,-5.000000000000000240e-05,-1.000000000000000082e-05,0.000000000000000000e+00,1.000000000000000000e+00,1.300000000000000000e+01
2.916600000000000000e+04,0.000000000000000000e+00,0.000000000000000000e+00,0.000000000000000000e+00,-1.000000000000000082e-05,-2.999999999999999737e-05,-5.000000000000000240e-05,-2.000000000000000164e-05,-1.000000000000000082e-05,1.000000000000000000e+00,1.300000000000000000e+01
2.916700000000000000e+04,0.000000000000000000e+00,0.000000000000000000e+00,0.000000000000000000e+00,-1.000000000000000082e-05,-2.999999999999999737e-05,-5.000000000000000240e-05,-2.000000000000000164e-05,-1.000000000000000082e-05,1.000000000000000000e+00,1.300000000000000000e+01
2.916800000000000000e+04,0.000000000000000000e+00,2.000000000000000164e-05,4.000000000000000327e-05,4.000000000000000327e-05,2.000000000000000164e-05,4.000000000000000327e-05,1.000000000000000082e-05,1.000000000000000082e-05,1.000000000000000000e+00,1.300000000000000000e+01
2.916900000000000000e+04,0.000000000000000000e+00,2.000000000000000164e-05,4.000000000000000327e-05,4.000000000000000327e-05,2.000000000000000164e-05,4.000000000000000327e-05,1.000000000000000082e-05,1.000000000000000082e-05,1.000000000000000000e+00,1.300000000000000000e+01
2.917000000000000000e+04,0.000000000000000000e+00,2.000000000000000164e-05,4.000000000000000327e-05,4.000000000000000327e-05,2.000000000000000164e-05,4.000000000000000327e-05,1.000000000000000082e-05,1.000000000000000082e-05,1.000000000000000000e+00,1.300000000000000000e+01
2.917100000000000000e+04,0.000000000000000000e+00,2.000000000000000164e-05,4.000000000000000327e-05,4.000000000000000327e-05,2.000000000000000164e-05,4.000000000000000327e-05,1.000000000000000082e-05,1.000000000000000082e-05,1.000000000000000000e+00,1.300000000000000000e+01
2.917200000000000000e+04,0.000000000000000000e+00,2.000000000000000164e-05,4.000000000000000327e-05,4.000000000000000327e-05,2.000000000000000164e-05,4.000000000000000327e-05,1.000000000000000082e-05,1.000000000000000082e-05,1.000000000000000000e+00,1.300000000000000000e+01
2.917300000000000000e+04,0.000000000000000000e+00,2.000000000000000164e-05,4.000000000000000327e-05,4.000000000000000327e-05,2.000000000000000164e-05,4.000000000000000327e-05,1.000000000000000082e-05,1.000000000000000082e-05,1.000000000000000000e+00,1.300000000000000000e+01
2.917400000000000000e+04,0.000000000000000000e+00,2.000000000000000164e-05,4.000000000000000327e-05,4.000000000000000327e-05,2.000000000000000164e-05,4.000000000000000327e-05,1.000000000000000082e-05,1.000000000000000082e-05,1.000000000000000000e+00,1.300000000000000000e+01
2.917500000000000000e+04,0.000000000000000000e+00,2.000000000000000164e-05,4.000000000000000327e-05,4.000000000000000327e-05,2.000000000000000164e-05,4.000000000000000327e-05,1.000000000000000082e-05,1.000000000000000082e-05,1.000000000000000000e+00,1.300000000000000000e+01
2.917600000000000000e+04,0.000000000000000000e+00,2.000000000000000164e-05,4.000000000000000327e-05,4.000000000000000327e-05,2.000000000000000164e-05,4.000000000000000327e-05,1.000000000000000082e-05,1.000000000000000082e-05,1.000000000000000000e+00,1.300000000000000000e+01
2.917700000000000000e+04,0.000000000000000000e+00,2.000000000000000164e-05,4.000000000000000327e-05,4.000000000000000327e-05,2.000000000000000164e-05,4.000000000000000327e-05,1.000000000000000082e-05,1.000000000000000082e-05,1.000000000000000000e+00,1.300000000000000000e+01
2.917800000000000000e+04,0.000000000000000000e+00,2.000000000000000164e-05,4.000000000000000327e-05,4.000000000000000327e-05,2.000000000000000164e-05,4.000000000000000327e-05,1.000000000000000082e-05,1.000000000000000082e-05,1.000000000000000000e+00,1.300000000000000000e+01
2.917900000000000000e+04,0.000000000000000000e+00,2.000000000000000164e-05,4.000000000000000327e-05,4.000000000000000327e-05,2.000000000000000164e-05,4.000000000000000327e-05,1.000000000000000082e-05,1.000000000000000082e-05,1.000000000000000000e+00,1.300000000000000000e+01
2.918000000000000000e+04,-2.000000000000000164e-05,-2.000000000000000164e-05,1.000000000000000082e-05,2.999999999999999737e-05,-1.000000000000000082e-05,-1.000000000000000082e-05,1.000000000000000082e-05,-2.000000000000000164e-05,1.000000000000000000e+00,1.300000000000000000e+01
2.918100000000000000e+04,-2.000000000000000164e-05,-2.000000000000000164e-05,1.000000000000000082e-05,2.999999999999999737e-05,-1.000000000000000082e-05,-1.000000000000000082e-05,1.000000000000000082e-05,-2.000000000000000164e-05,1.000000000000000000e+00,1.300000000000000000e+01
2.918200000000000000e+04,-2.000000000000000164e-05,-2.000000000000000164e-05,1.000000000000000082e-05,2.999999999999999737e-05,-1.000000000000000082e-05,-1.000000000000000082e-05,1.000000000000000082e-05,-2.000000000000000164e-05,1.000000000000000000e+00,1.300000000000000000e+01
2.918300000000000000e+04,-2.000000000000000164e-05,-2.000000000000000164e-05,1.000000000000000082e-05,2.999999999999999737e-05,-1.000000000000000082e-05,-1.000000000000000082e-05,1.000000000000000082e-05,-2.000000000000000164e-05,1.000000000000000000e+00,1.300000000000000000e+01
2.918400000000000000e+04,-2.000000000000000164e-05,-2.000000000000000164e-05,1.000000000000000082e-05,2.999999999999999737e-05,-1.000000000000000082e-05,-1.000000000000000082e-05,1.000000000000000082e-05,-2.000000000000000164e-05,1.000000000000000000e+00,1.300000000000000000e+01
2.918500000000000000e+04,-2.000000000000000164e-05,-2.000000000000000164e-05,1.000000000000000082e-05,2.999999999999999737e-05,-1.000000000000000082e-05,-1.000000000000000082e-05,1.000000000000000082e-05,-2.000000000000000164e-05,1.000000000000000000e+00,1.300000000000000000e+01
2.918600000000000000e+04,-2.000000000000000164e-05,-2.000000000000000164e-05,1.000000000000000082e-05,2.999999999999999737e-05,-1.000000000000000082e-05,-1.000000000000000082e-05,1.000000000000000082e-05,-2.000000000000000164e-05,1.000000000000000000e+00,1.300000000000000000e+01
2.918800000000000000e+04,-2.000000000000000164e-05,-2.000000000000000164e-05,1.000000000000000082e-05,2.999999999999999737e-05,-1.000000000000000082e-05,-1.000000000000000082e-05,1.000000000000000082e-05,-2.000000000000000164e-05,1.000000000000000000e+00,1.300000000000000000e+01
2.918900000000000000e+04,-1.000000000000000082e-05,0.000000000000000000e+00,4.000000000000000327e-05,1.000000000000000082e-05,-1.000000000000000082e-05,-1.000000000000000082e-05,-2.000000000000000164e-05,-2.000000000000000164e-05,1.000000000000000000e+00,1.300000000000000000e+01
2.919000000000000000e+04,-1.000000000000000082e-05,0.000000000000000000e+00,4.000000000000000327e-05,1.000000000000000082e-05,-1.000000000000000082e-05,-1.000000000000000082e-05,-2.000000000000000164e-05,-2.000000000000000164e-05,1.000000000000000000e+00,1.300000000000000000e+01
2.919100000000000000e+04,-1.000000000000000082e-05,0.000000000000000000e+00,4.000000000000000327e-05,1.000000000000000082e-05,-1.000000000000000082e-05,-1.000000000000000082e-05,-2.000000000000000164e-05,-2.000000000000000164e-05,1.000000000000000000e+00,1.300000000000000000e+01
2.919200000000000000e+04,-1.000000000000000082e-05,0.000000000000000000e+00,4.000000000000000327e-05,1.000000000000000082e-05,-1.000000000000000082e-05,-1.000000000000000082e-05,-2.000000000000000164e-05,-2.000000000000000164e-05,1.000000000000000000e+00,1.300000000000000000e+01
2.919300000000000000e+04,-1.000000000000000082e-05,0.000000000000000000e+00,4.000000000000000327e-05,1.000000000000000082e-05,-1.000000000000000082e-05,-1.000000000000000082e-05,-2.000000000000000164e-05,-2.000000000000000164e-05,1.000000000000000000e+00,1.300000000000000000e+01
2.919400000000000000e+04,-1.000000000000000082e-05,0.000000000000000000e+00,4.000000000000000327e-05,1.000000000000000082e-05,-1.000000000000000082e-05,-1.000000000000000082e-05,-2.000000000000000164e-05,-2.000000000000000164e-05,1.000000000000000000e+00,1.300000000000000000e+01
2.919500000000000000e+04,-1.000000000000000082e-05,0.000000000000000000e+00,4.000000000000000327e-05,1.000000000000000082e-05,-1.000000000000000082e-05,-1.000000000000000082e-05,-2.000000000000000164e-05,-2.000000000000000164e-05,1.000000000000000000e+00,1.300000000000000000e+01
2.919600000000000000e+04,-1.000000000000000082e-05,0.000000000000000000e+00,4.000000000000000327e-05,1.000000000000000082e-05,-1.000000000000000082e-05,-1.000000000000000082e-05,-2.000000000000000164e-05,-2.000000000000000164e-05,1.000000000000000000e+00,1.300000000000000000e+01
2.919700000000000000e+04,-1.000000000000000082e-05,0.000000000000000000e+00,4.000000000000000327e-05,1.000000000000000082e-05,-1.000000000000000082e-05,-1.000000000000000082e-05,-2.000000000000000164e-05,-2.000000000000000164e-05,1.000000000000000000e+00,1.300000000000000000e+01
2.919800000000000000e+04,-1.000000000000000082e-05,0.000000000000000000e+00,4.000000000000000327e-05,1.000000000000000082e-05,-1.000000000000000082e-05,-1.000000000000000082e-05,-2.000000000000000164e-05,-2.000000000000000164e-05,1.000000000000000000e+00,1.300000000000000000e+01
2.919900000000000000e+04,-1.000000000000000082e-05,0.000000000000000000e+00,4.000000000000000327e-05,1.000000000000000082e-05,-1.000000000000000082e-05,-1.000000000000000082e-05,-2.000000000000000164e-05,-2.000000000000000164e-05,1.000000000000000000e+00,1.300000000000000000e+01
2.920000000000000000e+04,-1.000000000000000082e-05,0.000000000000000000e+00,4.000000000000000327e-05,1.000000000000000082e-05,-1.000000000000000082e-05,-1.000000000000000082e-05,-2.000000000000000164e-05,-2.000000000000000164e-05,1.000000000000000000e+00,1.300000000000000000e+01
2.920100000000000000e+04,-1.000000000000000082e-05,0.000000000000000000e+00,4.000000000000000327e-05,1.000000000000000082e-05,-1.000000000000000082e-05,-1.000000000000000082e-05,-2.000000000000000164e-05,-2.000000000000000164e-05,1.000000000000000000e+00,1.300000000000000000e+01
2.920200000000000000e+04,-1.000000000000000082e-05,0.000000000000000000e+00,4.000000000000000327e-05,1.000000000000000082e-05,-1.000000000000000082e-05,-1.000000000000000082e-05,-2.000000000000000164e-05,-2.000000000000000164e-05,1.000000000000000000e+00,1.300000000000000000e+01
2.920400000000000000e+04,0.000000000000000000e+00,2.000000000000000164e-05,2.000000000000000164e-05,2.000000000000000164e-05,0.000000000000000000e+00,-2.999999999999999737e-05,0.000000000000000000e+00,0.000000000000000000e+00,1.000000000000000000e+00,1.300000000000000000e+01
2.920500000000000000e+04,-1.000000000000000082e-05,-4.000000000000000327e-05,-9.000000000000000567e-05,-2.000000000000000164e-05,-2.000000000000000164e-05,-2.999999999999999737e-05,-1.000000000000000082e-05,0.000000000000000000e+00,1.000000000000000000e+00,1.300000000000000000e+01
2.920600000000000000e+04,-4.000000000000000327e-05,-6.999999999999999387e-05,-6.999999999999999387e-05,-2.000000000000000164e-05,-1.000000000000000082e-05,-2.999999999999999737e-05,-1.000000000000000082e-05,-2.999999999999999737e-05,1.000000000000000000e+00,1.300000000000000000e+01
2.920700000000000000e+04,-4.000000000000000327e-05,-6.999999999999999387e-05,-6.999999999999999387e-05,-2.000000000000000164e-05,-1.000000000000000082e-05,-2.999999999999999737e-05,-1.000000000000000082e-05,-2.999999999999999737e-05,1.000000000000000000e+00,1.300000000000000000e+01
2.920800000000000000e+04,-4.000000000000000327e-05,-6.999999999999999387e-05,-6.999999999999999387e-05,-2.000000000000000164e-05,-1.000000000000000082e-05,-2.999999999999999737e-05,-1.000000000000000082e-05,-2.999999999999999737e-05,1.000000000000000000e+00,1.300000000000000000e+01
2.920900000000000000e+04,-4.000000000000000327e-05,-6.999999999999999387e-05,-6.999999999999999387e-05,-2.000000000000000164e-05,-1.000000000000000082e-05,-2.999999999999999737e-05,-1.000000000000000082e-05,-2.999999999999999737e-05,1.000000000000000000e+00,1.300000000000000000e+01
2.921000000000000000e+04,-4.000000000000000327e-05,-6.999999999999999387e-05,-6.999999999999999387e-05,-2.000000000000000164e-05,-1.000000000000000082e-05,-2.999999999999999737e-05,-1.000000000000000082e-05,-2.999999999999999737e-05,1.000000000000000000e+00,1.300000000000000000e+01
2.921100000000000000e+04,-4.000000000000000327e-05,-6.999999999999999387e-05,-6.999999999999999387e-05,-2.000000000000000164e-05,-1.000000000000000082e-05,-2.999999999999999737e-05,-1.000000000000000082e-05,-2.999999999999999737e-05,1.000000000000000000e+00,1.300000000000000000e+01
2.921200000000000000e+04,-4.000000000000000327e-05,-6.999999999999999387e-05,-6.999999999999999387e-05,-2.000000000000000164e-05,-1.000000000000000082e-05,-2.999999999999999737e-05,-1.000000000000000082e-05,-2.999999999999999737e-05,1.000000000000000000e+00,1.300000000000000000e+01
2.921300000000000000e+04,-4.000000000000000327e-05,-6.999999999999999387e-05,-6.999999999999999387e-05,-2.000000000000000164e-05,-1.000000000000000082e-05,-2.999999999999999737e-05,-1.000000000000000082e-05,-2.999999999999999737e-05,1.000000000000000000e+00,1.300000000000000000e+01
2.921400000000000000e+04,-4.000000000000000327e-05,-6.999999999999999387e-05,-6.999999999999999387e-05,-2.000000000000000164e-05,-1.000000000000000082e-05,-2.999999999999999737e-05,-1.000000000000000082e-05,-2.999999999999999737e-05,1.000000000000000000e+00,1.300000000000000000e+01
2.921500000000000000e+04,-4.000000000000000327e-05,-6.999999999999999387e-05,-6.999999999999999387e-05,-2.000000000000000164e-05,-1.000000000000000082e-05,-2.999999999999999737e-05,-1.000000000000000082e-05,-2.999999999999999737e-05,1.000000000000000000e+00,1.300000000000000000e+01
2.921600000000000000e+04,-4.000000000000000327e-05,-6.999999999999999387e-05,-6.999999999999999387e-05,-2.000000000000000164e-05,-1.000000000000000082e-05,-2.999999999999999737e-05,-1.000000000000000082e-05,-2.999999999999999737e-05,1.000000000000000000e+00,1.300000000000000000e+01
2.921700000000000000e+04,-4.000000000000000327e-05,-6.999999999999999387e-05,-6.999999999999999387e-05,-2.000000000000000164e-05,-1.000000000000000082e-05,-2.999999999999999737e-05,-1.000000000000000082e-05,-2.999999999999999737e-05,1.000000000000000000e+00,1.300000000000000000e+01
2.921800000000000000e+04,-4.000000000000000327e-05,-6.999999999999999387e-05,-6.999999999999999387e-05,-2.000000000000000164e-05,-1.000000000000000082e-05,-2.999999999999999737e-05,-1.000000000000000082e-05,-2.999999999999999737e-05,1.000000000000000000e+00,1.300000000000000000e+01
2.921900000000000000e+04,-4.000000000000000327e-05,-6.999999999999999387e-05,-6.999999999999999387e-05,-2.000000000000000164e-05,-1.000000000000000082e-05,-2.999999999999999737e-05,-1.000000000000000082e-05,-2.999999999999999737e-05,1.000000000000000000e+00,1.300000000000000000e+01
2.922000000000000000e+04,-4.000000000000000327e-05,-6.999999999999999387e-05,-6.999999999999999387e-05,-2.000000000000000164e-05,-1.000000000000000082e-05,-2.999999999999999737e-05,-1.000000000000000082e-05,-2.999999999999999737e-05,1.000000000000000000e+00,1.300000000000000000e+01
2.922100000000000000e+04,-4.000000000000000327e-05,-6.999999999999999387e-05,-6.999999999999999387e-05,-2.000000000000000164e-05,-1.000000000000000082e-05,-2.999999999999999737e-05,-1.000000000000000082e-05,-2.999999999999999737e-05,1.000000000000000000e+00,1.300000000000000000e+01
2.922200000000000000e+04,-4.000000000000000327e-05,-6.999999999999999387e-05,-6.999999999999999387e-05,-2.000000000000000164e-05,-1.000000000000000082e-05,-2.999999999999999737e-05,-1.000000000000000082e-05,-2.999999999999999737e-05,1.000000000000000000e+00,1.300000000000000000e+01
2.922300000000000000e+04,-4.000000000000000327e-05,-6.999999999999999387e-05,-6.999999999999999387e-05,-2.000000000000000164e-05,-1.000000000000000082e-05,-2.999999999999999737e-05,-1.000000000000000082e-05,-2.999999999999999737e-05,1.000000000000000000e+00,1.300000000000000000e+01
2.922400000000000000e+04,-4.000000000000000327e-05,-6.999999999999999387e-05,-6.999999999999999387e-05,-2.000000000000000164e-05,-1.000000000000000082e-05,-2.999999999999999737e-05,-1.000000000000000082e-05,-2.999999999999999737e-05,1.000000000000000000e+00,1.300000000000000000e+01
2.922500000000000000e+04,-4.000000000000000327e-05,-6.999999999999999387e-05,-6.999999999999999387e-05,-2.000000000000000164e-05,-1.000000000000000082e-05,-2.999999999999999737e-05,-1.000000000000000082e-05,-2.999999999999999737e-05,1.000000000000000000e+00,1.300000000000000000e+01
2.922600000000000000e+04,-4.000000000000000327e-05,-6.999999999999999387e-05,-6.999999999999999387e-05,-2.000000000000000164e-05,-1.000000000000000082e-05,-2.999999999999999737e-05,-1.000000000000000082e-05,-2.999999999999999737e-05,1.000000000000000000e+00,1.300000000000000000e+01
2.922700000000000000e+04,1.000000000000000082e-05,0.000000000000000000e+00,-1.000000000000000082e-05,-9.000000000000000567e-05,-1.000000000000000082e-05,-4.000000000000000327e-05,-1.000000000000000082e-05,-1.000000000000000082e-05,1.000000000000000000e+00,1.300000000000000000e+01
2.922800000000000000e+04,2.999999999999999737e-05,2.000000000000000164e-05,2.999999999999999737e-05,2.000000000000000164e-05,1.000000000000000082e-05,2.000000000000000164e-05,4.000000000000000327e-05,1.000000000000000082e-05,1.000000000000000000e+00,1.300000000000000000e+01
2.922900000000000000e+04,2.999999999999999737e-05,2.000000000000000164e-05,2.999999999999999737e-05,2.000000000000000164e-05,1.000000000000000082e-05,2.000000000000000164e-05,4.000000000000000327e-05,1.000000000000000082e-05,1.000000000000000000e+00,1.300000000000000000e+01
2.923000000000000000e+04,2.999999999999999737e-05,2.000000000000000164e-05,2.999999999999999737e-05,2.000000000000000164e-05,1.000000000000000082e-05,2.000000000000000164e-05,4.000000000000000327e-05,1.000000000000000082e-05,1.000000000000000000e+00,1.300000000000000000e+01
2.923100000000000000e+04,2.999999999999999737e-05,2.000000000000000164e-05,2.999999999999999737e-05,2.000000000000000164e-05,1.000000000000000082e-05,2.000000000000000164e-05,4.000000000000000327e-05,1.000000000000000082e-05,1.000000000000000000e+00,1.300000000000000000e+01
2.923200000000000000e+04,2.999999999999999737e-05,2.000000000000000164e-05,2.999999999999999737e-05,2.000000000000000164e-05,1.000000000000000082e-05,2.000000000000000164e-05,4.000000000000000327e-05,1.000000000000000082e-05,1.000000000000000000e+00,1.300000000000000000e+01
2.923300000000000000e+04,2.999999999999999737e-05,2.000000000000000164e-05,2.999999999999999737e-05,2.000000000000000164e-05,1.000000000000000082e-05,2.000000000000000164e-05,4.000000000000000327e-05,1.000000000000000082e-05,1.000000000000000000e+00,1.300000000000000000e+01
2.923400000000000000e+04,2.999999999999999737e-05,2.000000000000000164e-05,2.999999999999999737e-05,2.000000000000000164e-05,1.000000000000000082e-05,2.000000000000000164e-05,4.000000000000000327e-05,1.000000000000000082e-05,1.000000000000000000e+00,1.300000000000000000e+01
2.923500000000000000e+04,2.999999999999999737e-05,2.000000000000000164e-05,2.999999999999999737e-05,2.000000000000000164e-05,1.000000000000000082e-05,2.000000000000000164e-05,4.000000000000000327e-05,1.000000000000000082e-05,1.000000000000000000e+00,1.300000000000000000e+01
2.923600000000000000e+04,2.999999999999999737e-05,2.000000000000000164e-05,2.999999999999999737e-05,2.000000000000000164e-05,1.000000000000000082e-05,2.000000000000000164e-05,4.000000000000000327e-05,1.000000000000000082e-05,1.000000000000000000e+00,1.300000000000000000e+01
2.923900000000000000e+04,2.999999999999999737e-05,2.000000000000000164e-05,2.999999999999999737e-05,2.000000000000000164e-05,1.000000000000000082e-05,2.000000000000000164e-05,4.000000000000000327e-05,1.000000000000000082e-05,1.000000000000000000e+00,1.300000000000000000e+01
2.924000000000000000e+04,-2.000000000000000164e-05,0.000000000000000000e+00,-1.000000000000000082e-05,-1.000000000000000082e-05,-9.000000000000000567e-05,-5.000000000000000240e-05,-2.999999999999999737e-05,0.000000000000000000e+00,1.000000000000000000e+00,1.300000000000000000e+01
2.924100000000000000e+04,-2.000000000000000164e-05,0.000000000000000000e+00,-1.000000000000000082e-05,-1.000000000000000082e-05,-9.000000000000000567e-05,-5.000000000000000240e-05,-2.999999999999999737e-05,0.000000000000000000e+00,1.000000000000000000e+00,1.300000000000000000e+01
2.924200000000000000e+04,-2.000000000000000164e-05,0.000000000000000000e+00,-1.000000000000000082e-05,-1.000000000000000082e-05,-9.000000000000000567e-05,-5.000000000000000240e-05,-2.999999999999999737e-05,0.000000000000000000e+00,1.000000000000000000e+00,1.300000000000000000e+01
2.924300000000000000e+04,-2.000000000000000164e-05,0.000000000000000000e+00,-1.000000000000000082e-05,-1.000000000000000082e-05,-9.000000000000000567e-05,-5.000000000000000240e-05,-2.999999999999999737e-05,0.000000000000000000e+00,1.000000000000000000e+00,1.300000000000000000e+01
2.924400000000000000e+04,-2.000000000000000164e-05,0.000000000000000000e+00,-1.000000000000000082e-05,-1.000000000000000082e-05,-9.000000000000000567e-05,-5.000000000000000240e-05,-2.999999999999999737e-05,0.000000000000000000e+00,1.000000000000000000e+00,1.300000000000000000e+01
2.924500000000000000e+04,-2.000000000000000164e-05,0.000000000000000000e+00,-1.000000000000000082e-05,-1.000000000000000082e-05,-9.000000000000000567e-05,-5.000000000000000240e-05,-2.999999999999999737e-05,0.000000000000000000e+00,1.000000000000000000e+00,1.300000000000000000e+01
2.924600000000000000e+04,-2.000000000000000164e-05,0.000000000000000000e+00,-1.000000000000000082e-05,-1.000000000000000082e-05,-9.000000000000000567e-05,-5.000000000000000240e-05,-2.999999999999999737e-05,0.000000000000000000e+00,1.000000000000000000e+00,1.300000000000000000e+01
2.924700000000000000e+04,-2.000000000000000164e-05,0.000000000000000000e+00,-1.000000000000000082e-05,-1.000000000000000082e-05,-9.000000000000000567e-05,-5.000000000000000240e-05,-2.999999999999999737e-05,0.000000000000000000e+00,1.000000000000000000e+00,1.300000000000000000e+01
2.924800000000000000e+04,-2.000000000000000164e-05,0.000000000000000000e+00,-1.000000000000000082e-05,-1.000000000000000082e-05,-9.000000000000000567e-05,-5.000000000000000240e-05,-2.999999999999999737e-05,0.000000000000000000e+00,1.000000000000000000e+00,1.300000000000000000e+01
2.924900000000000000e+04,2.000000000000000164e-05,0.000000000000000000e+00,2.999999999999999737e-05,5.000000000000000240e-05,4.000000000000000327e-05,-9.000000000000000567e-05,-2.000000000000000164e-05,0.000000000000000000e+00,1.000000000000000000e+00,1.300000000000000000e+01
2.925000000000000000e+04,2.000000000000000164e-05,0.000000000000000000e+00,2.999999999999999737e-05,5.000000000000000240e-05,4.000000000000000327e-05,-9.000000000000000567e-05,-2.000000000000000164e-05,0.000000000000000000e+00,1.000000000000000000e+00,1.300000000000000000e+01
2.925100000000000000e+04,2.000000000000000164e-05,0.000000000000000000e+00,2.999999999999999737e-05,5.000000000000000240e-05,4.000000000000000327e-05,-9.000000000000000567e-05,-2.000000000000000164e-05,0.000000000000000000e+00,1.000000000000000000e+00,1.300000000000000000e+01
2.925200000000000000e+04,2.000000000000000164e-05,0.000000000000000000e+00,2.999999999999999737e-05,5.000000000000000240e-05,4.000000000000000327e-05,-9.000000000000000567e-05,-2.000000000000000164e-05,0.000000000000000000e+00,1.000000000000000000e+00,1.300000000000000000e+01
2.925400000000000000e+04,2.000000000000000164e-05,0.000000000000000000e+00,2.999999999999999737e-05,5.000000000000000240e-05,4.000000000000000327e-05,-9.000000000000000567e-05,-2.000000000000000164e-05,0.000000000000000000e+00,1.000000000000000000e+00,1.300000000000000000e+01
2.925500000000000000e+04,2.000000000000000164e-05,0.000000000000000000e+00,2.999999999999999737e-05,5.000000000000000240e-05,4.000000000000000327e-05,-9.000000000000000567e-05,-2.000000000000000164e-05,0.000000000000000000e+00,1.000000000000000000e+00,1.300000000000000000e+01
2.925600000000000000e+04,2.000000000000000164e-05,0.000000000000000000e+00,2.999999999999999737e-05,5.000000000000000240e-05,4.000000000000000327e-05,-9.000000000000000567e-05,-2.000000000000000164e-05,0.000000000000000000e+00,1.000000000000000000e+00,1.300000000000000000e+01
2.925700000000000000e+04,2.000000000000000164e-05,0.000000000000000000e+00,2.999999999999999737e-05,5.000000000000000240e-05,4.000000000000000327e-05,-9.000000000000000567e-05,-2.000000000000000164e-05,0.000000000000000000e+00,1.000000000000000000e+00,1.300000000000000000e+01
2.925800000000000000e+04,2.000000000000000164e-05,0.000000000000000000e+00,2.999999999999999737e-05,5.000000000000000240e-05,4.000000000000000327e-05,-9.000000000000000567e-05,-2.000000000000000164e-05,0.000000000000000000e+00,1.000000000000000000e+00,1.300000000000000000e+01
2.925900000000000000e+04,2.000000000000000164e-05,0.000000000000000000e+00,2.999999999999999737e-05,5.000000000000000240e-05,4.000000000000000327e-05,-9.000000000000000567e-05,-2.000000000000000164e-05,0.000000000000000000e+00,1.000000000000000000e+00,1.300000000000000000e+01
2.926000000000000000e+04,2.000000000000000164e-05,0.000000000000000000e+00,2.999999999999999737e-05,5.000000000000000240e-05,4.000000000000000327e-05,-9.000000000000000567e-05,-2.000000000000000164e-05,0.000000000000000000e+00,1.000000000000000000e+00,1.300000000000000000e+01
2.926100000000000000e+04,2.000000000000000164e-05,0.000000000000000000e+00,2.999999999999999737e-05,5.000000000000000240e-05,4.000000000000000327e-05,-9.000000000000000567e-05,-2.000000000000000164e-05,0.000000000000000000e+00,1.000000000000000000e+00,1.300000000000000000e+01
2.926200000000000000e+04,2.000000000000000164e-05,0.000000000000000000e+00,2.999999999999999737e-05,5.000000000000000240e-05,4.000000000000000327e-05,-9.000000000000000567e-05,-2.000000000000000164e-05,0.000000000000000000e+00,1.000000000000000000e+00,1.300000000000000000e+01
2.926300000000000000e+04,2.000000000000000164e-05,0.000000000000000000e+00,2.999999999999999737e-05,5.000000000000000240e-05,4.000000000000000327e-05,-9.000000000000000567e-05,-2.000000000000000164e-05,0.000000000000000000e+00,1.000000000000000000e+00,1.300000000000000000e+01
2.926400000000000000e+04,-2.000000000000000164e-05,-4.000000000000000327e-05,-5.000000000000000240e-05,0.000000000000000000e+00,2.000000000000000164e-05,2.999999999999999737e-05,0.000000000000000000e+00,1.000000000000000082e-05,1.000000000000000000e+00,1.300000000000000000e+01
2.926500000000000000e+04,-2.000000000000000164e-05,0.000000000000000000e+00,-4.000000000000000327e-05,-5.000000000000000240e-05,-8.000000000000000654e-05,2.000000000000000164e-05,1.000000000000000082e-05,-1.000000000000000082e-05,1.000000000000000000e+00,1.300000000000000000e+01
2.926600000000000000e+04,0.000000000000000000e+00,0.000000000000000000e+00,1.000000000000000082e-05,-5.999999999999999474e-05,-1.300000000000000157e-04,-5.999999999999999474e-05,0.000000000000000000e+00,-1.000000000000000082e-05,1.000000000000000000e+00,1.300000000000000000e+01
2.926700000000000000e+04,0.000000000000000000e+00,0.000000000000000000e+00,1.000000000000000082e-05,-5.999999999999999474e-05,-1.300000000000000157e-04,-5.999999999999999474e-05,0.000000000000000000e+00,-1.000000000000000082e-05,1.000000000000000000e+00,1.300000000000000000e+01
2.926800000000000000e+04,0.000000000000000000e+00,0.000000000000000000e+00,1.000000000000000082e-05,-5.999999999999999474e-05,-1.300000000000000157e-04,-5.999999999999999474e-05,0.000000000000000000e+00,-1.000000000000000082e-05,1.000000000000000000e+00,1.300000000000000000e+01
2.926900000000000000e+04,0.000000000000000000e+00,0.000000000000000000e+00,1.000000000000000082e-05,-5.999999999999999474e-05,-1.300000000000000157e-04,-5.999999999999999474e-05,0.000000000000000000e+00,-1.000000000000000082e-05,1.000000000000000000e+00,1.300000000000000000e+01
2.927000000000000000e+04,0.000000000000000000e+00,0.000000000000000000e+00,1.000000000000000082e-05,-5.999999999999999474e-05,-1.300000000000000157e-04,-5.999999999999999474e-05,0.000000000000000000e+00,-1.000000000000000082e-05,1.000000000000000000e+00,1.300000000000000000e+01
2.927100000000000000e+04,0.000000000000000000e+00,0.000000000000000000e+00,1.000000000000000082e-05,-5.999999999999999474e-05,-1.300000000000000157e-04,-5.999999999999999474e-05,0.000000000000000000e+00,-1.000000000000000082e-05,1.000000000000000000e+00,1.300000000000000000e+01
2.927200000000000000e+04,0.000000000000000000e+00,0.000000000000000000e+00,1.000000000000000082e-05,-5.999999999999999474e-05,-1.300000000000000157e-04,-5.999999999999999474e-05,0.000000000000000000e+00,-1.000000000000000082e-05,1.000000000000000000e+00,1.300000000000000000e+01
2.927300000000000000e+04,0.000000000000000000e+00,0.000000000000000000e+00,1.000000000000000082e-05,-5.999999999999999474e-05,-1.300000000000000157e-04,-5.999999999999999474e-05,0.000000000000000000e+00,-1.000000000000000082e-05,1.000000000000000000e+00,1.300000000000000000e+01
2.927400000000000000e+04,0.000000000000000000e+00,0.000000000000000000e+00,1.000000000000000082e-05,-5.999999999999999474e-05,-1.300000000000000157e-04,-5.999999999999999474e-05,0.000000000000000000e+00,-1.000000000000000082e-05,1.000000000000000000e+00,1.300000000000000000e+01
2.927500000000000000e+04,0.000000000000000000e+00,0.000000000000000000e+00,1.000000000000000082e-05,-5.999999999999999474e-05,-1.300000000000000157e-04,-5.999999999999999474e-05,0.000000000000000000e+00,-1.000000000000000082e-05,1.000000000000000000e+00,1.300000000000000000e+01
2.927600000000000000e+04,0.000000000000000000e+00,0.000000000000000000e+00,1.000000000000000082e-05,-5.999999999999999474e-05,-1.300000000000000157e-04,-5.999999999999999474e-05,0.000000000000000000e+00,-1.000000000000000082e-05,1.000000000000000000e+00,1.300000000000000000e+01
2.927700000000000000e+04,0.000000000000000000e+00,0.000000000000000000e+00,1.000000000000000082e-05,-5.999999999999999474e-05,-1.300000000000000157e-04,-5.999999999999999474e-05,0.000000000000000000e+00,-1.000000000000000082e-05,1.000000000000000000e+00,1.300000000000000000e+01
2.927800000000000000e+04,0.000000000000000000e+00,0.000000000000000000e+00,1.000000000000000082e-05,-5.999999999999999474e-05,-1.300000000000000157e-04,-5.999999999999999474e-05,0.000000000000000000e+00,-1.000000000000000082e-05,1.000000000000000000e+00,1.300000000000000000e+01
2.927900000000000000e+04,0.000000000000000000e+00,0.000000000000000000e+00,1.000000000000000082e-05,-5.999999999999999474e-05,-1.300000000000000157e-04,-5.999999999999999474e-05,0.000000000000000000e+00,-1.000000000000000082e-05,1.000000000000000000e+00,1.300000000000000000e+01
2.928000000000000000e+04,0.000000000000000000e+00,0.000000000000000000e+00,1.000000000000000082e-05,-5.999999999999999474e-05,-1.300000000000000157e-04,-5.999999999999999474e-05,0.000000000000000000e+00,-1.000000000000000082e-05,1.000000000000000000e+00,1.300000000000000000e+01
2.928100000000000000e+04,0.000000000000000000e+00,0.000000000000000000e+00,1.000000000000000082e-05,-5.999999999999999474e-05,-1.300000000000000157e-04,-5.999999999999999474e-05,0.000000000000000000e+00,-1.000000000000000082e-05,1.000000000000000000e+00,1.300000000000000000e+01
2.928200000000000000e+04,0.000000000000000000e+00,0.000000000000000000e+00,1.000000000000000082e-05,-5.999999999999999474e-05,-1.300000000000000157e-04,-5.999999999999999474e-05,0.000000000000000000e+00,-1.000000000000000082e-05,1.000000000000000000e+00,1.300000000000000000e+01
2.928300000000000000e+04,0.000000000000000000e+00,0.000000000000000000e+00,1.000000000000000082e-05,-5.999999999999999474e-05,-1.300000000000000157e-04,-5.999999999999999474e-05,0.000000000000000000e+00,-1.000000000000000082e-05,1.000000000000000000e+00,1.300000000000000000e+01
2.928400000000000000e+04,0.000000000000000000e+00,0.000000000000000000e+00,1.000000000000000082e-05,-5.999999999999999474e-05,-1.300000000000000157e-04,-5.999999999999999474e-05,0.000000000000000000e+00,-1.000000000000000082e-05,1.000000000000000000e+00,1.300000000000000000e+01
2.928500000000000000e+04,0.000000000000000000e+00,0.000000000000000000e+00,1.000000000000000082e-05,-5.999999999999999474e-05,-1.300000000000000157e-04,-5.999999999999999474e-05,0.000000000000000000e+00,-1.000000000000000082e-05,1.000000000000000000e+00,1.300000000000000000e+01
2.928600000000000000e+04,0.000000000000000000e+00,0.000000000000000000e+00,1.000000000000000082e-05,-5.999999999999999474e-05,-1.300000000000000157e-04,-5.999999999999999474e-05,0.000000000000000000e+00,-1.000000000000000082e-05,1.000000000000000000e+00,1.300000000000000000e+01
2.928900000000000000e+04,-2.999999999999999737e-05,-2.000000000000000164e-05,-5.999999999999999474e-05,-1.000000000000000048e-04,-4.000000000000000327e-05,-2.999999999999999737e-05,1.000000000000000082e-05,-2.000000000000000164e-05,1.000000000000000000e+00,1.300000000000000000e+01
2.929000000000000000e+04,-2.999999999999999737e-05,-2.000000000000000164e-05,-5.999999999999999474e-05,-1.000000000000000048e-04,-4.000000000000000327e-05,-2.999999999999999737e-05,1.000000000000000082e-05,-2.000000000000000164e-05,1.000000000000000000e+00,1.300000000000000000e+01
2.929100000000000000e+04,-2.999999999999999737e-05,-2.000000000000000164e-05,-5.999999999999999474e-05,-1.000000000000000048e-04,-4.000000000000000327e-05,-2.999999999999999737e-05,1.000000000000000082e-05,-2.000000000000000164e-05,1.000000000000000000e+00,1.300000000000000000e+01
2.929200000000000000e+04,-2.999999999999999737e-05,-2.000000000000000164e-05,-5.999999999999999474e-05,-1.000000000000000048e-04,-4.000000000000000327e-05,-2.999999999999999737e-05,1.000000000000000082e-05,-2.000000000000000164e-05,1.000000000000000000e+00,1.300000000000000000e+01
2.929300000000000000e+04,-2.999999999999999737e-05,-2.000000000000000164e-05,-5.999999999999999474e-05,-1.000000000000000048e-04,-4.000000000000000327e-05,-2.999999999999999737e-05,1.000000000000000082e-05,-2.000000000000000164e-05,1.000000000000000000e+00,1.300000000000000000e+01
2.929400000000000000e+04,-2.999999999999999737e-05,-2.000000000000000164e-05,-5.999999999999999474e-05,-1.000000000000000048e-04,-4.000000000000000327e-05,-2.999999999999999737e-05,1.000000000000000082e-05,-2.000000000000000164e-05,1.000000000000000000e+00,1.300000000000000000e+01
2.929500000000000000e+04,-2.999999999999999737e-05,-2.000000000000000164e-05,-5.999999999999999474e-05,-1.000000000000000048e-04,-4.000000000000000327e-05,-2.999999999999999737e-05,1.000000000000000082e-05,-2.000000000000000164e-05,1.000000000000000000e+00,1.300000000000000000e+01
2.929600000000000000e+04,-2.999999999999999737e-05,-2.000000000000000164e-05,-5.999999999999999474e-05,-1.000000000000000048e-04,-4.000000000000000327e-05,-2.999999999999999737e-05,1.000000000000000082e-05,-2.000000000000000164e-05,1.000000000000000000e+00,1.300000000000000000e+01
2.929700000000000000e+04,-2.999999999999999737e-05,-2.000000000000000164e-05,-5.999999999999999474e-05,-1.000000000000000048e-04,-4.000000000000000327e-05,-2.999999999999999737e-05,1.000000000000000082e-05,-2.000000000000000164e-05,1.000000000000000000e+00,1.300000000000000000e+01
2.929800000000000000e+04,-2.999999999999999737e-05,-2.000000000000000164e-05,-5.999999999999999474e-05,-1.000000000000000048e-04,-4.000000000000000327e-05,-2.999999999999999737e-05,1.000000000000000082e-05,-2.000000000000000164e-05,1.000000000000000000e+00,1.300000000000000000e+01
2.929900000000000000e+04,-2.999999999999999737e-05,-2.000000000000000164e-05,-5.999999999999999474e-05,-1.000000000000000048e-04,-4.000000000000000327e-05,-2.999999999999999737e-05,1.000000000000000082e-05,-2.000000000000000164e-05,1.000000000000000000e+00,1.300000000000000000e+01
2.930000000000000000e+04,-2.999999999999999737e-05,-2.000000000000000164e-05,-2.999999999999999737e-05,-2.999999999999999737e-05,-1.000000000000000082e-05,0.000000000000000000e+00,-1.000000000000000082e-05,-2.000000000000000164e-05,1.000000000000000000e+00,1.300000000000000000e+01
2.930100000000000000e+04,-2.999999999999999737e-05,-2.000000000000000164e-05,-2.999999999999999737e-05,-2.999999999999999737e-05,-1.000000000000000082e-05,0.000000000000000000e+00,-1.000000000000000082e-05,-2.000000000000000164e-05,1.000000000000000000e+00,1.300000000000000000e+01
2.930200000000000000e+04,-2.999999999999999737e-05,-2.000000000000000164e-05,-2.999999999999999737e-05,-2.999999999999999737e-05,-1.000000000000000082e-05,0.000000000000000000e+00,-1.000000000000000082e-05,-2.000000000000000164e-05,1.000000000000000000e+00,1.300000000000000000e+01
2.930400000000000000e+04,-2.999999999999999737e-05,-2.000000000000000164e-05,-2.999999999999999737e-05,-2.999999999999999737e-05,-1.000000000000000082e-05,0.000000000000000000e+00,-1.000000000000000082e-05,-2.000000000000000164e-05,1.000000000000000000e+00,1.300000000000000000e+01
2.930500000000000000e+04,-2.999999999999999737e-05,-2.000000000000000164e-05,-2.999999999999999737e-05,-2.999999999999999737e-05,-1.000000000000000082e-05,0.000000000000000000e+00,-1.000000000000000082e-05,-2.000000000000000164e-05,1.000000000000000000e+00,1.300000000000000000e+01
2.930600000000000000e+04,-2.999999999999999737e-05,-2.000000000000000164e-05,-2.999999999999999737e-05,-2.999999999999999737e-05,-1.000000000000000082e-05,0.000000000000000000e+00,-1.000000000000000082e-05,-2.000000000000000164e-05,1.000000000000000000e+00,1.300000000000000000e+01
2.930700000000000000e+04,-2.999999999999999737e-05,-2.000000000000000164e-05,-2.999999999999999737e-05,-2.999999999999999737e-05,-1.000000000000000082e-05,0.000000000000000000e+00,-1.000000000000000082e-05,-2.000000000000000164e-05,1.000000000000000000e+00,1.300000000000000000e+01
2.930800000000000000e+04,-2.999999999999999737e-05,-2.000000000000000164e-05,-2.999999999999999737e-05,-2.999999999999999737e-05,-1.000000000000000082e-05,0.000000000000000000e+00,-1.000000000000000082e-05,-2.000000000000000164e-05,1.000000000000000000e+00,1.300000000000000000e+01
2.930900000000000000e+04,-1.000000000000000082e-05,-2.000000000000000164e-05,2.000000000000000164e-05,2.000000000000000164e-05,-2.000000000000000164e-05,-1.000000000000000082e-05,-2.999999999999999737e-05,-1.000000000000000082e-05,1.000000000000000000e+00,1.300000000000000000e+01
2.931000000000000000e+04,-1.000000000000000082e-05,-2.000000000000000164e-05,2.000000000000000164e-05,2.000000000000000164e-05,-2.000000000000000164e-05,-1.000000000000000082e-05,-2.999999999999999737e-05,-1.000000000000000082e-05,1.000000000000000000e+00,1.300000000000000000e+01
2.931100000000000000e+04,-1.000000000000000082e-05,-2.000000000000000164e-05,2.000000000000000164e-05,2.000000000000000164e-05,-2.000000000000000164e-05,-1.000000000000000082e-05,-2.999999999999999737e-05,-1.000000000000000082e-05,1.000000000000000000e+00,1.300000000000000000e+01
2.931200000000000000e+04,-1.000000000000000082e-05,-2.000000000000000164e-05,2.000000000000000164e-05,2.000000000000000164e-05,-2.000000000000000164e-05,-1.000000000000000082e-05,-2.999999999999999737e-05,-1.000000000000000082e-05,1.000000000000000000e+00,1.300000000000000000e+01
2.931300000000000000e+04,-1.000000000000000082e-05,-2.000000000000000164e-05,2.000000000000000164e-05,2.000000000000000164e-05,-2.000000000000000164e-05,-1.000000000000000082e-05,-2.999999999999999737e-05,-1.000000000000000082e-05,1.000000000000000000e+00,1.300000000000000000e+01
2.931400000000000000e+04,-1.000000000000000082e-05,-2.000000000000000164e-05,2.000000000000000164e-05,2.000000000000000164e-05,-2.000000000000000164e-05,-1.000000000000000082e-05,-2.999999999999999737e-05,-1.000000000000000082e-05,1.000000000000000000e+00,1.300000000000000000e+01
2.931500000000000000e+04,-1.000000000000000082e-05,-2.000000000000000164e-05,2.000000000000000164e-05,2.000000000000000164e-05,-2.000000000000000164e-05,-1.000000000000000082e-05,-2.999999999999999737e-05,-1.000000000000000082e-05,1.000000000000000000e+00,1.300000000000000000e+01
2.931600000000000000e+04,-1.000000000000000082e-05,-2.000000000000000164e-05,2.000000000000000164e-05,2.000000000000000164e-05,-2.000000000000000164e-05,-1.000000000000000082e-05,-2.999999999999999737e-05,-1.000000000000000082e-05,1.000000000000000000e+00,1.300000000000000000e+01
2.931700000000000000e+04,-1.000000000000000082e-05,-2.000000000000000164e-05,2.000000000000000164e-05,2.000000000000000164e-05,-2.000000000000000164e-05,-1.000000000000000082e-05,-2.999999999999999737e-05,-1.000000000000000082e-05,1.000000000000000000e+00,1.300000000000000000e+01
2.931800000000000000e+04,-1.000000000000000082e-05,-2.000000000000000164e-05,2.000000000000000164e-05,2.000000000000000164e-05,-2.000000000000000164e-05,-1.000000000000000082e-05,-2.999999999999999737e-05,-1.000000000000000082e-05,1.000000000000000000e+00,1.300000000000000000e+01
2.931900000000000000e+04,-1.000000000000000082e-05,-2.000000000000000164e-05,2.000000000000000164e-05,2.000000000000000164e-05,-2.000000000000000164e-05,-1.000000000000000082e-05,-2.999999999999999737e-05,-1.000000000000000082e-05,1.000000000000000000e+00,1.300000000000000000e+01
2.932000000000000000e+04,-1.000000000000000082e-05,-2.000000000000000164e-05,2.000000000000000164e-05,2.000000000000000164e-05,-2.000000000000000164e-05,-1.000000000000000082e-05,-2.999999999999999737e-05,-1.000000000000000082e-05,1.000000000000000000e+00,1.300000000000000000e+01
2.932100000000000000e+04,-1.000000000000000082e-05,-2.000000000000000164e-05,2.000000000000000164e-05,2.000000000000000164e-05,-2.000000000000000164e-05,-1.000000000000000082e-05,-2.999999999999999737e-05,-1.000000000000000082e-05,1.000000000000000000e+00,1.300000000000000000e+01
2.932200000000000000e+04,-1.000000000000000082e-05,-2.000000000000000164e-05,2.000000000000000164e-05,2.000000000000000164e-05,-2.000000000000000164e-05,-1.000000000000000082e-05,-2.999999999999999737e-05,-1.000000000000000082e-05,1.000000000000000000e+00,1.300000000000000000e+01
2.932300000000000000e+04,-1.000000000000000082e-05,-2.000000000000000164e-05,2.000000000000000164e-05,2.000000000000000164e-05,-2.000000000000000164e-05,-1.000000000000000082e-05,-2.999999999999999737e-05,-1.000000000000000082e-05,1.000000000000000000e+00,1.300000000000000000e+01
2.932400000000000000e+04,-2.999999999999999737e-05,0.000000000000000000e+00,-4.000000000000000327e-05,-2.000000000000000164e-05,-2.999999999999999737e-05,-2.000000000000000164e-05,-2.000000000000000164e-05,-2.999999999999999737e-05,1.000000000000000000e+00,1.300000000000000000e+01
2.932500000000000000e+04,-2.000000000000000164e-05,-1.000000000000000082e-05,0.000000000000000000e+00,1.000000000000000082e-05,-2.000000000000000164e-05,-4.000000000000000327e-05,-1.000000000000000082e-05,-1.000000000000000082e-05,1.000000000000000000e+00,1.300000000000000000e+01
2.932600000000000000e+04,-1.000000000000000082e-05,-2.000000000000000164e-05,2.000000000000000164e-05,2.999999999999999737e-05,5.000000000000000240e-05,0.000000000000000000e+00,-2.000000000000000164e-05,1.000000000000000082e-05,1.000000000000000000e+00,1.300000000000000000e+01
2.932700000000000000e+04,-1.000000000000000082e-05,-2.000000000000000164e-05,2.000000000000000164e-05,2.999999999999999737e-05,5.000000000000000240e-05,0.000000000000000000e+00,-2.000000000000000164e-05,1.000000000000000082e-05,1.000000000000000000e+00,1.300000000000000000e+01
2.932800000000000000e+04,-1.000000000000000082e-05,-2.000000000000000164e-05,2.000000000000000164e-05,2.999999999999999737e-05,5.000000000000000240e-05,0.000000000000000000e+00,-2.000000000000000164e-05,1.000000000000000082e-05,1.000000000000000000e+00,1.300000000000000000e+01
2.932900000000000000e+04,-1.000000000000000082e-05,-2.000000000000000164e-05,2.000000000000000164e-05,2.999999999999999737e-05,5.000000000000000240e-05,0.000000000000000000e+00,-2.000000000000000164e-05,1.000000000000000082e-05,1.000000000000000000e+00,1.300000000000000000e+01
2.933000000000000000e+04,-1.000000000000000082e-05,-2.000000000000000164e-05,2.000000000000000164e-05,2.999999999999999737e-05,5.000000000000000240e-05,0.000000000000000000e+00,-2.000000000000000164e-05,1.000000000000000082e-05,1.000000000000000000e+00,1.300000000000000000e+01
2.933100000000000000e+04,-1.000000000000000082e-05,-2.000000000000000164e-05,2.000000000000000164e-05,2.999999999999999737e-05,5.000000000000000240e-05,0.000000000000000000e+00,-2.000000000000000164e-05,1.000000000000000082e-05,1.000000000000000000e+00,1.300000000000000000e+01
2.933200000000000000e+04,-1.000000000000000082e-05,-2.000000000000000164e-05,2.000000000000000164e-05,2.999999999999999737e-05,5.000000000000000240e-05,0.000000000000000000e+00,-2.000000000000000164e-05,1.000000000000000082e-05,1.000000000000000000e+00,1.300000000000000000e+01
2.933300000000000000e+04,-1.000000000000000082e-05,-2.000000000000000164e-05,2.000000000000000164e-05,2.999999999999999737e-05,5.000000000000000240e-05,0.000000000000000000e+00,-2.000000000000000164e-05,1.000000000000000082e-05,1.000000000000000000e+00,1.300000000000000000e+01
2.933400000000000000e+04,-1.000000000000000082e-05,-2.000000000000000164e-05,2.000000000000000164e-05,2.999999999999999737e-05,5.000000000000000240e-05,0.000000000000000000e+00,-2.000000000000000164e-05,1.000000000000000082e-05,1.000000000000000000e+00,1.300000000000000000e+01
2.933500000000000000e+04,-1.000000000000000082e-05,-2.000000000000000164e-05,2.000000000000000164e-05,2.999999999999999737e-05,5.000000000000000240e-05,0.000000000000000000e+00,-2.000000000000000164e-05,1.000000000000000082e-05,1.000000000000000000e+00,1.300000000000000000e+01
2.933600000000000000e+04,-1.000000000000000082e-05,-2.000000000000000164e-05,2.000000000000000164e-05,2.999999999999999737e-05,5.000000000000000240e-05,0.000000000000000000e+00,-2.000000000000000164e-05,1.000000000000000082e-05,1.000000000000000000e+00,1.300000000000000000e+01
2.933800000000000000e+04,-1.000000000000000082e-05,-2.000000000000000164e-05,2.000000000000000164e-05,2.999999999999999737e-05,5.000000000000000240e-05,0.000000000000000000e+00,-2.000000000000000164e-05,1.000000000000000082e-05,1.000000000000000000e+00,1.300000000000000000e+01
2.933900000000000000e+04,-1.000000000000000082e-05,-2.000000000000000164e-05,2.000000000000000164e-05,2.999999999999999737e-05,5.000000000000000240e-05,0.000000000000000000e+00,-2.000000000000000164e-05,1.000000000000000082e-05,1.000000000000000000e+00,1.300000000000000000e+01
2.934000000000000000e+04,-1.000000000000000082e-05,-2.000000000000000164e-05,2.000000000000000164e-05,2.999999999999999737e-05,5.000000000000000240e-05,0.000000000000000000e+00,-2.000000000000000164e-05,1.000000000000000082e-05,1.000000000000000000e+00,1.300000000000000000e+01
2.934100000000000000e+04,-1.000000000000000082e-05,-2.000000000000000164e-05,2.000000000000000164e-05,2.999999999999999737e-05,5.000000000000000240e-05,0.000000000000000000e+00,-2.000000000000000164e-05,1.000000000000000082e-05,1.000000000000000000e+00,1.300000000000000000e+01
2.934200000000000000e+04,-1.000000000000000082e-05,-2.000000000000000164e-05,2.000000000000000164e-05,2.999999999999999737e-05,5.000000000000000240e-05,0.000000000000000000e+00,-2.000000000000000164e-05,1.000000000000000082e-05,1.000000000000000000e+00,1.300000000000000000e+01
2.934300000000000000e+04,-1.000000000000000082e-05,-2.000000000000000164e-05,2.000000000000000164e-05,2.999999999999999737e-05,5.000000000000000240e-05,0.000000000000000000e+00,-2.000000000000000164e-05,1.000000000000000082e-05,1.000000000000000000e+00,1.300000000000000000e+01
2.934400000000000000e+04,-1.000000000000000082e-05,-2.000000000000000164e-05,2.000000000000000164e-05,2.999999999999999737e-05,5.000000000000000240e-05,0.000000000000000000e+00,-2.000000000000000164e-05,1.000000000000000082e-05,1.000000000000000000e+00,1.300000000000000000e+01
2.934500000000000000e+04,-1.000000000000000082e-05,-2.000000000000000164e-05,2.000000000000000164e-05,2.999999999999999737e-05,5.000000000000000240e-05,0.000000000000000000e+00,-2.000000000000000164e-05,1.000000000000000082e-05,1.000000000000000000e+00,1.300000000000000000e+01
2.934600000000000000e+04,0.000000000000000000e+00,1.000000000000000082e-05,-1.000000000000000082e-05,-2.999999999999999737e-05,-2.999999999999999737e-05,-1.000000000000000082e-05,-1.000000000000000082e-05,-2.000000000000000164e-05,1.000000000000000000e+00,1.300000000000000000e+01
2.934700000000000000e+04,0.000000000000000000e+00,-1.000000000000000082e-05,1.000000000000000082e-05,4.000000000000000327e-05,1.000000000000000082e-05,2.000000000000000164e-05,1.000000000000000082e-05,0.000000000000000000e+00,1.000000000000000000e+00,1.300000000000000000e+01
2.934800000000000000e+04,-1.000000000000000082e-05,-2.999999999999999737e-05,-1.000000000000000082e-05,4.000000000000000327e-05,-1.000000000000000082e-05,1.000000000000000082e-05,-1.000000000000000082e-05,-1.000000000000000082e-05,1.000000000000000000e+00,1.300000000000000000e+01
2.934900000000000000e+04,-1.000000000000000082e-05,-2.999999999999999737e-05,-1.000000000000000082e-05,4.000000000000000327e-05,-1.000000000000000082e-05,1.000000000000000082e-05,-1.000000000000000082e-05,-1.000000000000000082e-05,1.000000000000000000e+00,1.300000000000000000e+01
2.935000000000000000e+04,-1.000000000000000082e-05,-2.999999999999999737e-05,-1.000000000000000082e-05,4.000000000000000327e-05,-1.000000000000000082e-05,1.000000000000000082e-05,-1.000000000000000082e-05,-1.000000000000000082e-05,1.000000000000000000e+00,1.300000000000000000e+01
2.935100000000000000e+04,-1.000000000000000082e-05,-2.999999999999999737e-05,-1.000000000000000082e-05,4.000000000000000327e-05,-1.000000000000000082e-05,1.000000000000000082e-05,-1.000000000000000082e-05,-1.000000000000000082e-05,1.000000000000000000e+00,1.300000000000000000e+01
2.935200000000000000e+04,-1.000000000000000082e-05,-2.999999999999999737e-05,-1.000000000000000082e-05,4.000000000000000327e-05,-1.000000000000000082e-05,1.000000000000000082e-05,-1.000000000000000082e-05,-1.000000000000000082e-05,1.000000000000000000e+00,1.300000000000000000e+01
2.935400000000000000e+04,-1.000000000000000082e-05,-2.999999999999999737e-05,-1.000000000000000082e-05,4.000000000000000327e-05,-1.000000000000000082e-05,1.000000000000000082e-05,-1.000000000000000082e-05,-1.000000000000000082e-05,1.000000000000000000e+00,1.300000000000000000e+01
2.935500000000000000e+04,-1.000000000000000082e-05,-2.999999999999999737e-05,-1.000000000000000082e-05,4.000000000000000327e-05,-1.000000000000000082e-05,1.000000000000000082e-05,-1.000000000000000082e-05,-1.000000000000000082e-05,1.000000000000000000e+00,1.300000000000000000e+01
2.935600000000000000e+04,-1.000000000000000082e-05,-2.999999999999999737e-05,-1.000000000000000082e-05,4.000000000000000327e-05,-1.000000000000000082e-05,1.000000000000000082e-05,-1.000000000000000082e-05,-1.000000000000000082e-05,1.000000000000000000e+00,1.300000000000000000e+01
2.935700000000000000e+04,-1.000000000000000082e-05,-2.999999999999999737e-05,-1.000000000000000082e-05,4.000000000000000327e-05,-1.000000000000000082e-05,1.000000000000000082e-05,-1.000000000000000082e-05,-1.000000000000000082e-05,1.000000000000000000e+00,1.300000000000000000e+01
2.935800000000000000e+04,-1.000000000000000082e-05,-2.999999999999999737e-05,-1.000000000000000082e-05,4.000000000000000327e-05,-1.000000000000000082e-05,1.000000000000000082e-05,-1.000000000000000082e-05,-1.000000000000000082e-05,1.000000000000000000e+00,1.300000000000000000e+01
2.935900000000000000e+04,-1.000000000000000082e-05,-2.999999999999999737e-05,-1.000000000000000082e-05,4.000000000000000327e-05,-1.000000000000000082e-05,1.000000000000000082e-05,-1.000000000000000082e-05,-1.000000000000000082e-05,1.000000000000000000e+00,1.300000000000000000e+01
2.936000000000000000e+04,-1.000000000000000082e-05,-2.999999999999999737e-05,-1.000000000000000082e-05,4.000000000000000327e-05,-1.000000000000000082e-05,1.000000000000000082e-05,-1.000000000000000082e-05,-1.000000000000000082e-05,1.000000000000000000e+00,1.300000000000000000e+01
2.936100000000000000e+04,0.000000000000000000e+00,2.999999999999999737e-05,2.999999999999999737e-05,0.000000000000000000e+00,5.000000000000000240e-05,-1.000000000000000082e-05,-2.000000000000000164e-05,-1.000000000000000082e-05,1.000000000000000000e+00,1.300000000000000000e+01
2.936200000000000000e+04,0.000000000000000000e+00,2.999999999999999737e-05,2.999999999999999737e-05,0.000000000000000000e+00,5.000000000000000240e-05,-1.000000000000000082e-05,-2.000000000000000164e-05,-1.000000000000000082e-05,1.000000000000000000e+00,1.300000000000000000e+01
2.936300000000000000e+04,0.000000000000000000e+00,2.999999999999999737e-05,2.999999999999999737e-05,0.000000000000000000e+00,5.000000000000000240e-05,-1.000000000000000082e-05,-2.000000000000000164e-05,-1.000000000000000082e-05,1.000000000000000000e+00,1.300000000000000000e+01
2.936400000000000000e+04,0.000000000000000000e+00,2.999999999999999737e-05,2.999999999999999737e-05,0.000000000000000000e+00,5.000000000000000240e-05,-1.000000000000000082e-05,-2.000000000000000164e-05,-1.000000000000000082e-05,1.000000000000000000e+00,1.300000000000000000e+01
2.936500000000000000e+04,0.000000000000000000e+00,2.999999999999999737e-05,2.999999999999999737e-05,0.000000000000000000e+00,5.000000000000000240e-05,-1.000000000000000082e-05,-2.000000000000000164e-05,-1.000000000000000082e-05,1.000000000000000000e+00,1.300000000000000000e+01
2.936600000000000000e+04,0.000000000000000000e+00,2.999999999999999737e-05,2.999999999999999737e-05,0.000000000000000000e+00,5.000000000000000240e-05,-1.000000000000000082e-05,-2.000000000000000164e-05,-1.000000000000000082e-05,1.000000000000000000e+00,1.300000000000000000e+01
2.936700000000000000e+04,0.000000000000000000e+00,2.999999999999999737e-05,2.999999999999999737e-05,0.000000000000000000e+00,5.000000000000000240e-05,-1.000000000000000082e-05,-2.000000000000000164e-05,-1.000000000000000082e-05,1.000000000000000000e+00,1.300000000000000000e+01
2.936800000000000000e+04,0.000000000000000000e+00,2.999999999999999737e-05,2.999999999999999737e-05,0.000000000000000000e+00,5.000000000000000240e-05,-1.000000000000000082e-05,-2.000000000000000164e-05,-1.000000000000000082e-05,1.000000000000000000e+00,1.300000000000000000e+01
2.936900000000000000e+04,-1.000000000000000082e-05,-1.000000000000000082e-05,-1.000000000000000082e-05,1.000000000000000082e-05,-8.000000000000000654e-05,-6.999999999999999387e-05,-1.000000000000000082e-05,-1.000000000000000082e-05,1.000000000000000000e+00,1.300000000000000000e+01
2.937000000000000000e+04,-1.000000000000000082e-05,-1.000000000000000082e-05,-1.000000000000000082e-05,1.000000000000000082e-05,-8.000000000000000654e-05,-6.999999999999999387e-05,-1.000000000000000082e-05,-1.000000000000000082e-05,1.000000000000000000e+00,1.300000000000000000e+01
2.937100000000000000e+04,-1.000000000000000082e-05,-1.000000000000000082e-05,-1.000000000000000082e-05,1.000000000000000082e-05,-8.000000000000000654e-05,-6.999999999999999387e-05,-1.000000000000000082e-05,-1.000000000000000082e-05,1.000000000000000000e+00,1.300000000000000000e+01
2.937200000000000000e+04,-1.000000000000000082e-05,-1.000000000000000082e-05,-1.000000000000000082e-05,1.000000000000000082e-05,-8.000000000000000654e-05,-6.999999999999999387e-05,-1.000000000000000082e-05,-1.000000000000000082e-05,1.000000000000000000e+00,1.300000000000000000e+01
2.937300000000000000e+04,-1.000000000000000082e-05,-1.000000000000000082e-05,-1.000000000000000082e-05,1.000000000000000082e-05,-8.000000000000000654e-05,-6.999999999999999387e-05,-1.000000000000000082e-05,-1.000000000000000082e-05,1.000000000000000000e+00,1.300000000000000000e+01
2.937400000000000000e+04,-1.000000000000000082e-05,-1.000000000000000082e-05,-1.000000000000000082e-05,1.000000000000000082e-05,-8.000000000000000654e-05,-6.999999999999999387e-05,-1.000000000000000082e-05,-1.000000000000000082e-05,1.000000000000000000e+00,1.300000000000000000e+01
2.937500000000000000e+04,-1.000000000000000082e-05,-1.000000000000000082e-05,-1.000000000000000082e-05,1.000000000000000082e-05,-8.000000000000000654e-05,-6.999999999999999387e-05,-1.000000000000000082e-05,-1.000000000000000082e-05,1.000000000000000000e+00,1.300000000000000000e+01
2.937600000000000000e+04,-1.000000000000000082e-05,-1.000000000000000082e-05,-1.000000000000000082e-05,1.000000000000000082e-05,-8.000000000000000654e-05,-6.999999999999999387e-05,-1.000000000000000082e-05,-1.000000000000000082e-05,1.000000000000000000e+00,1.300000000000000000e+01
2.937700000000000000e+04,-1.000000000000000082e-05,-1.000000000000000082e-05,-1.000000000000000082e-05,1.000000000000000082e-05,-8.000000000000000654e-05,-6.999999999999999387e-05,-1.000000000000000082e-05,-1.000000000000000082e-05,1.000000000000000000e+00,1.300000000000000000e+01
2.937800000000000000e+04,-1.000000000000000082e-05,-1.000000000000000082e-05,-1.000000000000000082e-05,1.000000000000000082e-05,-8.000000000000000654e-05,-6.999999999999999387e-05,-1.000000000000000082e-05,-1.000000000000000082e-05,1.000000000000000000e+00,1.300000000000000000e+01
2.937900000000000000e+04,-1.000000000000000082e-05,-1.000000000000000082e-05,-1.000000000000000082e-05,1.000000000000000082e-05,-8.000000000000000654e-05,-6.999999999999999387e-05,-1.000000000000000082e-05,-1.000000000000000082e-05,1.000000000000000000e+00,1.300000000000000000e+01
2.938000000000000000e+04,-1.000000000000000082e-05,-1.000000000000000082e-05,-1.000000000000000082e-05,1.000000000000000082e-05,-8.000000000000000654e-05,-6.999999999999999387e-05,-1.000000000000000082e-05,-1.000000000000000082e-05,1.000000000000000000e+00,1.300000000000000000e+01
2.938100000000000000e+04,-1.000000000000000082e-05,-1.000000000000000082e-05,-1.000000000000000082e-05,1.000000000000000082e-05,-8.000000000000000654e-05,-6.999999999999999387e-05,-1.000000000000000082e-05,-1.000000000000000082e-05,1.000000000000000000e+00,1.300000000000000000e+01
2.938200000000000000e+04,-1.000000000000000082e-05,-1.000000000000000082e-05,-1.000000000000000082e-05,1.000000000000000082e-05,-8.000000000000000654e-05,-6.999999999999999387e-05,-1.000000000000000082e-05,-1.000000000000000082e-05,1.000000000000000000e+00,1.300000000000000000e+01
2.938300000000000000e+04,-1.000000000000000082e-05,-1.000000000000000082e-05,-1.000000000000000082e-05,1.000000000000000082e-05,-8.000000000000000654e-05,-6.999999999999999387e-05,-1.000000000000000082e-05,-1.000000000000000082e-05,1.000000000000000000e+00,1.300000000000000000e+01
2.938400000000000000e+04,0.000000000000000000e+00,-2.999999999999999737e-05,-2.999999999999999737e-05,-2.000000000000000164e-05,5.999999999999999474e-05,4.000000000000000327e-05,-1.000000000000000082e-05,-1.000000000000000082e-05,1.000000000000000000e+00,1.300000000000000000e+01
2.938500000000000000e+04,-1.000000000000000082e-05,-2.000000000000000164e-05,-1.000000000000000082e-05,-2.000000000000000164e-05,-2.999999999999999737e-05,-2.999999999999999737e-05,-2.000000000000000164e-05,-2.000000000000000164e-05,1.000000000000000000e+00,1.300000000000000000e+01
2.938600000000000000e+04,-1.000000000000000082e-05,-2.000000000000000164e-05,-1.000000000000000082e-05,-2.000000000000000164e-05,-2.999999999999999737e-05,-2.999999999999999737e-05,-2.000000000000000164e-05,-2.000000000000000164e-05,1.000000000000000000e+00,1.300000000000000000e+01
2.938800000000000000e+04,-1.000000000000000082e-05,-2.000000000000000164e-05,-1.000000000000000082e-05,-2.000000000000000164e-05,-2.999999999999999737e-05,-2.999999999999999737e-05,-2.000000000000000164e-05,-2.000000000000000164e-05,1.000000000000000000e+00,1.300000000000000000e+01
2.938900000000000000e+04,-1.000000000000000082e-05,-2.000000000000000164e-05,-1.000000000000000082e-05,-2.000000000000000164e-05,-2.999999999999999737e-05,-2.999999999999999737e-05,-2.000000000000000164e-05,-2.000000000000000164e-05,1.000000000000000000e+00,1.300000000000000000e+01
2.939000000000000000e+04,-1.000000000000000082e-05,-2.000000000000000164e-05,-1.000000000000000082e-05,-2.000000000000000164e-05,-2.999999999999999737e-05,-2.999999999999999737e-05,-2.000000000000000164e-05,-2.000000000000000164e-05,1.000000000000000000e+00,1.300000000000000000e+01
2.939100000000000000e+04,-1.000000000000000082e-05,-2.000000000000000164e-05,-1.000000000000000082e-05,-2.000000000000000164e-05,-2.999999999999999737e-05,-2.999999999999999737e-05,-2.000000000000000164e-05,-2.000000000000000164e-05,1.000000000000000000e+00,1.300000000000000000e+01
2.939200000000000000e+04,-1.000000000000000082e-05,-2.000000000000000164e-05,-1.000000000000000082e-05,-2.000000000000000164e-05,-2.999999999999999737e-05,-2.999999999999999737e-05,-2.000000000000000164e-05,-2.000000000000000164e-05,1.000000000000000000e+00,1.300000000000000000e+01
2.939300000000000000e+04,-1.000000000000000082e-05,-2.000000000000000164e-05,-1.000000000000000082e-05,-2.000000000000000164e-05,-2.999999999999999737e-05,-2.999999999999999737e-05,-2.000000000000000164e-05,-2.000000000000000164e-05,1.000000000000000000e+00,1.300000000000000000e+01
2.939400000000000000e+04,-1.000000000000000082e-05,-2.000000000000000164e-05,-1.000000000000000082e-05,-2.000000000000000164e-05,-2.999999999999999737e-05,-2.999999999999999737e-05,-2.000000000000000164e-05,-2.000000000000000164e-05,1.000000000000000000e+00,1.300000000000000000e+01
2.939500000000000000e+04,-1.000000000000000082e-05,-2.000000000000000164e-05,-1.000000000000000082e-05,-2.000000000000000164e-05,-2.999999999999999737e-05,-2.999999999999999737e-05,-2.000000000000000164e-05,-2.000000000000000164e-05,1.000000000000000000e+00,1.300000000000000000e+01
2.939600000000000000e+04,-1.000000000000000082e-05,-2.000000000000000164e-05,-1.000000000000000082e-05,-2.000000000000000164e-05,-2.999999999999999737e-05,-2.999999999999999737e-05,-2.000000000000000164e-05,-2.000000000000000164e-05,1.000000000000000000e+00,1.300000000000000000e+01
2.939700000000000000e+04,-1.000000000000000082e-05,-2.000000000000000164e-05,-1.000000000000000082e-05,-2.000000000000000164e-05,-2.999999999999999737e-05,-2.999999999999999737e-05,-2.000000000000000164e-05,-2.000000000000000164e-05,1.000000000000000000e+00,1.300000000000000000e+01
2.939800000000000000e+04,-1.000000000000000082e-05,-2.000000000000000164e-05,-1.000000000000000082e-05,-2.000000000000000164e-05,-2.999999999999999737e-05,-2.999999999999999737e-05,-2.000000000000000164e-05,-2.000000000000000164e-05,1.000000000000000000e+00,1.300000000000000000e+01
2.939900000000000000e+04,-1.000000000000000082e-05,-2.000000000000000164e-05,-1.000000000000000082e-05,-2.000000000000000164e-05,-2.999999999999999737e-05,-2.999999999999999737e-05,-2.000000000000000164e-05,-2.000000000000000164e-05,1.000000000000000000e+00,1.300000000000000000e+01
2.940000000000000000e+04,-1.000000000000000082e-05,-2.000000000000000164e-05,-1.000000000000000082e-05,-2.000000000000000164e-05,-2.999999999999999737e-05,-2.999999999999999737e-05,-2.000000000000000164e-05,-2.000000000000000164e-05,1.000000000000000000e+00,1.300000000000000000e+01
2.940100000000000000e+04,-1.000000000000000082e-05,-2.000000000000000164e-05,-1.000000000000000082e-05,-2.000000000000000164e-05,-2.999999999999999737e-05,-2.999999999999999737e-05,-2.000000000000000164e-05,-2.000000000000000164e-05,1.000000000000000000e+00,1.300000000000000000e+01
2.940200000000000000e+04,-1.000000000000000082e-05,-2.000000000000000164e-05,-1.000000000000000082e-05,-2.000000000000000164e-05,-2.999999999999999737e-05,-2.999999999999999737e-05,-2.000000000000000164e-05,-2.000000000000000164e-05,1.000000000000000000e+00,1.300000000000000000e+01
2.940400000000000000e+04,-1.000000000000000082e-05,-2.000000000000000164e-05,-1.000000000000000082e-05,-2.000000000000000164e-05,-2.999999999999999737e-05,-2.999999999999999737e-05,-2.000000000000000164e-05,-2.000000000000000164e-05,1.000000000000000000e+00,1.300000000000000000e+01
2.940500000000000000e+04,-1.000000000000000082e-05,-2.000000000000000164e-05,-1.000000000000000082e-05,-2.000000000000000164e-05,-2.999999999999999737e-05,-2.999999999999999737e-05,-2.000000000000000164e-05,-2.000000000000000164e-05,1.000000000000000000e+00,1.300000000000000000e+01
2.940600000000000000e+04,-1.000000000000000082e-05,0.000000000000000000e+00,2.999999999999999737e-05,9.000000000000000567e-05,9.000000000000000567e-05,2.999999999999999737e-05,-1.000000000000000082e-05,0.000000000000000000e+00,1.000000000000000000e+00,1.300000000000000000e+01
2.940700000000000000e+04,-1.000000000000000082e-05,-1.000000000000000082e-05,-1.000000000000000082e-05,-8.000000000000000654e-05,0.000000000000000000e+00,-2.000000000000000164e-05,0.000000000000000000e+00,1.000000000000000082e-05,1.000000000000000000e+00,1.300000000000000000e+01
2.940800000000000000e+04,-2.000000000000000164e-05,0.000000000000000000e+00,-1.000000000000000082e-05,-5.999999999999999474e-05,-2.999999999999999737e-05,1.000000000000000082e-05,-2.000000000000000164e-05,-4.000000000000000327e-05,1.000000000000000000e+00,1.300000000000000000e+01
2.940900000000000000e+04,-2.000000000000000164e-05,0.000000000000000000e+00,-1.000000000000000082e-05,-5.999999999999999474e-05,-2.999999999999999737e-05,1.000000000000000082e-05,-2.000000000000000164e-05,-4.000000000000000327e-05,1.000000000000000000e+00,1.300000000000000000e+01
2.941000000000000000e+04,-2.000000000000000164e-05,0.000000000000000000e+00,-1.000000000000000082e-05,-5.999999999999999474e-05,-2.999999999999999737e-05,1.000000000000000082e-05,-2.000000000000000164e-05,-4.000000000000000327e-05,1.000000000000000000e+00,1.300000000000000000e+01
2.941100000000000000e+04,-2.000000000000000164e-05,0.000000000000000000e+00,-1.000000000000000082e-05,-5.999999999999999474e-05,-2.999999999999999737e-05,1.000000000000000082e-05,-2.000000000000000164e-05,-4.000000000000000327e-05,1.000000000000000000e+00,1.300000000000000000e+01
2.941200000000000000e+04,-2.000000000000000164e-05,0.000000000000000000e+00,-1.000000000000000082e-05,-5.999999999999999474e-05,-2.999999999999999737e-05,1.000000000000000082e-05,-2.000000000000000164e-05,-4.000000000000000327e-05,1.000000000000000000e+00,1.300000000000000000e+01
2.941300000000000000e+04,-2.000000000000000164e-05,0.000000000000000000e+00,-1.000000000000000082e-05,-5.999999999999999474e-05,-2.999999999999999737e-05,1.000000000000000082e-05,-2.000000000000000164e-05,-4.000000000000000327e-05,1.000000000000000000e+00,1.300000000000000000e+01
2.941400000000000000e+04,-2.000000000000000164e-05,0.000000000000000000e+00,-1.000000000000000082e-05,-5.999999999999999474e-05,-2.999999999999999737e-05,1.000000000000000082e-05,-2.000000000000000164e-05,-4.000000000000000327e-05,1.000000000000000000e+00,1.300000000000000000e+01
2.941500000000000000e+04,-2.000000000000000164e-05,0.000000000000000000e+00,-1.000000000000000082e-05,-5.999999999999999474e-05,-2.999999999999999737e-05,1.000000000000000082e-05,-2.000000000000000164e-05,-4.000000000000000327e-05,1.000000000000000000e+00,1.300000000000000000e+01
2.941600000000000000e+04,-2.000000000000000164e-05,0.000000000000000000e+00,-1.000000000000000082e-05,-5.999999999999999474e-05,-2.999999999999999737e-05,1.000000000000000082e-05,-2.000000000000000164e-05,-4.000000000000000327e-05,1.000000000000000000e+00,1.300000000000000000e+01
2.941700000000000000e+04,-2.000000000000000164e-05,0.000000000000000000e+00,-1.000000000000000082e-05,-5.999999999999999474e-05,-2.999999999999999737e-05,1.000000000000000082e-05,-2.000000000000000164e-05,-4.000000000000000327e-05,1.000000000000000000e+00,1.300000000000000000e+01
2.941800000000000000e+04,-2.000000000000000164e-05,0.000000000000000000e+00,-1.000000000000000082e-05,-5.999999999999999474e-05,-2.999999999999999737e-05,1.000000000000000082e-05,-2.000000000000000164e-05,-4.000000000000000327e-05,1.000000000000000000e+00,1.300000000000000000e+01
2.941900000000000000e+04,-2.000000000000000164e-05,0.000000000000000000e+00,-1.000000000000000082e-05,-5.999999999999999474e-05,-2.999999999999999737e-05,1.000000000000000082e-05,-2.000000000000000164e-05,-4.000000000000000327e-05,1.000000000000000000e+00,1.300000000000000000e+01
2.942000000000000000e+04,1.000000000000000082e-05,-1.000000000000000082e-05,0.000000000000000000e+00,2.999999999999999737e-05,1.000000000000000082e-05,2.000000000000000164e-05,-1.000000000000000082e-05,1.000000000000000082e-05,1.000000000000000000e+00,1.300000000000000000e+01
2.942100000000000000e+04,1.000000000000000082e-05,-1.000000000000000082e-05,0.000000000000000000e+00,2.999999999999999737e-05,1.000000000000000082e-05,2.000000000000000164e-05,-1.000000000000000082e-05,1.000000000000000082e-05,1.000000000000000000e+00,1.300000000000000000e+01
2.942200000000000000e+04,1.000000000000000082e-05,-1.000000000000000082e-05,0.000000000000000000e+00,2.999999999999999737e-05,1.000000000000000082e-05,2.000000000000000164e-05,-1.000000000000000082e-05,1.000000000000000082e-05,1.000000000000000000e+00,1.300000000000000000e+01
2.942300000000000000e+04,1.000000000000000082e-05,-1.000000000000000082e-05,0.000000000000000000e+00,2.999999999999999737e-05,1.000000000000000082e-05,2.000000000000000164e-05,-1.000000000000000082e-05,1.000000000000000082e-05,1.000000000000000000e+00,1.300000000000000000e+01
2.942400000000000000e+04,1.000000000000000082e-05,-1.000000000000000082e-05,0.000000000000000000e+00,2.999999999999999737e-05,1.000000000000000082e-05,2.000000000000000164e-05,-1.000000000000000082e-05,1.000000000000000082e-05,1.000000000000000000e+00,1.300000000000000000e+01
2.942500000000000000e+04,1.000000000000000082e-05,-1.000000000000000082e-05,0.000000000000000000e+00,2.999999999999999737e-05,1.000000000000000082e-05,2.000000000000000164e-05,-1.000000000000000082e-05,1.000000000000000082e-05,1.000000000000000000e+00,1.300000000000000000e+01
2.942600000000000000e+04,1.000000000000000082e-05,-1.000000000000000082e-05,0.000000000000000000e+00,2.999999999999999737e-05,1.000000000000000082e-05,2.000000000000000164e-05,-1.000000000000000082e-05,1.000000000000000082e-05,1.000000000000000000e+00,1.300000000000000000e+01
2.942700000000000000e+04,1.000000000000000082e-05,-1.000000000000000082e-05,0.000000000000000000e+00,2.999999999999999737e-05,1.000000000000000082e-05,2.000000000000000164e-05,-1.000000000000000082e-05,1.000000000000000082e-05,1.000000000000000000e+00,1.300000000000000000e+01
2.942800000000000000e+04,1.000000000000000082e-05,-1.000000000000000082e-05,0.000000000000000000e+00,2.999999999999999737e-05,1.000000000000000082e-05,2.000000000000000164e-05,-1.000000000000000082e-05,1.000000000000000082e-05,1.000000000000000000e+00,1.300000000000000000e+01
2.942900000000000000e+04,-2.000000000000000164e-05,-2.999999999999999737e-05,-5.000000000000000240e-05,-1.000000000000000082e-05,1.000000000000000082e-05,-1.000000000000000082e-05,-2.000000000000000164e-05,0.000000000000000000e+00,1.000000000000000000e+00,1.300000000000000000e+01
2.943000000000000000e+04,-2.000000000000000164e-05,-2.999999999999999737e-05,-5.000000000000000240e-05,-1.000000000000000082e-05,1.000000000000000082e-05,-1.000000000000000082e-05,-2.000000000000000164e-05,0.000000000000000000e+00,1.000000000000000000e+00,1.300000000000000000e+01
2.943100000000000000e+04,-2.000000000000000164e-05,-2.999999999999999737e-05,-5.000000000000000240e-05,-1.000000000000000082e-05,1.000000000000000082e-05,-1.000000000000000082e-05,-2.000000000000000164e-05,0.000000000000000000e+00,1.000000000000000000e+00,1.300000000000000000e+01
2.943200000000000000e+04,-2.000000000000000164e-05,-2.999999999999999737e-05,-5.000000000000000240e-05,-1.000000000000000082e-05,1.000000000000000082e-05,-1.000000000000000082e-05,-2.000000000000000164e-05,0.000000000000000000e+00,1.000000000000000000e+00,1.300000000000000000e+01
2.943300000000000000e+04,-2.000000000000000164e-05,-2.999999999999999737e-05,-5.000000000000000240e-05,-1.000000000000000082e-05,1.000000000000000082e-05,-1.000000000000000082e-05,-2.000000000000000164e-05,0.000000000000000000e+00,1.000000000000000000e+00,1.300000000000000000e+01
2.943400000000000000e+04,-2.000000000000000164e-05,-2.999999999999999737e-05,-5.000000000000000240e-05,-1.000000000000000082e-05,1.000000000000000082e-05,-1.000000000000000082e-05,-2.000000000000000164e-05,0.000000000000000000e+00,1.000000000000000000e+00,1.300000000000000000e+01
2.943500000000000000e+04,-2.000000000000000164e-05,-2.999999999999999737e-05,-5.000000000000000240e-05,-1.000000000000000082e-05,1.000000000000000082e-05,-1.000000000000000082e-05,-2.000000000000000164e-05,0.000000000000000000e+00,1.000000000000000000e+00,1.300000000000000000e+01
2.943600000000000000e+04,-2.000000000000000164e-05,-2.999999999999999737e-05,-5.000000000000000240e-05,-1.000000000000000082e-05,1.000000000000000082e-05,-1.000000000000000082e-05,-2.000000000000000164e-05,0.000000000000000000e+00,1.000000000000000000e+00,1.300000000000000000e+01
2.943800000000000000e+04,-2.000000000000000164e-05,-2.999999999999999737e-05,-5.000000000000000240e-05,-1.000000000000000082e-05,1.000000000000000082e-05,-1.000000000000000082e-05,-2.000000000000000164e-05,0.000000000000000000e+00,1.000000000000000000e+00,1.300000000000000000e+01
2.943900000000000000e+04,-2.000000000000000164e-05,-2.999999999999999737e-05,-5.000000000000000240e-05,-1.000000000000000082e-05,1.000000000000000082e-05,-1.000000000000000082e-05,-2.000000000000000164e-05,0.000000000000000000e+00,1.000000000000000000e+00,1.300000000000000000e+01
2.944000000000000000e+04,-2.000000000000000164e-05,-2.999999999999999737e-05,-5.000000000000000240e-05,-1.000000000000000082e-05,1.000000000000000082e-05,-1.000000000000000082e-05,-2.000000000000000164e-05,0.000000000000000000e+00,1.000000000000000000e+00,1.300000000000000000e+01
2.944100000000000000e+04,-2.000000000000000164e-05,-2.999999999999999737e-05,-5.000000000000000240e-05,-1.000000000000000082e-05,1.000000000000000082e-05,-1.000000000000000082e-05,-2.000000000000000164e-05,0.000000000000000000e+00,1.000000000000000000e+00,1.300000000000000000e+01
2.944200000000000000e+04,-2.000000000000000164e-05,-2.999999999999999737e-05,-5.000000000000000240e-05,-1.000000000000000082e-05,1.000000000000000082e-05,-1.000000000000000082e-05,-2.000000000000000164e-05,0.000000000000000000e+00,1.000000000000000000e+00,1.300000000000000000e+01
2.944300000000000000e+04,-2.000000000000000164e-05,-2.999999999999999737e-05,-5.000000000000000240e-05,-1.000000000000000082e-05,1.000000000000000082e-05,-1.000000000000000082e-05,-2.000000000000000164e-05,0.000000000000000000e+00,1.000000000000000000e+00,1.300000000000000000e+01
2.944400000000000000e+04,-2.000000000000000164e-05,-2.999999999999999737e-05,-5.000000000000000240e-05,-1.000000000000000082e-05,1.000000000000000082e-05,-1.000000000000000082e-05,-2.000000000000000164e-05,0.000000000000000000e+00,1.000000000000000000e+00,1.300000000000000000e+01
2.944500000000000000e+04,-2.000000000000000164e-05,-1.000000000000000082e-05,-2.999999999999999737e-05,-2.999999999999999737e-05,0.000000000000000000e+00,2.000000000000000164e-05,-1.000000000000000082e-05,0.000000000000000000e+00,1.000000000000000000e+00,1.300000000000000000e+01
2.944600000000000000e+04,-2.000000000000000164e-05,-1.000000000000000082e-05,-2.999999999999999737e-05,-2.999999999999999737e-05,0.000000000000000000e+00,2.000000000000000164e-05,-1.000000000000000082e-05,0.000000000000000000e+00,1.000000000000000000e+00,1.300000000000000000e+01
2.944700000000000000e+04,-2.000000000000000164e-05,-1.000000000000000082e-05,-2.999999999999999737e-05,-2.999999999999999737e-05,0.000000000000000000e+00,2.000000000000000164e-05,-1.000000000000000082e-05,0.000000000000000000e+00,1.000000000000000000e+00,1.300000000000000000e+01
2.944800000000000000e+04,-2.000000000000000164e-05,-1.000000000000000082e-05,-2.999999999999999737e-05,-2.999999999999999737e-05,0.000000000000000000e+00,2.000000000000000164e-05,-1.000000000000000082e-05,0.000000000000000000e+00,1.000000000000000000e+00,1.300000000000000000e+01
2.944900000000000000e+04,-2.000000000000000164e-05,-1.000000000000000082e-05,-2.999999999999999737e-05,-2.999999999999999737e-05,0.000000000000000000e+00,2.000000000000000164e-05,-1.000000000000000082e-05,0.000000000000000000e+00,1.000000000000000000e+00,1.300000000000000000e+01
2.945000000000000000e+04,-2.000000000000000164e-05,-1.000000000000000082e-05,-2.999999999999999737e-05,-2.999999999999999737e-05,0.000000000000000000e+00,2.000000000000000164e-05,-1.000000000000000082e-05,0.000000000000000000e+00,1.000000000000000000e+00,1.300000000000000000e+01
2.945100000000000000e+04,-2.000000000000000164e-05,-1.000000000000000082e-05,-2.999999999999999737e-05,-2.999999999999999737e-05,0.000000000000000000e+00,2.000000000000000164e-05,-1.000000000000000082e-05,0.000000000000000000e+00,1.000000000000000000e+00,1.300000000000000000e+01
2.945200000000000000e+04,-2.000000000000000164e-05,-1.000000000000000082e-05,-2.999999999999999737e-05,-2.999999999999999737e-05,0.000000000000000000e+00,2.000000000000000164e-05,-1.000000000000000082e-05,0.000000000000000000e+00,1.000000000000000000e+00,1.300000000000000000e+01
2.945400000000000000e+04,-2.000000000000000164e-05,-1.000000000000000082e-05,-2.999999999999999737e-05,-2.999999999999999737e-05,0.000000000000000000e+00,2.000000000000000164e-05,-1.000000000000000082e-05,0.000000000000000000e+00,1.000000000000000000e+00,1.300000000000000000e+01
2.945500000000000000e+04,-2.000000000000000164e-05,-1.000000000000000082e-05,-2.999999999999999737e-05,-2.999999999999999737e-05,0.000000000000000000e+00,2.000000000000000164e-05,-1.000000000000000082e-05,0.000000000000000000e+00,1.000000000000000000e+00,1.300000000000000000e+01
2.945600000000000000e+04,-2.000000000000000164e-05,-1.000000000000000082e-05,-2.999999999999999737e-05,-2.999999999999999737e-05,0.000000000000000000e+00,2.000000000000000164e-05,-1.000000000000000082e-05,0.000000000000000000e+00,1.000000000000000000e+00,1.300000000000000000e+01
2.945700000000000000e+04,-2.000000000000000164e-05,-1.000000000000000082e-05,-2.999999999999999737e-05,-2.999999999999999737e-05,0.000000000000000000e+00,2.000000000000000164e-05,-1.000000000000000082e-05,0.000000000000000000e+00,1.000000000000000000e+00,1.300000000000000000e+01
2.945800000000000000e+04,-2.000000000000000164e-05,-1.000000000000000082e-05,-2.999999999999999737e-05,-2.999999999999999737e-05,0.000000000000000000e+00,2.000000000000000164e-05,-1.000000000000000082e-05,0.000000000000000000e+00,1.000000000000000000e+00,1.300000000000000000e+01
2.945900000000000000e+04,-2.000000000000000164e-05,-1.000000000000000082e-05,-2.999999999999999737e-05,-2.999999999999999737e-05,0.000000000000000000e+00,2.000000000000000164e-05,-1.000000000000000082e-05,0.000000000000000000e+00,1.000000000000000000e+00,1.300000000000000000e+01
2.946000000000000000e+04,-2.000000000000000164e-05,-1.000000000000000082e-05,-2.999999999999999737e-05,-2.999999999999999737e-05,0.000000000000000000e+00,2.000000000000000164e-05,-1.000000000000000082e-05,0.000000000000000000e+00,1.000000000000000000e+00,1.300000000000000000e+01
2.946100000000000000e+04,-2.000000000000000164e-05,-1.000000000000000082e-05,-2.999999999999999737e-05,-2.999999999999999737e-05,0.000000000000000000e+00,2.000000000000000164e-05,-1.000000000000000082e-05,0.000000000000000000e+00,1.000000000000000000e+00,1.300000000000000000e+01
2.946200000000000000e+04,-2.000000000000000164e-05,-1.000000000000000082e-05,-2.999999999999999737e-05,-2.999999999999999737e-05,0.000000000000000000e+00,2.000000000000000164e-05,-1.000000000000000082e-05,0.000000000000000000e+00,1.000000000000000000e+00,1.300000000000000000e+01
2.946300000000000000e+04,-2.000000000000000164e-05,-1.000000000000000082e-05,-2.999999999999999737e-05,-2.999999999999999737e-05,0.000000000000000000e+00,2.000000000000000164e-05,-1.000000000000000082e-05,0.000000000000000000e+00,1.000000000000000000e+00,1.300000000000000000e+01
2.946400000000000000e+04,-2.000000000000000164e-05,-1.000000000000000082e-05,-2.999999999999999737e-05,-2.999999999999999737e-05,0.000000000000000000e+00,2.000000000000000164e-05,-1.000000000000000082e-05,0.000000000000000000e+00,1.000000000000000000e+00,1.300000000000000000e+01
2.946500000000000000e+04,-2.000000000000000164e-05,-1.000000000000000082e-05,-2.999999999999999737e-05,-2.999999999999999737e-05,0.000000000000000000e+00,2.000000000000000164e-05,-1.000000000000000082e-05,0.000000000000000000e+00,1.000000000000000000e+00,1.300000000000000000e+01
2.946600000000000000e+04,-1.000000000000000082e-05,-2.000000000000000164e-05,-4.000000000000000327e-05,-2.999999999999999737e-05,-6.999999999999999387e-05,-2.999999999999999737e-05,0.000000000000000000e+00,-2.000000000000000164e-05,1.000000000000000000e+00,1.300000000000000000e+01
2.946700000000000000e+04,-1.000000000000000082e-05,-2.000000000000000164e-05,-4.000000000000000327e-05,-2.999999999999999737e-05,-6.999999999999999387e-05,-2.999999999999999737e-05,0.000000000000000000e+00,-2.000000000000000164e-05,1.000000000000000000e+00,1.300000000000000000e+01
2.946800000000000000e+04,-2.000000000000000164e-05,0.000000000000000000e+00,5.000000000000000240e-05,2.999999999999999737e-05,2.000000000000000164e-05,0.000000000000000000e+00,1.000000000000000082e-05,0.000000000000000000e+00,1.000000000000000000e+00,1.300000000000000000e+01
2.946900000000000000e+04,-2.000000000000000164e-05,0.000000000000000000e+00,5.000000000000000240e-05,2.999999999999999737e-05,2.000000000000000164e-05,0.000000000000000000e+00,1.000000000000000082e-05,0.000000000000000000e+00,1.000000000000000000e+00,1.300000000000000000e+01
2.947000000000000000e+04,-2.000000000000000164e-05,0.000000000000000000e+00,5.000000000000000240e-05,2.999999999999999737e-05,2.000000000000000164e-05,0.000000000000000000e+00,1.000000000000000082e-05,0.000000000000000000e+00,1.000000000000000000e+00,1.300000000000000000e+01
2.947100000000000000e+04,-2.000000000000000164e-05,0.000000000000000000e+00,5.000000000000000240e-05,2.999999999999999737e-05,2.000000000000000164e-05,0.000000000000000000e+00,1.000000000000000082e-05,0.000000000000000000e+00,1.000000000000000000e+00,1.300000000000000000e+01
2.947200000000000000e+04,-2.000000000000000164e-05,0.000000000000000000e+00,5.000000000000000240e-05,2.999999999999999737e-05,2.000000000000000164e-05,0.000000000000000000e+00,1.000000000000000082e-05,0.000000000000000000e+00,1.000000000000000000e+00,1.300000000000000000e+01
2.947300000000000000e+04,-2.000000000000000164e-05,0.000000000000000000e+00,5.000000000000000240e-05,2.999999999999999737e-05,2.000000000000000164e-05,0.000000000000000000e+00,1.000000000000000082e-05,0.000000000000000000e+00,1.000000000000000000e+00,1.300000000000000000e+01
2.947400000000000000e+04,-2.000000000000000164e-05,0.000000000000000000e+00,5.000000000000000240e-05,2.999999999999999737e-05,2.000000000000000164e-05,0.000000000000000000e+00,1.000000000000000082e-05,0.000000000000000000e+00,1.000000000000000000e+00,1.300000000000000000e+01
2.947500000000000000e+04,-2.000000000000000164e-05,0.000000000000000000e+00,5.000000000000000240e-05,2.999999999999999737e-05,2.000000000000000164e-05,0.000000000000000000e+00,1.000000000000000082e-05,0.000000000000000000e+00,1.000000000000000000e+00,1.300000000000000000e+01
2.947600000000000000e+04,-2.000000000000000164e-05,0.000000000000000000e+00,5.000000000000000240e-05,2.999999999999999737e-05,2.000000000000000164e-05,0.000000000000000000e+00,1.000000000000000082e-05,0.000000000000000000e+00,1.000000000000000000e+00,1.300000000000000000e+01
2.947700000000000000e+04,-2.000000000000000164e-05,0.000000000000000000e+00,5.000000000000000240e-05,2.999999999999999737e-05,2.000000000000000164e-05,0.000000000000000000e+00,1.000000000000000082e-05,0.000000000000000000e+00,1.000000000000000000e+00,1.300000000000000000e+01
2.947800000000000000e+04,-2.000000000000000164e-05,0.000000000000000000e+00,5.000000000000000240e-05,2.999999999999999737e-05,2.000000000000000164e-05,0.000000000000000000e+00,1.000000000000000082e-05,0.000000000000000000e+00,1.000000000000000000e+00,1.300000000000000000e+01
2.947900000000000000e+04,-2.000000000000000164e-05,0.000000000000000000e+00,5.000000000000000240e-05,2.999999999999999737e-05,2.000000000000000164e-05,0.000000000000000000e+00,1.000000000000000082e-05,0.000000000000000000e+00,1.000000000000000000e+00,1.300000000000000000e+01
2.948000000000000000e+04,0.000000000000000000e+00,-2.000000000000000164e-05,-4.000000000000000327e-05,0.000000000000000000e+00,-4.000000000000000327e-05,-5.999999999999999474e-05,-1.000000000000000082e-05,-1.000000000000000082e-05,1.000000000000000000e+00,1.300000000000000000e+01
2.948100000000000000e+04,0.000000000000000000e+00,-2.000000000000000164e-05,-4.000000000000000327e-05,0.000000000000000000e+00,-4.000000000000000327e-05,-5.999999999999999474e-05,-1.000000000000000082e-05,-1.000000000000000082e-05,1.000000000000000000e+00,1.300000000000000000e+01
2.948200000000000000e+04,0.000000000000000000e+00,-2.000000000000000164e-05,-4.000000000000000327e-05,0.000000000000000000e+00,-4.000000000000000327e-05,-5.999999999999999474e-05,-1.000000000000000082e-05,-1.000000000000000082e-05,1.000000000000000000e+00,1.300000000000000000e+01
2.948300000000000000e+04,0.000000000000000000e+00,-2.000000000000000164e-05,-4.000000000000000327e-05,0.000000000000000000e+00,-4.000000000000000327e-05,-5.999999999999999474e-05,-1.000000000000000082e-05,-1.000000000000000082e-05,1.000000000000000000e+00,1.300000000000000000e+01
2.948400000000000000e+04,0.000000000000000000e+00,-2.000000000000000164e-05,-4.000000000000000327e-05,0.000000000000000000e+00,-4.000000000000000327e-05,-5.999999999999999474e-05,-1.000000000000000082e-05,-1.000000000000000082e-05,1.000000000000000000e+00,1.300000000000000000e+01
2.948500000000000000e+04,0.000000000000000000e+00,-2.000000000000000164e-05,-4.000000000000000327e-05,0.000000000000000000e+00,-4.000000000000000327e-05,-5.999999999999999474e-05,-1.000000000000000082e-05,-1.000000000000000082e-05,1.000000000000000000e+00,1.300000000000000000e+01
2.948600000000000000e+04,0.000000000000000000e+00,-2.000000000000000164e-05,-4.000000000000000327e-05,0.000000000000000000e+00,-4.000000000000000327e-05,-5.999999999999999474e-05,-1.000000000000000082e-05,-1.000000000000000082e-05,1.000000000000000000e+00,1.300000000000000000e+01
2.948800000000000000e+04,0.000000000000000000e+00,-2.000000000000000164e-05,-4.000000000000000327e-05,0.000000000000000000e+00,-4.000000000000000327e-05,-5.999999999999999474e-05,-1.000000000000000082e-05,-1.000000000000000082e-05,1.000000000000000000e+00,1.300000000000000000e+01
2.948900000000000000e+04,2.000000000000000164e-05,1.000000000000000082e-05,-4.000000000000000327e-05,-1.000000000000000082e-05,1.100000000000000039e-04,1.300000000000000157e-04,0.000000000000000000e+00,0.000000000000000000e+00,1.000000000000000000e+00,1.300000000000000000e+01
2.949000000000000000e+04,2.000000000000000164e-05,1.000000000000000082e-05,-4.000000000000000327e-05,-1.000000000000000082e-05,1.100000000000000039e-04,1.300000000000000157e-04,0.000000000000000000e+00,0.000000000000000000e+00,1.000000000000000000e+00,1.300000000000000000e+01
2.949100000000000000e+04,2.000000000000000164e-05,1.000000000000000082e-05,-4.000000000000000327e-05,-1.000000000000000082e-05,1.100000000000000039e-04,1.300000000000000157e-04,0.000000000000000000e+00,0.000000000000000000e+00,1.000000000000000000e+00,1.300000000000000000e+01
2.949200000000000000e+04,2.000000000000000164e-05,1.000000000000000082e-05,-4.000000000000000327e-05,-1.000000000000000082e-05,1.100000000000000039e-04,1.300000000000000157e-04,0.000000000000000000e+00,0.000000000000000000e+00,1.000000000000000000e+00,1.300000000000000000e+01
2.949300000000000000e+04,2.000000000000000164e-05,1.000000000000000082e-05,-4.000000000000000327e-05,-1.000000000000000082e-05,1.100000000000000039e-04,1.300000000000000157e-04,0.000000000000000000e+00,0.000000000000000000e+00,1.000000000000000000e+00,1.300000000000000000e+01
2.949400000000000000e+04,2.000000000000000164e-05,1.000000000000000082e-05,-4.000000000000000327e-05,-1.000000000000000082e-05,1.100000000000000039e-04,1.300000000000000157e-04,0.000000000000000000e+00,0.000000000000000000e+00,1.000000000000000000e+00,1.300000000000000000e+01
2.949500000000000000e+04,2.000000000000000164e-05,1.000000000000000082e-05,-4.000000000000000327e-05,-1.000000000000000082e-05,1.100000000000000039e-04,1.300000000000000157e-04,0.000000000000000000e+00,0.000000000000000000e+00,1.000000000000000000e+00,1.300000000000000000e+01
2.949600000000000000e+04,2.000000000000000164e-05,1.000000000000000082e-05,-4.000000000000000327e-05,-1.000000000000000082e-05,1.100000000000000039e-04,1.300000000000000157e-04,0.000000000000000000e+00,0.000000000000000000e+00,1.000000000000000000e+00,1.300000000000000000e+01
2.949700000000000000e+04,2.000000000000000164e-05,1.000000000000000082e-05,-4.000000000000000327e-05,-1.000000000000000082e-05,1.100000000000000039e-04,1.300000000000000157e-04,0.000000000000000000e+00,0.000000000000000000e+00,1.000000000000000000e+00,1.300000000000000000e+01
2.949800000000000000e+04,2.000000000000000164e-05,1.000000000000000082e-05,-4.000000000000000327e-05,-1.000000000000000082e-05,1.100000000000000039e-04,1.300000000000000157e-04,0.000000000000000000e+00,0.000000000000000000e+00,1.000000000000000000e+00,1.300000000000000000e+01
2.949900000000000000e+04,2.000000000000000164e-05,1.000000000000000082e-05,-4.000000000000000327e-05,-1.000000000000000082e-05,1.100000000000000039e-04,1.300000000000000157e-04,0.000000000000000000e+00,0.000000000000000000e+00,1.000000000000000000e+00,1.300000000000000000e+01
2.950000000000000000e+04,2.000000000000000164e-05,1.000000000000000082e-05,-4.000000000000000327e-05,-1.000000000000000082e-05,1.100000000000000039e-04,1.300000000000000157e-04,0.000000000000000000e+00,0.000000000000000000e+00,1.000000000000000000e+00,1.300000000000000000e+01
2.950100000000000000e+04,2.000000000000000164e-05,1.000000000000000082e-05,-4.000000000000000327e-05,-1.000000000000000082e-05,1.100000000000000039e-04,1.300000000000000157e-04,0.000000000000000000e+00,0.000000000000000000e+00,1.000000000000000000e+00,1.300000000000000000e+01
2.950200000000000000e+04,2.000000000000000164e-05,1.000000000000000082e-05,-4.000000000000000327e-05,-1.000000000000000082e-05,1.100000000000000039e-04,1.300000000000000157e-04,0.000000000000000000e+00,0.000000000000000000e+00,1.000000000000000000e+00,1.300000000000000000e+01
2.950400000000000000e+04,-2.000000000000000164e-05,-2.000000000000000164e-05,-1.000000000000000082e-05,-1.000000000000000082e-05,1.000000000000000082e-05,-2.999999999999999737e-05,0.000000000000000000e+00,-2.000000000000000164e-05,1.000000000000000000e+00,1.300000000000000000e+01
2.950500000000000000e+04,0.000000000000000000e+00,-1.000000000000000082e-05,1.000000000000000082e-05,-4.000000000000000327e-05,-5.000000000000000240e-05,-1.000000000000000082e-05,-1.000000000000000082e-05,-1.000000000000000082e-05,1.000000000000000000e+00,1.300000000000000000e+01
2.950600000000000000e+04,0.000000000000000000e+00,-1.000000000000000082e-05,1.000000000000000082e-05,-4.000000000000000327e-05,-5.000000000000000240e-05,-1.000000000000000082e-05,-1.000000000000000082e-05,-1.000000000000000082e-05,1.000000000000000000e+00,1.300000000000000000e+01
2.950700000000000000e+04,0.000000000000000000e+00,-1.000000000000000082e-05,1.000000000000000082e-05,-4.000000000000000327e-05,-5.000000000000000240e-05,-1.000000000000000082e-05,-1.000000000000000082e-05,-1.000000000000000082e-05,1.000000000000000000e+00,1.300000000000000000e+01
2.950800000000000000e+04,0.000000000000000000e+00,-1.000000000000000082e-05,1.000000000000000082e-05,-4.000000000000000327e-05,-5.000000000000000240e-05,-1.000000000000000082e-05,-1.000000000000000082e-05,-1.000000000000000082e-05,1.000000000000000000e+00,1.300000000000000000e+01
2.950900000000000000e+04,0.000000000000000000e+00,-1.000000000000000082e-05,1.000000000000000082e-05,-4.000000000000000327e-05,-5.000000000000000240e-05,-1.000000000000000082e-05,-1.000000000000000082e-05,-1.000000000000000082e-05,1.000000000000000000e+00,1.300000000000000000e+01
2.951000000000000000e+04,0.000000000000000000e+00,-1.000000000000000082e-05,1.000000000000000082e-05,-4.000000000000000327e-05,-5.000000000000000240e-05,-1.000000000000000082e-05,-1.000000000000000082e-05,-1.000000000000000082e-05,1.000000000000000000e+00,1.300000000000000000e+01
2.951100000000000000e+04,0.000000000000000000e+00,-1.000000000000000082e-05,1.000000000000000082e-05,-4.000000000000000327e-05,-5.000000000000000240e-05,-1.000000000000000082e-05,-1.000000000000000082e-05,-1.000000000000000082e-05,1.000000000000000000e+00,1.300000000000000000e+01
2.951200000000000000e+04,0.000000000000000000e+00,-1.000000000000000082e-05,1.000000000000000082e-05,-4.000000000000000327e-05,-5.000000000000000240e-05,-1.000000000000000082e-05,-1.000000000000000082e-05,-1.000000000000000082e-05,1.000000000000000000e+00,1.300000000000000000e+01
2.951300000000000000e+04,0.000000000000000000e+00,-1.000000000000000082e-05,1.000000000000000082e-05,-4.000000000000000327e-05,-5.000000000000000240e-05,-1.000000000000000082e-05,-1.000000000000000082e-05,-1.000000000000000082e-05,1.000000000000000000e+00,1.300000000000000000e+01
2.951400000000000000e+04,0.000000000000000000e+00,-1.000000000000000082e-05,1.000000000000000082e-05,-4.000000000000000327e-05,-5.000000000000000240e-05,-1.000000000000000082e-05,-1.000000000000000082e-05,-1.000000000000000082e-05,1.000000000000000000e+00,1.300000000000000000e+01
2.951500000000000000e+04,0.000000000000000000e+00,-1.000000000000000082e-05,1.000000000000000082e-05,-4.000000000000000327e-05,-5.000000000000000240e-05,-1.000000000000000082e-05,-1.000000000000000082e-05,-1.000000000000000082e-05,1.000000000000000000e+00,1.300000000000000000e+01
2.951600000000000000e+04,0.000000000000000000e+00,-1.000000000000000082e-05,1.000000000000000082e-05,-4.000000000000000327e-05,-5.000000000000000240e-05,-1.000000000000000082e-05,-1.000000000000000082e-05,-1.000000000000000082e-05,1.000000000000000000e+00,1.300000000000000000e+01
2.951700000000000000e+04,0.000000000000000000e+00,-1.000000000000000082e-05,1.000000000000000082e-05,-4.000000000000000327e-05,-5.000000000000000240e-05,-1.000000000000000082e-05,-1.000000000000000082e-05,-1.000000000000000082e-05,1.000000000000000000e+00,1.300000000000000000e+01
2.951800000000000000e+04,0.000000000000000000e+00,-1.000000000000000082e-05,1.000000000000000082e-05,-4.000000000000000327e-05,-5.000000000000000240e-05,-1.000000000000000082e-05,-1.000000000000000082e-05,-1.000000000000000082e-05,1.000000000000000000e+00,1.300000000000000000e+01
2.951900000000000000e+04,0.000000000000000000e+00,-1.000000000000000082e-05,1.000000000000000082e-05,-4.000000000000000327e-05,-5.000000000000000240e-05,-1.000000000000000082e-05,-1.000000000000000082e-05,-1.000000000000000082e-05,1.000000000000000000e+00,1.300000000000000000e+01
2.952000000000000000e+04,0.000000000000000000e+00,-1.000000000000000082e-05,1.000000000000000082e-05,-4.000000000000000327e-05,-5.000000000000000240e-05,-1.000000000000000082e-05,-1.000000000000000082e-05,-1.000000000000000082e-05,1.000000000000000000e+00,1.300000000000000000e+01
2.952100000000000000e+04,0.000000000000000000e+00,-1.000000000000000082e-05,1.000000000000000082e-05,-4.000000000000000327e-05,-5.000000000000000240e-05,-1.000000000000000082e-05,-1.000000000000000082e-05,-1.000000000000000082e-05,1.000000000000000000e+00,1.300000000000000000e+01
2.952200000000000000e+04,0.000000000000000000e+00,-1.000000000000000082e-05,1.000000000000000082e-05,-4.000000000000000327e-05,-5.000000000000000240e-05,-1.000000000000000082e-05,-1.000000000000000082e-05,-1.000000000000000082e-05,1.000000000000000000e+00,1.300000000000000000e+01
2.952300000000000000e+04,0.000000000000000000e+00,-1.000000000000000082e-05,1.000000000000000082e-05,-4.000000000000000327e-05,-5.000000000000000240e-05,-1.000000000000000082e-05,-1.000000000000000082e-05,-1.000000000000000082e-05,1.000000000000000000e+00,1.300000000000000000e+01
2.952400000000000000e+04,0.000000000000000000e+00,-1.000000000000000082e-05,1.000000000000000082e-05,-4.000000000000000327e-05,-5.000000000000000240e-05,-1.000000000000000082e-05,-1.000000000000000082e-05,-1.000000000000000082e-05,1.000000000000000000e+00,1.300000000000000000e+01
2.952500000000000000e+04,0.000000000000000000e+00,-1.000000000000000082e-05,1.000000000000000082e-05,-4.000000000000000327e-05,-5.000000000000000240e-05,-1.000000000000000082e-05,-1.000000000000000082e-05,-1.000000000000000082e-05,1.000000000000000000e+00,1.300000000000000000e+01
2.952600000000000000e+04,-1.000000000000000082e-05,-2.999999999999999737e-05,1.000000000000000082e-05,5.999999999999999474e-05,1.000000000000000082e-05,2.999999999999999737e-05,-1.000000000000000082e-05,-1.000000000000000082e-05,1.000000000000000000e+00,1.300000000000000000e+01
2.952700000000000000e+04,-1.000000000000000082e-05,-2.999999999999999737e-05,1.000000000000000082e-05,5.999999999999999474e-05,1.000000000000000082e-05,2.999999999999999737e-05,-1.000000000000000082e-05,-1.000000000000000082e-05,1.000000000000000000e+00,1.300000000000000000e+01
2.952800000000000000e+04,-1.000000000000000082e-05,-1.000000000000000082e-05,0.000000000000000000e+00,2.999999999999999737e-05,0.000000000000000000e+00,-2.999999999999999737e-05,0.000000000000000000e+00,-1.000000000000000082e-05,1.000000000000000000e+00,1.300000000000000000e+01
2.952900000000000000e+04,-1.000000000000000082e-05,-1.000000000000000082e-05,0.000000000000000000e+00,2.999999999999999737e-05,0.000000000000000000e+00,-2.999999999999999737e-05,0.000000000000000000e+00,-1.000000000000000082e-05,1.000000000000000000e+00,1.300000000000000000e+01
2.953000000000000000e+04,-1.000000000000000082e-05,-1.000000000000000082e-05,0.000000000000000000e+00,2.999999999999999737e-05,0.000000000000000000e+00,-2.999999999999999737e-05,0.000000000000000000e+00,-1.000000000000000082e-05,1.000000000000000000e+00,1.300000000000000000e+01
2.953100000000000000e+04,-1.000000000000000082e-05,-1.000000000000000082e-05,0.000000000000000000e+00,2.999999999999999737e-05,0.000000000000000000e+00,-2.999999999999999737e-05,0.000000000000000000e+00,-1.000000000000000082e-05,1.000000000000000000e+00,1.300000000000000000e+01
2.953200000000000000e+04,-1.000000000000000082e-05,-1.000000000000000082e-05,0.000000000000000000e+00,2.999999999999999737e-05,0.000000000000000000e+00,-2.999999999999999737e-05,0.000000000000000000e+00,-1.000000000000000082e-05,1.000000000000000000e+00,1.300000000000000000e+01
2.953300000000000000e+04,-1.000000000000000082e-05,-1.000000000000000082e-05,0.000000000000000000e+00,2.999999999999999737e-05,0.000000000000000000e+00,-2.999999999999999737e-05,0.000000000000000000e+00,-1.000000000000000082e-05,1.000000000000000000e+00,1.300000000000000000e+01
2.953400000000000000e+04,-1.000000000000000082e-05,-1.000000000000000082e-05,0.000000000000000000e+00,2.999999999999999737e-05,0.000000000000000000e+00,-2.999999999999999737e-05,0.000000000000000000e+00,-1.000000000000000082e-05,1.000000000000000000e+00,1.300000000000000000e+01
2.953500000000000000e+04,-1.000000000000000082e-05,-1.000000000000000082e-05,0.000000000000000000e+00,2.999999999999999737e-05,0.000000000000000000e+00,-2.999999999999999737e-05,0.000000000000000000e+00,-1.000000000000000082e-05,1.000000000000000000e+00,1.300000000000000000e+01
2.953600000000000000e+04,-1.000000000000000082e-05,-1.000000000000000082e-05,0.000000000000000000e+00,2.999999999999999737e-05,0.000000000000000000e+00,-2.999999999999999737e-05,0.000000000000000000e+00,-1.000000000000000082e-05,1.000000000000000000e+00,1.300000000000000000e+01
2.953800000000000000e+04,-1.000000000000000082e-05,-1.000000000000000082e-05,0.000000000000000000e+00,2.999999999999999737e-05,0.000000000000000000e+00,-2.999999999999999737e-05,0.000000000000000000e+00,-1.000000000000000082e-05,1.000000000000000000e+00,1.300000000000000000e+01
2.953900000000000000e+04,-1.000000000000000082e-05,-1.000000000000000082e-05,0.000000000000000000e+00,2.999999999999999737e-05,0.000000000000000000e+00,-2.999999999999999737e-05,0.000000000000000000e+00,-1.000000000000000082e-05,1.000000000000000000e+00,1.300000000000000000e+01
2.954000000000000000e+04,-1.000000000000000082e-05,1.000000000000000082e-05,5.999999999999999474e-05,2.000000000000000164e-05,-1.000000000000000082e-05,-1.000000000000000082e-05,-2.999999999999999737e-05,-2.000000000000000164e-05,1.000000000000000000e+00,1.300000000000000000e+01
2.954100000000000000e+04,-1.000000000000000082e-05,1.000000000000000082e-05,5.999999999999999474e-05,2.000000000000000164e-05,-1.000000000000000082e-05,-1.000000000000000082e-05,-2.999999999999999737e-05,-2.000000000000000164e-05,1.000000000000000000e+00,1.300000000000000000e+01
2.954200000000000000e+04,-1.000000000000000082e-05,1.000000000000000082e-05,5.999999999999999474e-05,2.000000000000000164e-05,-1.000000000000000082e-05,-1.000000000000000082e-05,-2.999999999999999737e-05,-2.000000000000000164e-05,1.000000000000000000e+00,1.300000000000000000e+01
2.954300000000000000e+04,-1.000000000000000082e-05,1.000000000000000082e-05,5.999999999999999474e-05,2.000000000000000164e-05,-1.000000000000000082e-05,-1.000000000000000082e-05,-2.999999999999999737e-05,-2.000000000000000164e-05,1.000000000000000000e+00,1.300000000000000000e+01
2.954400000000000000e+04,-1.000000000000000082e-05,1.000000000000000082e-05,5.999999999999999474e-05,2.000000000000000164e-05,-1.000000000000000082e-05,-1.000000000000000082e-05,-2.999999999999999737e-05,-2.000000000000000164e-05,1.000000000000000000e+00,1.300000000000000000e+01
2.954500000000000000e+04,-1.000000000000000082e-05,1.000000000000000082e-05,5.999999999999999474e-05,2.000000000000000164e-05,-1.000000000000000082e-05,-1.000000000000000082e-05,-2.999999999999999737e-05,-2.000000000000000164e-05,1.000000000000000000e+00,1.300000000000000000e+01
2.954600000000000000e+04,-1.000000000000000082e-05,1.000000000000000082e-05,5.999999999999999474e-05,2.000000000000000164e-05,-1.000000000000000082e-05,-1.000000000000000082e-05,-2.999999999999999737e-05,-2.000000000000000164e-05,1.000000000000000000e+00,1.300000000000000000e+01
2.954700000000000000e+04,-1.000000000000000082e-05,1.000000000000000082e-05,5.999999999999999474e-05,2.000000000000000164e-05,-1.000000000000000082e-05,-1.000000000000000082e-05,-2.999999999999999737e-05,-2.000000000000000164e-05,1.000000000000000000e+00,1.300000000000000000e+01
2.954800000000000000e+04,-1.000000000000000082e-05,1.000000000000000082e-05,5.999999999999999474e-05,2.000000000000000164e-05,-1.000000000000000082e-05,-1.000000000000000082e-05,-2.999999999999999737e-05,-2.000000000000000164e-05,1.000000000000000000e+00,1.300000000000000000e+01
2.954900000000000000e+04,-1.000000000000000082e-05,-1.000000000000000082e-05,-5.000000000000000240e-05,-4.000000000000000327e-05,-4.000000000000000327e-05,-6.999999999999999387e-05,-2.000000000000000164e-05,-2.000000000000000164e-05,1.000000000000000000e+00,1.300000000000000000e+01
2.955000000000000000e+04,-1.000000000000000082e-05,-1.000000000000000082e-05,-5.000000000000000240e-05,-4.000000000000000327e-05,-4.000000000000000327e-05,-6.999999999999999387e-05,-2.000000000000000164e-05,-2.000000000000000164e-05,1.000000000000000000e+00,1.300000000000000000e+01
2.955100000000000000e+04,-1.000000000000000082e-05,-1.000000000000000082e-05,-5.000000000000000240e-05,-4.000000000000000327e-05,-4.000000000000000327e-05,-6.999999999999999387e-05,-2.000000000000000164e-05,-2.000000000000000164e-05,1.000000000000000000e+00,1.300000000000000000e+01
2.955200000000000000e+04,-1.000000000000000082e-05,-1.000000000000000082e-05,-5.000000000000000240e-05,-4.000000000000000327e-05,-4.000000000000000327e-05,-6.999999999999999387e-05,-2.000000000000000164e-05,-2.000000000000000164e-05,1.000000000000000000e+00,1.300000000000000000e+01
2.955400000000000000e+04,-1.000000000000000082e-05,-1.000000000000000082e-05,-5.000000000000000240e-05,-4.000000000000000327e-05,-4.000000000000000327e-05,-6.999999999999999387e-05,-2.000000000000000164e-05,-2.000000000000000164e-05,1.000000000000000000e+00,1.300000000000000000e+01
2.955500000000000000e+04,-1.000000000000000082e-05,-1.000000000000000082e-05,-5.000000000000000240e-05,-4.000000000000000327e-05,-4.000000000000000327e-05,-6.999999999999999387e-05,-2.000000000000000164e-05,-2.000000000000000164e-05,1.000000000000000000e+00,1.300000000000000000e+01
2.955600000000000000e+04,-1.000000000000000082e-05,-1.000000000000000082e-05,-5.000000000000000240e-05,-4.000000000000000327e-05,-4.000000000000000327e-05,-6.999999999999999387e-05,-2.000000000000000164e-05,-2.000000000000000164e-05,1.000000000000000000e+00,1.300000000000000000e+01
2.955700000000000000e+04,-1.000000000000000082e-05,-1.000000000000000082e-05,-5.000000000000000240e-05,-4.000000000000000327e-05,-4.000000000000000327e-05,-6.999999999999999387e-05,-2.000000000000000164e-05,-2.000000000000000164e-05,1.000000000000000000e+00,1.300000000000000000e+01
2.955800000000000000e+04,-1.000000000000000082e-05,-1.000000000000000082e-05,-5.000000000000000240e-05,-4.000000000000000327e-05,-4.000000000000000327e-05,-6.999999999999999387e-05,-2.000000000000000164e-05,-2.000000000000000164e-05,1.000000000000000000e+00,1.300000000000000000e+01
2.955900000000000000e+04,-1.000000000000000082e-05,-1.000000000000000082e-05,-5.000000000000000240e-05,-4.000000000000000327e-05,-4.000000000000000327e-05,-6.999999999999999387e-05,-2.000000000000000164e-05,-2.000000000000000164e-05,1.000000000000000000e+00,1.300000000000000000e+01
2.956000000000000000e+04,-1.000000000000000082e-05,-1.000000000000000082e-05,-5.000000000000000240e-05,-4.000000000000000327e-05,-4.000000000000000327e-05,-6.999999999999999387e-05,-2.000000000000000164e-05,-2.000000000000000164e-05,1.000000000000000000e+00,1.300000000000000000e+01
2.956100000000000000e+04,-1.000000000000000082e-05,-1.000000000000000082e-05,-5.000000000000000240e-05,-4.000000000000000327e-05,-4.000000000000000327e-05,-6.999999999999999387e-05,-2.000000000000000164e-05,-2.000000000000000164e-05,1.000000000000000000e+00,1.300000000000000000e+01
2.956200000000000000e+04,-1.000000000000000082e-05,-1.000000000000000082e-05,-5.000000000000000240e-05,-4.000000000000000327e-05,-4.000000000000000327e-05,-6.999999999999999387e-05,-2.000000000000000164e-05,-2.000000000000000164e-05,1.000000000000000000e+00,1.300000000000000000e+01
2.956300000000000000e+04,-1.000000000000000082e-05,-1.000000000000000082e-05,-5.000000000000000240e-05,-4.000000000000000327e-05,-4.000000000000000327e-05,-6.999999999999999387e-05,-2.000000000000000164e-05,-2.000000000000000164e-05,1.000000000000000000e+00,1.300000000000000000e+01
2.956400000000000000e+04,1.000000000000000082e-05,0.000000000000000000e+00,4.000000000000000327e-05,0.000000000000000000e+00,-1.000000000000000082e-05,2.000000000000000164e-05,-1.000000000000000082e-05,0.000000000000000000e+00,1.000000000000000000e+00,1.300000000000000000e+01
2.956500000000000000e+04,-1.000000000000000082e-05,-5.000000000000000240e-05,-5.000000000000000240e-05,9.000000000000000567e-05,5.999999999999999474e-05,5.999999999999999474e-05,-2.000000000000000164e-05,-2.000000000000000164e-05,1.000000000000000000e+00,1.300000000000000000e+01
2.956600000000000000e+04,-1.000000000000000082e-05,-5.000000000000000240e-05,-5.000000000000000240e-05,9.000000000000000567e-05,5.999999999999999474e-05,5.999999999999999474e-05,-2.000000000000000164e-05,-2.000000000000000164e-05,1.000000000000000000e+00,1.300000000000000000e+01
2.956700000000000000e+04,-1.000000000000000082e-05,-5.000000000000000240e-05,-5.000000000000000240e-05,9.000000000000000567e-05,5.999999999999999474e-05,5.999999999999999474e-05,-2.000000000000000164e-05,-2.000000000000000164e-05,1.000000000000000000e+00,1.300000000000000000e+01
2.956800000000000000e+04,-1.000000000000000082e-05,-5.000000000000000240e-05,-5.000000000000000240e-05,9.000000000000000567e-05,5.999999999999999474e-05,5.999999999999999474e-05,-2.000000000000000164e-05,-2.000000000000000164e-05,1.000000000000000000e+00,1.300000000000000000e+01
2.956900000000000000e+04,-1.000000000000000082e-05,-5.000000000000000240e-05,-5.000000000000000240e-05,9.000000000000000567e-05,5.999999999999999474e-05,5.999999999999999474e-05,-2.000000000000000164e-05,-2.000000000000000164e-05,1.000000000000000000e+00,1.300000000000000000e+01
2.957000000000000000e+04,-1.000000000000000082e-05,-5.000000000000000240e-05,-5.000000000000000240e-05,9.000000000000000567e-05,5.999999999999999474e-05,5.999999999999999474e-05,-2.000000000000000164e-05,-2.000000000000000164e-05,1.000000000000000000e+00,1.300000000000000000e+01
2.957100000000000000e+04,-1.000000000000000082e-05,-5.000000000000000240e-05,-5.000000000000000240e-05,9.000000000000000567e-05,5.999999999999999474e-05,5.999999999999999474e-05,-2.000000000000000164e-05,-2.000000000000000164e-05,1.000000000000000000e+00,1.300000000000000000e+01
2.957200000000000000e+04,-1.000000000000000082e-05,-5.000000000000000240e-05,-5.000000000000000240e-05,9.000000000000000567e-05,5.999999999999999474e-05,5.999999999999999474e-05,-2.000000000000000164e-05,-2.000000000000000164e-05,1.000000000000000000e+00,1.300000000000000000e+01
2.957300000000000000e+04,-1.000000000000000082e-05,-5.000000000000000240e-05,-5.000000000000000240e-05,9.000000000000000567e-05,5.999999999999999474e-05,5.999999999999999474e-05,-2.000000000000000164e-05,-2.000000000000000164e-05,1.000000000000000000e+00,1.300000000000000000e+01
2.957400000000000000e+04,-1.000000000000000082e-05,-5.000000000000000240e-05,-5.000000000000000240e-05,9.000000000000000567e-05,5.999999999999999474e-05,5.999999999999999474e-05,-2.000000000000000164e-05,-2.000000000000000164e-05,1.000000000000000000e+00,1.300000000000000000e+01
2.957500000000000000e+04,-1.000000000000000082e-05,-5.000000000000000240e-05,-5.000000000000000240e-05,9.000000000000000567e-05,5.999999999999999474e-05,5.999999999999999474e-05,-2.000000000000000164e-05,-2.000000000000000164e-05,1.000000000000000000e+00,1.300000000000000000e+01
2.957600000000000000e+04,-1.000000000000000082e-05,-5.000000000000000240e-05,-5.000000000000000240e-05,9.000000000000000567e-05,5.999999999999999474e-05,5.999999999999999474e-05,-2.000000000000000164e-05,-2.000000000000000164e-05,1.000000000000000000e+00,1.300000000000000000e+01
2.957700000000000000e+04,-1.000000000000000082e-05,-5.000000000000000240e-05,-5.000000000000000240e-05,9.000000000000000567e-05,5.999999999999999474e-05,5.999999999999999474e-05,-2.000000000000000164e-05,-2.000000000000000164e-05,1.000000000000000000e+00,1.300000000000000000e+01
2.957800000000000000e+04,-1.000000000000000082e-05,-5.000000000000000240e-05,-5.000000000000000240e-05,9.000000000000000567e-05,5.999999999999999474e-05,5.999999999999999474e-05,-2.000000000000000164e-05,-2.000000000000000164e-05,1.000000000000000000e+00,1.300000000000000000e+01
2.957900000000000000e+04,-1.000000000000000082e-05,-5.000000000000000240e-05,-5.000000000000000240e-05,9.000000000000000567e-05,5.999999999999999474e-05,5.999999999999999474e-05,-2.000000000000000164e-05,-2.000000000000000164e-05,1.000000000000000000e+00,1.300000000000000000e+01
2.958000000000000000e+04,-1.000000000000000082e-05,-5.000000000000000240e-05,-5.000000000000000240e-05,9.000000000000000567e-05,5.999999999999999474e-05,5.999999999999999474e-05,-2.000000000000000164e-05,-2.000000000000000164e-05,1.000000000000000000e+00,1.300000000000000000e+01
2.958100000000000000e+04,-1.000000000000000082e-05,-5.000000000000000240e-05,-5.000000000000000240e-05,9.000000000000000567e-05,5.999999999999999474e-05,5.999999999999999474e-05,-2.000000000000000164e-05,-2.000000000000000164e-05,1.000000000000000000e+00,1.300000000000000000e+01
2.958200000000000000e+04,-1.000000000000000082e-05,-5.000000000000000240e-05,-5.000000000000000240e-05,9.000000000000000567e-05,5.999999999999999474e-05,5.999999999999999474e-05,-2.000000000000000164e-05,-2.000000000000000164e-05,1.000000000000000000e+00,1.300000000000000000e+01
2.958300000000000000e+04,-1.000000000000000082e-05,-5.000000000000000240e-05,-5.000000000000000240e-05,9.000000000000000567e-05,5.999999999999999474e-05,5.999999999999999474e-05,-2.000000000000000164e-05,-2.000000000000000164e-05,1.000000000000000000e+00,1.300000000000000000e+01
2.958400000000000000e+04,-1.000000000000000082e-05,-5.000000000000000240e-05,-5.000000000000000240e-05,9.000000000000000567e-05,5.999999999999999474e-05,5.999999999999999474e-05,-2.000000000000000164e-05,-2.000000000000000164e-05,1.000000000000000000e+00,1.300000000000000000e+01
2.958500000000000000e+04,-1.000000000000000082e-05,-5.000000000000000240e-05,-5.000000000000000240e-05,9.000000000000000567e-05,5.999999999999999474e-05,5.999999999999999474e-05,-2.000000000000000164e-05,-2.000000000000000164e-05,1.000000000000000000e+00,1.300000000000000000e+01
2.958600000000000000e+04,-2.999999999999999737e-05,-5.999999999999999474e-05,-5.999999999999999474e-05,-5.000000000000000240e-05,2.000000000000000164e-05,-1.000000000000000082e-05,0.000000000000000000e+00,-2.999999999999999737e-05,1.000000000000000000e+00,1.300000000000000000e+01
2.958800000000000000e+04,0.000000000000000000e+00,4.000000000000000327e-05,5.999999999999999474e-05,-2.999999999999999737e-05,-5.999999999999999474e-05,-2.999999999999999737e-05,1.000000000000000082e-05,1.000000000000000082e-05,1.000000000000000000e+00,1.300000000000000000e+01
2.958900000000000000e+04,0.000000000000000000e+00,4.000000000000000327e-05,5.999999999999999474e-05,-2.999999999999999737e-05,-5.999999999999999474e-05,-2.999999999999999737e-05,1.000000000000000082e-05,1.000000000000000082e-05,1.000000000000000000e+00,1.300000000000000000e+01
2.959000000000000000e+04,0.000000000000000000e+00,4.000000000000000327e-05,5.999999999999999474e-05,-2.999999999999999737e-05,-5.999999999999999474e-05,-2.999999999999999737e-05,1.000000000000000082e-05,1.000000000000000082e-05,1.000000000000000000e+00,1.300000000000000000e+01
2.959100000000000000e+04,0.000000000000000000e+00,4.000000000000000327e-05,5.999999999999999474e-05,-2.999999999999999737e-05,-5.999999999999999474e-05,-2.999999999999999737e-05,1.000000000000000082e-05,1.000000000000000082e-05,1.000000000000000000e+00,1.300000000000000000e+01
2.959200000000000000e+04,0.000000000000000000e+00,4.000000000000000327e-05,5.999999999999999474e-05,-2.999999999999999737e-05,-5.999999999999999474e-05,-2.999999999999999737e-05,1.000000000000000082e-05,1.000000000000000082e-05,1.000000000000000000e+00,1.300000000000000000e+01
2.959300000000000000e+04,0.000000000000000000e+00,4.000000000000000327e-05,5.999999999999999474e-05,-2.999999999999999737e-05,-5.999999999999999474e-05,-2.999999999999999737e-05,1.000000000000000082e-05,1.000000000000000082e-05,1.000000000000000000e+00,1.300000000000000000e+01
2.959400000000000000e+04,0.000000000000000000e+00,4.000000000000000327e-05,5.999999999999999474e-05,-2.999999999999999737e-05,-5.999999999999999474e-05,-2.999999999999999737e-05,1.000000000000000082e-05,1.000000000000000082e-05,1.000000000000000000e+00,1.300000000000000000e+01
2.959500000000000000e+04,0.000000000000000000e+00,4.000000000000000327e-05,5.999999999999999474e-05,-2.999999999999999737e-05,-5.999999999999999474e-05,-2.999999999999999737e-05,1.000000000000000082e-05,1.000000000000000082e-05,1.000000000000000000e+00,1.300000000000000000e+01
2.959600000000000000e+04,0.000000000000000000e+00,4.000000000000000327e-05,5.999999999999999474e-05,-2.999999999999999737e-05,-5.999999999999999474e-05,-2.999999999999999737e-05,1.000000000000000082e-05,1.000000000000000082e-05,1.000000000000000000e+00,1.300000000000000000e+01
2.959700000000000000e+04,0.000000000000000000e+00,4.000000000000000327e-05,5.999999999999999474e-05,-2.999999999999999737e-05,-5.999999999999999474e-05,-2.999999999999999737e-05,1.000000000000000082e-05,1.000000000000000082e-05,1.000000000000000000e+00,1.300000000000000000e+01
2.959800000000000000e+04,0.000000000000000000e+00,4.000000000000000327e-05,5.999999999999999474e-05,-2.999999999999999737e-05,-5.999999999999999474e-05,-2.999999999999999737e-05,1.000000000000000082e-05,1.000000000000000082e-05,1.000000000000000000e+00,1.300000000000000000e+01
2.959900000000000000e+04,0.000000000000000000e+00,4.000000000000000327e-05,5.999999999999999474e-05,-2.999999999999999737e-05,-5.999999999999999474e-05,-2.999999999999999737e-05,1.000000000000000082e-05,1.000000000000000082e-05,1.000000000000000000e+00,1.300000000000000000e+01
2.960000000000000000e+04,-2.999999999999999737e-05,-2.999999999999999737e-05,-2.999999999999999737e-05,1.000000000000000082e-05,0.000000000000000000e+00,-4.000000000000000327e-05,-1.000000000000000082e-05,-2.000000000000000164e-05,1.000000000000000000e+00,1.300000000000000000e+01
2.960100000000000000e+04,-2.999999999999999737e-05,-2.999999999999999737e-05,-2.999999999999999737e-05,1.000000000000000082e-05,0.000000000000000000e+00,-4.000000000000000327e-05,-1.000000000000000082e-05,-2.000000000000000164e-05,1.000000000000000000e+00,1.300000000000000000e+01
2.960200000000000000e+04,-2.999999999999999737e-05,-2.999999999999999737e-05,-2.999999999999999737e-05,1.000000000000000082e-05,0.000000000000000000e+00,-4.000000000000000327e-05,-1.000000000000000082e-05,-2.000000000000000164e-05,1.000000000000000000e+00,1.300000000000000000e+01
2.960400000000000000e+04,-2.999999999999999737e-05,-2.999999999999999737e-05,-2.999999999999999737e-05,1.000000000000000082e-05,0.000000000000000000e+00,-4.000000000000000327e-05,-1.000000000000000082e-05,-2.000000000000000164e-05,1.000000000000000000e+00,1.300000000000000000e+01
2.960500000000000000e+04,-2.999999999999999737e-05,-2.999999999999999737e-05,-2.999999999999999737e-05,1.000000000000000082e-05,0.000000000000000000e+00,-4.000000000000000327e-05,-1.000000000000000082e-05,-2.000000000000000164e-05,1.000000000000000000e+00,1.300000000000000000e+01
2.960600000000000000e+04,-2.999999999999999737e-05,-2.999999999999999737e-05,-2.999999999999999737e-05,1.000000000000000082e-05,0.000000000000000000e+00,-4.000000000000000327e-05,-1.000000000000000082e-05,-2.000000000000000164e-05,1.000000000000000000e+00,1.300000000000000000e+01
